################################################################################
# EDF_DataBlockID                     0.Image.Psd
# EDF_BinarySize                      2105344
# EDF_HeaderSize                      2560
# ByteOrder                           LowByteFirst
# DataType                            FloatValue
# Dim_1                               512
# Dim_2                               1028
# Image                               0
# HeaderID                            EH:000000:000000:000000
# Size                                2105344
# Center_1                            304.9000
# Center_2                            588.7000
# Comment                             Xenocs_Cell_Window - 20251028_20perc_iodine_1.23mg
# DDummy                              0.6
# Date                                2025-10-28T21:13:32
# Delta                               21.910000
# Dummy                               -1.5
# ExposureTime                        360
# Gamma                               15.360000
# Intensity1                          8.53478e-10
# PSize_1                             7.5e-05
# PSize_2                             7.5e-05
# Pressure                            0.0343494
# SampleDistance                      0.115750
# SampleEnvKind                       large
# SampleEnvPN                         ElectroChemical cell
# SampleEnvSN                         1141
# Thickness                           0
# Wavelength                          1.541891e-10
# Wavelength                          1.54189e-10
# aux                                 0
# aux_dial                            0.002375
# beamx                               588.434
# beamx_dial                          588.434
# beamz                               657.808
# beamz_dial                          657.808
# det0x                               0
# det0x_dial                          6.36945
# det0xvd                             0
# det0xvd_dial                        0
# det0y                               450.002
# det0y_dial                          481.635
# det0z                               0
# det0z_dial                          1.23302
# det0zvd                             0
# det0zvd_dial                        0
# mag                                 1.818
# mag_dial                            1.818
# om                                  0.2499
# om_dial                             -0.610199
# phi                                 -0.0120535
# phi_dial                            0
# ry                                  0.599993
# ry_dial                             0.599993
# s1bot                               0.8
# s1bot_dial                          -1.66094
# s1hl                                0.8
# s1hl_dial                           -0.608437
# s1hr                                0.8
# s1hr_dial                           0.970938
# s1top                               0.8
# s1top_dial                          -0.461562
# s2bot                               0.45
# s2bot_dial                          1.36109
# s2hl                                0.45
# s2hl_dial                           -0.83375
# s2hr                                0.45
# s2hr_dial                           -0.118594
# s2top                               0.45
# s2top_dial                          1.44734
# w2theta                             32
# w2theta_dial                        32
# waxsch                              19.2605
# waxsch_dial                         -32.7355
# waxsh                               137.085
# waxsh_dial                          -43.5338
# waxsth                              26.0607
# waxsth_dial                         -19.4086
# waxsz                               67.0407
# waxsz_dial                          -23.7954
# wind                                65.9854
# wind_dial                           66.0041
# wpsi                                124
# wpsi_dial                           124
# wstod                               115
# wstod_dial                          115
# x                                   0
# x_dial                              1.00969
# z                                   0
# z_dial                              13.3172
# CountCutoff                         6807993
# DetectorModel                       Dectris EIGER2 Si 500K, S/N E-01-0554
# ThresholdSetting                    4023.88989258
# Saturation                          0
# FlatField                           Corrected
# BackgroundReductionExtra            0.02
# BackgroundCorrectionConstant        0.0026712
# Detector                            0
# Monitor                             0
# Pil_Roi0                            0
# SumForIntensity1                    3.07252e+08
# TransmittedFlux                     853478
# det                                 0
# mon                                 0
# pilai0                              3.07252e+08
# pilai1                              785710
# pilct0                              5.31745e+08
# pilct1                              785710
# pilroi0                             0
# pilroi1                             0
# sec                                 1
# title                               20251028_20perc_iodine_1.23mg_1_00062.edf
# usaxs0                              0
# Operation                           Azimuthal average I(q)
# Error_model                         ErrorModel.poisson
# Geometrical_correction              True
# Transmission_correction             True
# Thickness_correction                False
# Binning mode                        Uniform
# Binning factor                      1.0
# Psi                                 0.0
# Omega                               0.2499
# MaskInvalidPixels                   True
# DetectorEdge                        3
# MaskFiles                           ['WAXS_corrected.edf']
################################################################################
    q(A⁻¹)                Intensity(a.u.)            Sigma_I(a.u.)            
       0.693100              0.0124414833             0.00744310223           
       0.695741             0.00843776761             0.00500195065           
       0.698381           -2.37691348e-05                         0           
       0.701021              0.0353989796              0.0177413243           
       0.703662             0.00562594169             0.00408251454           
       0.706302             0.00852073448             0.00388978679           
       0.708942              0.0085883493             0.00504037892           
       0.711583             0.00439847629             0.00312352695           
       0.714223             0.00879485219             0.00509927369           
       0.716864             0.00499975209             0.00251558542           
       0.719504             0.00289577441             0.00206592738           
       0.722144             0.00378639146             0.00218772265           
       0.724785               0.007114487             0.00239211859           
       0.727425              0.0117767889             0.00416355594           
       0.730065             0.00731585829              0.0023212655           
       0.732706             0.00512759288             0.00163191557           
       0.735346             0.00783820552             0.00263010662           
       0.737987             0.00525280474             0.00152145016           
       0.740627              0.0106280452             0.00322905381           
       0.743267             0.00921986112              0.0020144335           
       0.745908             0.00623817346             0.00179774543           
       0.748548             0.00748660003             0.00181533265           
       0.751189             0.00802439819             0.00253242544           
       0.753829             0.00609426446             0.00202869232           
       0.756469             0.00828382565             0.00190723567           
       0.759110             0.00627290281             0.00174901566           
       0.761750             0.00717145549             0.00165357439           
       0.764390             0.00584712865             0.00156277651           
       0.767031             0.00746777204             0.00152939701           
       0.769671             0.00590107844             0.00169591876           
       0.772312              0.0109658807             0.00175999916           
       0.774952             0.00672214039             0.00186081932           
       0.777592             0.00955019441             0.00161552512           
       0.780233             0.00675851702             0.00163967239           
       0.782873             0.00579790559             0.00145247805           
       0.785513             0.00581654573             0.00155528634           
       0.788154             0.00605408236             0.00132735111           
       0.790794             0.00369933852             0.00124045989           
       0.793435             0.00674842198             0.00150512311           
       0.796075             0.00746346379             0.00152478035           
       0.798715             0.00647989192             0.00167893428           
       0.801356             0.00734074373             0.00153799797           
       0.803996             0.00839008545             0.00167633818           
       0.806637             0.00677862919             0.00119911712           
       0.809277             0.00920423099             0.00151239682           
       0.811917             0.00737946006             0.00126596571           
       0.814558             0.00888924964             0.00144408267           
       0.817198             0.00805315385              0.0013058327           
       0.819838             0.00494807135             0.00103594031           
       0.822479             0.00328938912            0.000991844255           
       0.825119             0.00584468028             0.00112527834           
       0.827760             0.00823601436             0.00135310333           
       0.830400             0.00706854294             0.00117981135           
       0.833040             0.00776512972             0.00129555435           
       0.835681             0.00668745625              0.0013668059           
       0.838321             0.00550462381             0.00104081588           
       0.840961             0.00628103469             0.00121135566           
       0.843602             0.00705806257             0.00117757211           
       0.846242             0.00723598628             0.00119214435           
       0.848883             0.00534835241             0.00104885816           
       0.851523             0.00763579213             0.00123767116           
       0.854163             0.00906405615             0.00143403149           
       0.856804             0.00770730234             0.00118897994           
       0.859444             0.00703521798             0.00111301894           
       0.862085             0.00709404248             0.00116488406           
       0.864725             0.00760494412              0.0012343203           
       0.867365             0.00707422995             0.00110391426           
       0.870006             0.00718881678             0.00106043084           
       0.872646             0.00810276366             0.00118058152           
       0.875286             0.00680022875             0.00104050498           
       0.877927              0.0103514181             0.00123876424           
       0.880567             0.00684725086             0.00104379479           
       0.883208             0.00607126998            0.000973612047           
       0.885848              0.0082274685             0.00117679961           
       0.888488             0.00604509252            0.000946117637           
       0.891129             0.00715849453              0.0010571502           
       0.893769             0.00785855852             0.00106003702           
       0.896410             0.00754995934            0.000968726226           
       0.899050             0.00826854617             0.00111488138           
       0.901690             0.00784697269              0.0011830658           
       0.904331             0.00729874485             0.00101155065           
       0.906971             0.00871653595             0.00117600696           
       0.909611             0.00827242453             0.00104291389           
       0.912252              0.0079801558             0.00105802004           
       0.914892             0.00616472369               0.001016203           
       0.917533             0.00726198653               0.001043376           
       0.920173             0.00696610793            0.000948121903           
       0.922813             0.00635453213            0.000950269289           
       0.925454             0.00587947729            0.000823085007           
       0.928094             0.00744671039             0.00098891679           
       0.930734              0.0072960467             0.00105385284           
       0.933375             0.00772942445             0.00107403697           
       0.936015             0.00725464631            0.000945021976           
       0.938656             0.00709679744              0.0010026955           
       0.941296             0.00767913951            0.000945266598           
       0.943936             0.00894429839             0.00100043165           
       0.946577             0.00890400525             0.00099157658           
       0.949217             0.00829463794            0.000880089505           
       0.951858             0.00724808937            0.000861199529           
       0.954498             0.00837441683             0.00107147903           
       0.957138             0.00614434674            0.000869482261           
       0.959779             0.00753511768            0.000949192425           
       0.962419             0.00693721276            0.000904697348           
       0.965059             0.00883742186              0.0010739432           
       0.967700             0.00942306159             0.00113579158           
       0.970340             0.00717258736            0.000876870088           
       0.972981             0.00746334999            0.000814945099           
       0.975621             0.00734512382            0.000860067027           
       0.978261             0.00791411109            0.000848277208           
       0.980902             0.00816370916             0.00103080161           
       0.983542             0.00724936315            0.000860204637           
       0.986182             0.00817641733            0.000896919956           
       0.988823              0.0075181482            0.000835117546           
       0.991463              0.0092879487            0.000990316515           
       0.994104             0.00600836725            0.000777009774           
       0.996744             0.00888349095            0.000963688876           
       0.999384             0.00795272248            0.000815460486           
       1.002025             0.00751679584            0.000884864942           
       1.004665             0.00774867967             0.00082103537           
       1.007306             0.00973275244            0.000915455385           
       1.009946             0.00797540921             0.00084515513           
       1.012586             0.00748304212            0.000797318307           
       1.015227             0.00616808829            0.000777676168           
       1.017867              0.0086951714            0.000887395478           
       1.020507             0.00605205181            0.000717116997           
       1.023148              0.0080197337             0.00089074034           
       1.025788              0.0079795819            0.000814691535           
       1.028429             0.00847814909            0.000879783622           
       1.031069             0.00841257749            0.000824702387           
       1.033709             0.00718462364            0.000810156638           
       1.036350              0.0086913233            0.000800299201           
       1.038990             0.00672411845            0.000716861782           
       1.041630             0.00847856568            0.000839590393           
       1.044271             0.00757776911            0.000746481377           
       1.046911              0.0087031012            0.000841486579           
       1.049552             0.00774505187            0.000834009215           
       1.052192             0.00846211385            0.000796029545           
       1.054832             0.00786005491            0.000774168322           
       1.057473              0.0076405018            0.000752432352           
       1.060113             0.00767564888            0.000735512046           
       1.062754             0.00742040009            0.000738353169           
       1.065394             0.00912078206            0.000865461409           
       1.068034             0.00910572373            0.000786800903           
       1.070675             0.00814177849            0.000776073258           
       1.073315             0.00669493123            0.000713833598           
       1.075955             0.00894573844            0.000778987192           
       1.078596             0.00827782718            0.000796402474           
       1.081236             0.00828734584            0.000763045678           
       1.083877             0.00827561741            0.000755665392           
       1.086517             0.00745457449            0.000769049135           
       1.089157             0.00887878634            0.000870872266           
       1.091798             0.00924213609            0.000778974082           
       1.094438             0.00920692954            0.000774979578           
       1.097078             0.00913301626            0.000740297167           
       1.099719             0.00919524081            0.000803467735           
       1.102359             0.00843805431            0.000720810948           
       1.105000              0.0090197004            0.000833323773           
       1.107640             0.00900206062            0.000796013511           
       1.110280             0.00854597084            0.000707663422           
       1.112921             0.00804297663            0.000737473053           
       1.115561             0.00857018163            0.000723513485           
       1.118202              0.0096865131            0.000769917837           
       1.120842             0.00925238901            0.000790847926           
       1.123482             0.00884164757            0.000769718012           
       1.126123             0.00862510091            0.000729191535           
       1.128763              0.0081789571            0.000714950527           
       1.131403              0.0086436915            0.000708218027           
       1.134044             0.00817358884            0.000708663631           
       1.136684             0.00852703955            0.000771721733           
       1.139325             0.00852363138            0.000710767106           
       1.141965             0.00875142397            0.000724963222           
       1.144605             0.00861503953            0.000685847081           
       1.147246             0.00787457334            0.000671063032           
       1.149886             0.00896574145            0.000713507331           
       1.152527             0.00858959973            0.000708535849           
       1.155167             0.00898054499            0.000689091319           
       1.157807             0.00972583514            0.000768875182           
       1.160448             0.00951629415            0.000742694065           
       1.163088             0.00922131422            0.000697354833           
       1.165728             0.00978794835            0.000737657558           
       1.168369             0.00961576914            0.000737895434           
       1.171009              0.0087814821            0.000684337156           
       1.173650             0.00999002024            0.000749061833           
       1.176290             0.00810164097            0.000659197043           
       1.178930             0.00808376807             0.00064536008           
       1.181571             0.00829772427            0.000666810779           
       1.184211              0.0087812076            0.000688394411           
       1.186851             0.00881351638            0.000674270306           
       1.189492              0.0100764301            0.000716112373           
       1.192132              0.0098447659             0.00069989065           
       1.194773             0.00898096797            0.000671401768           
       1.197413             0.00972682346            0.000669477693           
       1.200053             0.00994243054            0.000694054826           
       1.202694             0.00966668044            0.000650789535           
       1.205334              0.0107397827            0.000739251606           
       1.207975             0.00907146658            0.000648518017           
       1.210615              0.0104223949            0.000766848306           
       1.213255              0.0102292088            0.000680301062           
       1.215896              0.0100050744             0.00068499725           
       1.218536             0.00969075211            0.000648225373           
       1.221176             0.00928117767            0.000689700175           
       1.223817             0.00981461024            0.000665778843           
       1.226457             0.00999925328            0.000685550887           
       1.229098              0.0110855885            0.000721795435           
       1.231738              0.0100018072            0.000688979327           
       1.234378              0.0102497888              0.0006553762           
       1.237019              0.0104467835            0.000681818074           
       1.239659             0.00983168045            0.000655679149           
       1.242299              0.0097291203            0.000643963366           
       1.244940             0.00965859186            0.000624020547           
       1.247580                0.01000773            0.000654624462           
       1.250221             0.00886994908              0.0006124871           
       1.252861              0.0101893023            0.000624953563           
       1.255501             0.00958243163            0.000658061937           
       1.258142              0.0108464317            0.000657888148           
       1.260782               0.010156347            0.000650390377           
       1.263423             0.00929940423            0.000598005495           
       1.266063             0.00964459693            0.000624210936           
       1.268703              0.0107980963            0.000655004216           
       1.271344             0.00972124437            0.000642548727           
       1.273984               0.010610325            0.000648332672           
       1.276624              0.0112001736            0.000653596084           
       1.279265             0.00984932897            0.000623093609           
       1.281905               0.008293983            0.000574321065           
       1.284546              0.0102164966            0.000616122087           
       1.287186             0.00954121473            0.000584162396           
       1.289826              0.0108091658            0.000655291784           
       1.292467               0.011321814            0.000655879459           
       1.295107              0.0110291653            0.000640916818           
       1.297747              0.0108067333            0.000607088219           
       1.300388               0.010887702            0.000664277428           
       1.303028               0.011040245            0.000638586117           
       1.305669              0.0109100354            0.000649924568           
       1.308309             0.00968208806            0.000606228585           
       1.310949              0.0114719694            0.000659225829           
       1.313590              0.0101951302            0.000602031687           
       1.316230              0.0118068589            0.000691370877           
       1.318871              0.0108141698            0.000648023097           
       1.321511              0.0113521253             0.00065163916           
       1.324151              0.0103787453            0.000604604077           
       1.326792              0.0114431685            0.000638775876           
       1.329432              0.0106739185            0.000612578437           
       1.332072              0.0100556549            0.000585711721           
       1.334713              0.0100525829            0.000604420276           
       1.337353              0.0106368266            0.000596257526           
       1.339994              0.0109419749            0.000634624608           
       1.342634              0.0110942842            0.000612786037           
       1.345274              0.0112933587            0.000639840452           
       1.347915              0.0108112064            0.000608745154           
       1.350555              0.0110363125            0.000625821905           
       1.353195              0.0118991157            0.000653016151           
       1.355836              0.0107294504             0.00061042169           
       1.358476              0.0104425898            0.000584833792           
       1.361117              0.0102794889            0.000581045074           
       1.363757              0.0108290613            0.000614585098           
       1.366397               0.011413105            0.000611847644           
       1.369038              0.0109805428             0.00060611673           
       1.371678              0.0109605268            0.000600225358           
       1.374319               0.011103651            0.000598929475           
       1.376959              0.0103403318            0.000572163847           
       1.379599              0.0116962813            0.000652152499           
       1.382240               0.011689148            0.000612738521           
       1.384880              0.0103295653              0.0006101181           
       1.387520              0.0104151161            0.000581842571           
       1.390161             0.00977675962            0.000535407778           
       1.392801              0.0114069976            0.000602559863           
       1.395442              0.0108988509            0.000597030074           
       1.398082              0.0112442368             0.00056788241           
       1.400722              0.0103076768            0.000569532267           
       1.403363              0.0126548214            0.000664260128           
       1.406003              0.0107373534            0.000572627658           
       1.408644              0.0118566648            0.000630356097           
       1.411284              0.0109152128            0.000572703819           
       1.413924              0.0108745624            0.000569517185           
       1.416565              0.0113282371            0.000578992297           
       1.419205               0.011595007            0.000611051586           
       1.421845              0.0107424102            0.000587811595           
       1.424486              0.0113756576            0.000581437173           
       1.427126              0.0111786231            0.000598747069           
       1.429767              0.0103521091            0.000542122187           
       1.432407              0.0114114621            0.000595665346           
       1.435047              0.0108322307            0.000545045793           
       1.437688              0.0100995336            0.000534158444           
       1.440328                0.01043579            0.000554169835           
       1.442968              0.0112717559            0.000588842583           
       1.445609              0.0107163475            0.000555938273           
       1.448249              0.0104335955            0.000562444043           
       1.450890              0.0112838124            0.000581093929           
       1.453530                0.01099573            0.000600130404           
       1.456170              0.0119317929            0.000606725831           
       1.458811              0.0103857789            0.000541274498           
       1.461451               0.010303595            0.000540542927           
       1.464092              0.0102125542            0.000541667883           
       1.466732              0.0112653505            0.000564014309           
       1.469372              0.0106600643            0.000535812739           
       1.472013              0.0104306443            0.000571632466           
       1.474653              0.0120911726            0.000605959744           
       1.477293              0.0111371583            0.000593820398           
       1.479934              0.0119354769            0.000586585426           
       1.482574               0.011409481            0.000554785575           
       1.485215              0.0103987067            0.000539506038           
       1.487855              0.0110612394            0.000563767636           
       1.490495              0.0112537522            0.000566558159           
       1.493136              0.0103724582            0.000536466584           
       1.495776              0.0112096883            0.000555157989           
       1.498416              0.0102567497            0.000548410924           
       1.501057              0.0111762656            0.000559849539           
       1.503697              0.0111444674            0.000546563032           
       1.506338             0.00985775967            0.000523436678           
       1.508978              0.0112775934            0.000554359039           
       1.511618             0.00997435777            0.000555230105           
       1.514259              0.0106303327            0.000553394922           
       1.516899              0.0106272015            0.000538743844           
       1.519540              0.0120183163            0.000582159694           
       1.522180              0.0105435359            0.000550062267           
       1.524820              0.0101749893            0.000537331423           
       1.527461               0.010599442            0.000551136718           
       1.530101              0.0104801193            0.000542544895           
       1.532741             0.00991071752            0.000524538538           
       1.535382              0.0101130069            0.000538394893           
       1.538022              0.0107696263            0.000523403239           
       1.540663               0.010415044            0.000553607534           
       1.543303              0.0107010426            0.000521043549           
       1.545943              0.0111196579            0.000562169471           
       1.548584              0.0101525191            0.000546808382           
       1.551224              0.0100726607            0.000503583701           
       1.553864              0.0108858446            0.000553193331           
       1.556505              0.0107002059            0.000529822873           
       1.559145              0.0100310599             0.00051927306           
       1.561786              0.0109978795            0.000544140693           
       1.564426               0.010610874            0.000517856474           
       1.567066             0.00999266712            0.000526570168           
       1.569707               0.008603216            0.000479814913           
       1.572347             0.00962095954            0.000524197414           
       1.574988             0.00972725057            0.000501696631           
       1.577628             0.00964732878            0.000520992295           
       1.580268             0.00965097819            0.000504881514           
       1.582909              0.0101703061            0.000549364239           
       1.585549              0.0104782553            0.000541430599           
       1.588189             0.00988974915            0.000514526013           
       1.590830             0.00927853356            0.000497747332           
       1.593470             0.00968645429            0.000528708434           
       1.596111             0.00899282005            0.000497358795           
       1.598751             0.00937165652            0.000491970188           
       1.601391             0.00941653571            0.000504026937           
       1.604032             0.00929551796            0.000511246522           
       1.606672             0.00924140743            0.000495276669           
       1.609312             0.00865698056            0.000500396056           
       1.611953             0.00955358351            0.000514401593           
       1.614593             0.00871697527            0.000481987755           
       1.617234             0.00899821621            0.000507515098           
       1.619874              0.0098595458            0.000529151751           
       1.622514             0.00832965465            0.000479733542           
       1.625155             0.00902248618             0.00050223589           
       1.627795             0.00942334058            0.000500695341           
       1.630436             0.00912269766            0.000490071069           
       1.633076             0.00981017854            0.000514866691           
       1.635716             0.00975192341            0.000505348649           
       1.638357              0.0101109172            0.000515922505           
       1.640997             0.00899045436            0.000501233807           
       1.643637             0.00859052404            0.000476784919           
       1.646278             0.00850693643            0.000489367209           
       1.648918              0.0091199188            0.000508073884           
       1.651559             0.00852698741            0.000495093188           
       1.654199             0.00914202751            0.000498585033           
       1.656839             0.00943761607              0.0005067581           
       1.659480              0.0085847883            0.000501469078           
       1.662120              0.0091751948            0.000488272153           
       1.664761             0.00973720874            0.000522491456           
       1.667401              0.0097095528            0.000498680262           
       1.670041              0.0088499095            0.000483352548           
       1.672682             0.00829510623            0.000466033215           
       1.675322             0.00846028588            0.000467623871           
       1.677962             0.00942517797            0.000488125491           
       1.680603             0.00842205164            0.000462839098           
       1.683243             0.00871929836            0.000491333851           
       1.685884             0.00918223855            0.000507931945           
       1.688524             0.00897635327            0.000492497509           
       1.691164             0.00983506214            0.000515633573           
       1.693805             0.00873944269            0.000491404788           
       1.696445             0.00947131451              0.0005145346           
       1.699085             0.00829045331            0.000465261167           
       1.701726             0.00905643296            0.000468445726           
       1.704366             0.00947489726            0.000504767269           
       1.707007             0.00809831924            0.000456258486           
       1.709647             0.00924008174            0.000492865538           
       1.712287             0.00885177953            0.000486597293           
       1.714928             0.00850604323            0.000480845645           
       1.717568              0.0092905044            0.000473384761           
       1.720209             0.00862590713            0.000477773754           
       1.722849             0.00862616564            0.000475324593           
       1.725489              0.0088153054            0.000480910866           
       1.728130             0.00903254357            0.000517332428           
       1.730770             0.00896314987            0.000489435791           
       1.733410             0.00828343184             0.00046311584           
       1.736051             0.00810894802            0.000461401665           
       1.738691             0.00859429694            0.000465380208           
       1.741332              0.0086527229            0.000480613607           
       1.743972             0.00846224512             0.00049082192           
       1.746612             0.00894718928            0.000484630797           
       1.749253             0.00886534569            0.000491935949           
       1.751893             0.00849496525             0.00047801549           
       1.754533             0.00917921232            0.000496430099           
       1.757174             0.00882349917            0.000482158374           
       1.759814             0.00775695053            0.000445226838           
       1.762455             0.00831706839            0.000469486593           
       1.765095             0.00906097086            0.000468776249           
       1.767735             0.00885048478            0.000477592206           
       1.770376             0.00937035539            0.000492714275           
       1.773016             0.00880338773            0.000474376559           
       1.775657             0.00891365886            0.000470470084           
       1.778297             0.00870551277               0.000460941           
       1.780937             0.00872192481            0.000486981449           
       1.783578             0.00876203377            0.000475895325           
       1.786218             0.00801500462            0.000475005733           
       1.788858             0.00889211453            0.000475185053           
       1.791499               0.009365011            0.000482180083           
       1.794139             0.00903521201            0.000469771226           
       1.796780             0.00882278066            0.000461977925           
       1.799420             0.00853092451            0.000451756939           
       1.802060             0.00945213196            0.000479364099           
       1.804701             0.00966968977            0.000465283574           
       1.807341             0.00922552726             0.00047755113           
       1.809981             0.00818104035            0.000451205197           
       1.812622             0.00970368832            0.000482556643           
       1.815262             0.00895793419            0.000473491961           
       1.817903             0.00909268366            0.000469971673           
       1.820543             0.00918597488            0.000479737173           
       1.823183             0.00930759349            0.000482637019           
       1.825824             0.00928789987            0.000460603795           
       1.828464             0.00853339074            0.000460281627           
       1.831105             0.00802085842            0.000433907164           
       1.833745             0.00837296474            0.000452797044           
       1.836385             0.00843021118             0.00046730853           
       1.839026             0.00843593556            0.000465990223           
       1.841666             0.00870973269            0.000471812972           
       1.844306             0.00731795797            0.000420676076           
       1.846947             0.00894346845            0.000469133202           
       1.849587             0.00843966762            0.000503234351           
       1.852228             0.00895482654            0.000468730983           
       1.854868             0.00953110915            0.000510828943           
       1.857508             0.00901932026            0.000492051021           
       1.860149             0.00848560371            0.000485941839           
       1.862789             0.00891537176            0.000480777382           
       1.865429             0.00858159377            0.000492374013           
       1.868070             0.00885435019            0.000493471631           
       1.870710             0.00925456609            0.000492869761           
       1.873351             0.00880668636            0.000486739244           
       1.875991              0.0084419763             0.00048433151           
       1.878631             0.00865099864             0.00048090069           
       1.881272             0.00856549153            0.000475311953           
       1.883912              0.0088573833            0.000503019339           
       1.886553             0.00701045292            0.000442509131           
       1.889193             0.00831677589            0.000481153888           
       1.891833             0.00903602154             0.00052085632           
       1.894474             0.00787427441             0.00048198747           
       1.897114             0.00820426055             0.00047608179           
       1.899754             0.00776101516            0.000464980186           
       1.902395             0.00772813803            0.000454922625           
       1.905035             0.00830566339            0.000499518932           
       1.907676             0.00887608035            0.000486696382           
       1.910316             0.00778098239            0.000467784202           
       1.912956             0.00831096244            0.000472816686           
       1.915597             0.00859306457            0.000483461203           
       1.918237             0.00830018369            0.000490715138           
       1.920878             0.00854125942            0.000495752671           
       1.923518             0.00852683578            0.000495544073           
       1.926158             0.00776769117            0.000466833284           
       1.928799             0.00870622742            0.000488511105           
       1.931439             0.00861945143            0.000498819617           
       1.934079             0.00927581299            0.000539442945           
       1.936720             0.00794827083            0.000462663132           
       1.939360             0.00918327694            0.000530560683           
       1.942001             0.00879163794            0.000475803758           
       1.944641             0.00885350745            0.000486880199           
       1.947281             0.00669660864            0.000419536955           
       1.949922             0.00770162595            0.000464726144           
       1.952562              0.0090711345             0.00052016476           
       1.955202              0.0080321677            0.000488873835           
       1.957843             0.00766768237            0.000465266038           
       1.960483             0.00779650594            0.000490504258           
       1.963124             0.00790022298            0.000483626457           
       1.965764             0.00752134572            0.000445002803           
       1.968404             0.00822892387            0.000461066536           
       1.971045             0.00819428685            0.000469091204           
       1.973685             0.00726737916            0.000463377774           
       1.976326             0.00787177211            0.000475633377           
       1.978966             0.00780293466            0.000477704936           
       1.981606             0.00766727859            0.000483410077           
       1.984247             0.00757004858            0.000477177226           
       1.986887             0.00768521328             0.00047503388           
       1.989527             0.00795022033            0.000477951417           
       1.992168             0.00731883707            0.000475815726           
       1.994808             0.00793146322            0.000493206476           
       1.997449             0.00725515934            0.000462023254           
       2.000089             0.00768326217            0.000473574082           
       2.002729             0.00847544889            0.000497687518           
       2.005370             0.00779548383            0.000472170375           
       2.008010             0.00781501405            0.000493394366           
       2.010650             0.00821351309            0.000509591746           
       2.013291             0.00709579514              0.0004544419           
       2.015931             0.00788348756            0.000475615656           
       2.018572              0.0077397864            0.000504058131           
       2.021212              0.0088663645            0.000529803876           
       2.023852              0.0079244456            0.000474051787           
       2.026493             0.00735778806            0.000477196659           
       2.029133             0.00789731286            0.000484433908           
       2.031774             0.00785373302            0.000506997918           
       2.034414             0.00854135082            0.000486502178           
       2.037054             0.00724362782            0.000459378132           
       2.039695             0.00693767496            0.000446176552           
       2.042335              0.0080550036            0.000499620142           
       2.044975             0.00713035159            0.000464369345           
       2.047616             0.00797249319            0.000489807004           
       2.050256             0.00753997688            0.000480843298           
       2.052897             0.00731059428            0.000482201397           
       2.055537             0.00691377649            0.000453204868           
       2.058177             0.00772570072            0.000469146125           
       2.060818              0.0072495488            0.000476080973           
       2.063458             0.00759785263            0.000507901958           
       2.066098             0.00752334782            0.000476766756           
       2.068739             0.00809814878            0.000502333348           
       2.071379             0.00671278601            0.000469279837           
       2.074020             0.00769662162            0.000491573046           
       2.076660             0.00755831425            0.000491074255           
       2.079300             0.00745458649            0.000499642402           
       2.081941             0.00597375357            0.000409527949           
       2.084581             0.00734371827            0.000479269898           
       2.087222             0.00744263486            0.000465312478           
       2.089862             0.00879686063            0.000550977578           
       2.092502             0.00814403693            0.000513894295           
       2.095143             0.00773971049            0.000517331892           
       2.097783             0.00800889493            0.000509499849           
       2.100423             0.00739721002             0.00047182934           
       2.103064             0.00790686188            0.000506171163           
       2.105704             0.00720903197             0.00048092492           
       2.108345             0.00728739556            0.000464544696           
       2.110985             0.00780339607            0.000513433069           
       2.113625             0.00835357964            0.000535860481           
       2.116266             0.00792340306            0.000529285028           
       2.118906             0.00715799979            0.000468834304           
       2.121546             0.00776318129            0.000478929075           
       2.124187             0.00682859374            0.000471496546           
       2.126827             0.00689419224            0.000479043303           
       2.129468             0.00748849469            0.000500539391           
       2.132108             0.00763834466            0.000491835074           
       2.134748             0.00708945395            0.000471995673           
       2.137389              0.0078251148            0.000517326479           
       2.140029             0.00680469172            0.000431890109           
       2.142670             0.00751137336            0.000484945877           
       2.145310             0.00685395543            0.000450877903           
       2.147950             0.00741416504            0.000482669451           
       2.150591             0.00761520547            0.000484226067           
       2.153231             0.00824066329            0.000518500521           
       2.155871             0.00736705975            0.000473611493           
       2.158512             0.00766192518            0.000503972721           
       2.161152             0.00715810623            0.000471856111           
       2.163793              0.0076109807            0.000484363335           
       2.166433             0.00659131717            0.000462874171           
       2.169073             0.00668828502             0.00045588584           
       2.171714               0.007464078            0.000478000166           
       2.174354             0.00812384992            0.000521073286           
       2.176995             0.00679712504            0.000474623492           
       2.179635             0.00760567942            0.000530534408           
       2.182275             0.00644459641              0.0004610918           
       2.184916             0.00742423182            0.000478006749           
       2.187556              0.0070576417            0.000461384755           
       2.190196             0.00796607468            0.000512231539           
       2.192837             0.00753013767            0.000495308999           
       2.195477             0.00779185153            0.000480354309           
       2.198118             0.00738507252            0.000479630418           
       2.200758             0.00790882882             0.00050922192           
       2.203398             0.00787466298            0.000511371448           
       2.206039              0.0070871811            0.000459133546           
       2.208679             0.00738331497            0.000479533971           
       2.211319              0.0079635245            0.000500891069           
       2.213960              0.0074128534            0.000489737678           
       2.216600             0.00752184158            0.000510333451           
       2.219241              0.0073076697            0.000480746931           
       2.221881             0.00845524851             0.00051818194           
       2.224521               0.007652877            0.000499023372           
       2.227162             0.00787680703            0.000496134927           
       2.229802             0.00755039505             0.00050095213           
       2.232443             0.00822054488            0.000514466391           
       2.235083             0.00747465396            0.000505041946           
       2.237723             0.00748028967            0.000484843749           
       2.240364             0.00723196769            0.000488472742           
       2.243004             0.00727296284            0.000485944991           
       2.245644             0.00720003885            0.000488342222           
       2.248285             0.00757241561            0.000490778518           
       2.250925             0.00682915003             0.00046890173           
       2.253566             0.00827322155             0.00055175292           
       2.256206             0.00700331197            0.000497493384           
       2.258846             0.00748431279            0.000489235946           
       2.261487             0.00695121536            0.000494872811           
       2.264127             0.00778820665            0.000505896924           
       2.266767             0.00697221738            0.000491414657           
       2.269408             0.00815827731            0.000533748531           
       2.272048             0.00728128067            0.000501234806           
       2.274689               0.006979389            0.000497199944           
       2.277329             0.00692587274            0.000466347522           
       2.279969             0.00720279224            0.000506226837           
       2.282610              0.0070021662            0.000485244767           
       2.285250             0.00688908134            0.000460679524           
       2.287891             0.00769066087            0.000521862433           
       2.290531             0.00714217233              0.0005096694           
       2.293171             0.00663830838            0.000478631618           
       2.295812             0.00647543802            0.000470823372           
       2.298452             0.00684818951             0.00050632883           
       2.301092             0.00756852719            0.000494565265           
       2.303733             0.00695917453            0.000493373683           
       2.306373              0.0068294522            0.000496450832           
       2.309014             0.00728111007            0.000502604386           
       2.311654             0.00683619905            0.000508214475           
       2.314294              0.0070305739            0.000474829705           
       2.316935             0.00695650169            0.000474273104           
       2.319575             0.00742252744            0.000513303603           
       2.322215             0.00739858124            0.000534085398           
       2.324856             0.00691222894            0.000474622459           
       2.327496             0.00798718923            0.000542497515           
       2.330137             0.00694533602             0.00048408919           
       2.332777             0.00691268985            0.000497973076           
       2.335417             0.00745396379            0.000501665966           
       2.338058             0.00651558312             0.00048303764           
       2.340698             0.00644978352            0.000476815708           
       2.343339             0.00654948099            0.000491060323           
       2.345979             0.00751976892            0.000497807344           
       2.348619              0.0074422546            0.000513337592           
       2.351260              0.0066497379             0.00048240896           
       2.353900             0.00696039553            0.000491985296           
       2.356540             0.00602404952            0.000457048724           
       2.359181             0.00771853113            0.000510098317           
       2.361821             0.00844691701            0.000515466943           
       2.364462             0.00747120158            0.000507021837           
       2.367102             0.00682845701            0.000498129387           
       2.369742             0.00823324051            0.000575727372           
       2.372383             0.00709601316            0.000483978373           
       2.375023             0.00734170443            0.000517498917           
       2.377663             0.00713047089            0.000487634803           
       2.380304             0.00768766224             0.00051477135           
       2.382944             0.00732718393            0.000478670122           
       2.385585             0.00764367702            0.000521418955           
       2.388225             0.00624286723            0.000469010063           
       2.390865             0.00621383158            0.000463111543           
       2.393506             0.00663994853             0.00046969558           
       2.396146              0.0069550122            0.000519765232           
       2.398787              0.0071905247             0.00048704656           
       2.401427              0.0069096072            0.000460837619           
       2.404067              0.0079080895            0.000504008396           
       2.406708             0.00671848625            0.000458984822           
       2.409348             0.00676330232            0.000488464252           
       2.411988             0.00768486941             0.00051015208           
       2.414629             0.00745671726            0.000518172673           
       2.417269             0.00656258482            0.000491789517           
       2.419910             0.00760572111            0.000530662737           
       2.422550               0.007701793            0.000510901872           
       2.425190             0.00705731593            0.000515519372           
       2.427831             0.00632620315            0.000485342774           
       2.430471             0.00717429635            0.000492401885           
       2.433112             0.00620856299            0.000446044568           
       2.435752             0.00588394838            0.000459548066           
       2.438392             0.00704189609            0.000485244465           
       2.441033             0.00740118153            0.000527217498           
       2.443673             0.00666573962            0.000500722617           
       2.446313              0.0074900071            0.000531247497           
       2.448954             0.00746996122            0.000505144546           
       2.451594             0.00714165778            0.000531078683           
       2.454235             0.00747235049            0.000509693392           
       2.456875             0.00763443772            0.000539075241           
       2.459515             0.00776682793            0.000557804958           
       2.462156               0.007428929            0.000515062219           
       2.464796             0.00819236132            0.000533902021           
       2.467436              0.0069566181            0.000508775234           
       2.470077             0.00727659974            0.000493192318           
       2.472717             0.00845745107             0.00053400954           
       2.475358             0.00829116031            0.000534246758           
       2.477998             0.00784953356            0.000511060319           
       2.480638             0.00740197795             0.00050509536           
       2.483279             0.00745154647            0.000529669821           
       2.485919             0.00741000702            0.000509033184           
       2.488560             0.00746544242            0.000509506086           
       2.491200             0.00801379799            0.000543583887           
       2.493840             0.00796512324            0.000573433484           
       2.496481             0.00707129217            0.000531463367           
       2.499121             0.00678675342            0.000506425896           
       2.501761             0.00659190804            0.000505716169           
       2.504402             0.00719169839            0.000520505325           
       2.507042             0.00731373539            0.000521014571           
       2.509683              0.0071904425            0.000508708825           
       2.512323             0.00693786819            0.000524803266           
       2.514963             0.00687627048            0.000516013526           
       2.517604             0.00713730347            0.000545511823           
       2.520244             0.00773309651            0.000532336107           
       2.522884             0.00617149821            0.000482360064           
       2.525525             0.00802529403            0.000556298745           
       2.528165             0.00858238786            0.000566315837           
       2.530806             0.00684330209            0.000514508004           
       2.533446              0.0204187962            0.000869769675           
       2.536086             0.00743180302            0.000520033939           
       2.538727             0.00733574905            0.000495659003           
       2.541367             0.00750850914            0.000506401166           
       2.544008             0.00687554035            0.000500459502           
       2.546648             0.00712558438            0.000518217312           
       2.549288             0.00662486368             0.00050985926           
       2.551929             0.00815723071            0.000556742942           
       2.554569             0.00747275126             0.00051337841           
       2.557209             0.00714954632            0.000506765265           
       2.559850             0.00653394318            0.000486012737           
       2.562490             0.00663239578            0.000506090559           
       2.565131             0.00731129506            0.000550939643           
       2.567771             0.00716862526            0.000525980297           
       2.570411             0.00702950655            0.000515216002           
       2.573052             0.00688834115            0.000516439471           
       2.575692             0.00719239446            0.000524518715           
       2.578332             0.00651669166            0.000501337329           
       2.580973             0.00757254573             0.00053528547           
       2.583613             0.00648600924            0.000483601034           
       2.586254             0.00737414384            0.000514932445           
       2.588894             0.00724936624            0.000530189367           
       2.591534             0.00732221803            0.000551596374           
       2.594175             0.00620063791            0.000498017466           
       2.596815             0.00635131601             0.00050700406           
       2.599456             0.00668925379            0.000493414646           
       2.602096              0.0065350845            0.000491407081           
       2.604736             0.00720724406            0.000528297183           
       2.607377             0.00660727179            0.000492499935           
       2.610017             0.00690493578            0.000494660954           
       2.612657             0.00753751518            0.000549719287           
       2.615298             0.00672231929            0.000506846232           
       2.617938             0.00633351953            0.000526282888           
       2.620579             0.00655804861            0.000514103617           
       2.623219             0.00651023116            0.000511495752           
       2.625859             0.00747970447             0.00053306187           
       2.628500             0.00636796841            0.000488629688           
       2.631140             0.00742765037            0.000535853207           
       2.633780             0.00726336906            0.000529433549           
       2.636421             0.00721223888            0.000540540672           
       2.639061             0.00620006799            0.000471800996           
       2.641702             0.00724707112            0.000521892986           
       2.644342              0.0071583624            0.000520899121           
       2.646982             0.00765323032            0.000530551507           
       2.649623             0.00653994271            0.000513968823           
       2.652263             0.00688190384            0.000521944062           
       2.654904             0.00702956906            0.000528044723           
       2.657544             0.00660663135            0.000482169207           
       2.660184             0.00677677111            0.000516804193           
       2.662825             0.00713284397            0.000542508371           
       2.665465             0.00694288987            0.000517661256           
       2.668105             0.00613037419             0.00051271429           
       2.670746              0.0073147039            0.000517370942           
       2.673386              0.0103623575            0.000634621417           
       2.676027              0.0111070496            0.000646484533           
       2.678667             0.00880335838            0.000561592813           
       2.681307              0.0082649127            0.000534655679           
       2.683948             0.00875853356            0.000565500492           
       2.686588             0.00966189168            0.000584098133           
       2.689229             0.00758939231            0.000505851821           
       2.691869             0.00879862691            0.000575653828           
       2.694509             0.00885738403            0.000577890103           
       2.697150             0.00791844662            0.000537537464           
       2.699790             0.00737025766             0.00054367455           
       2.702430             0.00725001878            0.000515430974           
       2.705071              0.0069511028            0.000521505594           
       2.707711             0.00719335672            0.000514904857           
       2.710352             0.00699215495            0.000536398629           
       2.712992             0.00627558036            0.000517566149           
       2.715632             0.00635894879            0.000483377798           
       2.718273             0.00693184458            0.000523035727           
       2.720913             0.00610745006            0.000489552687           
       2.723553              0.0071245992            0.000532296815           
       2.726194             0.00691381086            0.000548132625           
       2.728834             0.00816860453            0.000596079999           
       2.731475             0.00806545645             0.00054664519           
       2.734115             0.00824854764            0.000569971826           
       2.736755             0.00729470369            0.000540416293           
       2.739396             0.00719263252            0.000533512979           
       2.742036             0.00658606001            0.000534292989           
       2.744677             0.00717880848            0.000541237597           
       2.747317             0.00743205789            0.000546774664           
       2.749957             0.00752967757            0.000554216166           
       2.752598             0.00770144117            0.000566584662           
       2.755238             0.00654539889            0.000531761564           
       2.757878             0.00840121857            0.000597181282           
       2.760519             0.00739474896            0.000554328554           
       2.763159             0.00689842785            0.000530052339           
       2.765800             0.00684182423            0.000503054966           
       2.768440             0.00742595702            0.000527950701           
       2.771080             0.00795853423            0.000551116932           
       2.773721             0.00629761226            0.000502893776           
       2.776361             0.00650280446            0.000518070924           
       2.779001             0.00671580223            0.000545230844           
       2.781642              0.0065850627            0.000535918854           
       2.784282             0.00709775047            0.000565539409           
       2.786923             0.00681844281            0.000559180794           
       2.789563             0.00687075009            0.000540618588           
       2.792203             0.00690517927            0.000517737462           
       2.794844             0.00736958024            0.000586202368           
       2.797484             0.00667042614            0.000526335568           
       2.800125             0.00715343308              0.0005731293           
       2.802765             0.00700120655            0.000557244064           
       2.805405             0.00762364409            0.000583455513           
       2.808046             0.00716248177            0.000575475137           
       2.810686             0.00720784301            0.000530466561           
       2.813326             0.00690226668            0.000539201874           
       2.815967             0.00605103174            0.000519213763           
       2.818607             0.00761835257            0.000555949276           
       2.821248             0.00694972388            0.000519968625           
       2.823888             0.00736359029            0.000555579394           
       2.826528              0.0068234262              0.0005179407           
       2.829169             0.00806617319            0.000589852404           
       2.831809             0.00660246547            0.000540916448           
       2.834449              0.0065422853            0.000541848449           
       2.837090             0.00707662015             0.00054429188           
       2.839730             0.00634358654            0.000512815021           
       2.842371             0.00699735517            0.000539369774           
       2.845011             0.00739010574            0.000558718439           
       2.847651             0.00627480742            0.000515467076           
       2.850292             0.00582411533             0.00050148409           
       2.852932             0.00689046462            0.000557351916           
       2.855573             0.00666711066             0.00053181237           
       2.858213             0.00682786792            0.000565160262           
       2.860853             0.00723712811            0.000541255609           
       2.863494             0.00703991374            0.000552706448           
       2.866134             0.00602657566            0.000531519096           
       2.868774             0.00633105315            0.000535407552           
       2.871415             0.00648681574            0.000550395555           
       2.874055             0.00631288238            0.000519008399           
       2.876696             0.00674888811            0.000551147249           
       2.879336             0.00692899484            0.000538241348           
       2.881976             0.00733477532            0.000571183367           
       2.884617               0.006890657            0.000545490114           
       2.887257             0.00719505992            0.000560285841           
       2.889897             0.00657054729            0.000524398866           
       2.892538              0.0071350623             0.00059865096           
       2.895178             0.00680828981            0.000528311351           
       2.897819             0.00612899309            0.000511335976           
       2.900459             0.00688577588             0.00053144285           
       2.903099             0.00650618884            0.000511299132           
       2.905740             0.00693399442            0.000541497847           
       2.908380             0.00648310012            0.000529545307           
       2.911021             0.00706924783            0.000561956249           
       2.913661             0.00643546191            0.000536013381           
       2.916301             0.00710155534             0.00056360712           
       2.918942             0.00699713658            0.000535125995           
       2.921582             0.00713086691            0.000565221043           
       2.924222             0.00667631519            0.000529850249           
       2.926863             0.00830707647            0.000615624979           
       2.929503             0.00593201306            0.000526390704           
       2.932144             0.00658275424             0.00053229765           
       2.934784             0.00674482724            0.000529975665           
       2.937424             0.00662530185            0.000530651543           
       2.940065             0.00685479511            0.000514883764           
       2.942705             0.00694794167            0.000517719875           
       2.945346             0.00722572773            0.000560307603           
       2.947986             0.00772965825            0.000590906363           
       2.950626             0.00611458813            0.000522600694           
       2.953267             0.00669442617            0.000537983197           
       2.955907             0.00721266314            0.000579282531           
       2.958547             0.00629238383            0.000510794023           
       2.961188             0.00640671759            0.000537720442           
       2.963828             0.00656271051            0.000532354974           
       2.966469             0.00699267253            0.000539074468           
       2.969109             0.00633058759            0.000520519148           
       2.971749             0.00756962784            0.000565632297           
       2.974390             0.00731646597             0.00054646337           
       2.977030             0.00798429702            0.000583616504           
       2.979670             0.00876914919            0.000594926809           
       2.982311              0.0102239649             0.00066579834           
       2.984951             0.00773333737            0.000550728059           
       2.987592             0.00664668708            0.000520797552           
       2.990232             0.00737511734            0.000570531498           
       2.992872             0.00966603189            0.000615239368           
       2.995513              0.0095573719            0.000598513903           
       2.998153              0.0127296504            0.000702343099           
       3.000794              0.0109084482            0.000629750118           
       3.003434             0.00984625765            0.000599208003           
       3.006074              0.0147073633            0.000722070027           
       3.008715              0.0589610849             0.00139560672           
       3.011355               0.261471271              0.0028340979           
       3.013995               0.234405487             0.00269070911           
       3.016636               0.135924345             0.00200640809           
       3.019276               0.138685542             0.00199219005           
       3.021917               0.563308045              0.0038606403           
       3.024557                1.17341572             0.00547825561           
       3.027197                1.11349292             0.00520284922           
       3.029838               0.721611404             0.00424782096           
       3.032478               0.258628057             0.00254562065           
       3.035118              0.0716248514             0.00135761154           
       3.037759              0.0693847528             0.00133448894           
       3.040399              0.0911390825              0.0015776659           
       3.043040               0.278683241             0.00279260224           
       3.045680               0.336724193             0.00288811827           
       3.048320               0.139430685             0.00189890903           
       3.050961               0.186619399             0.00223557429           
       3.053601               0.131473514              0.0018072191           
       3.056242               0.159761412             0.00211810592           
       3.058882               0.249482827             0.00283930194           
       3.061522               0.221609783             0.00262547263           
       3.064163               0.232684639             0.00265639929           
       3.066803               0.169077442             0.00238392115           
       3.069443              0.0941739683             0.00186145491           
       3.072084              0.0649543039             0.00150532745           
       3.074724              0.0233301479              0.0010075118           
       3.077365              0.0161800264            0.000868549537           
       3.080005              0.0113875652            0.000732781329           
       3.082645              0.0190141753            0.000994725891           
       3.085286              0.0171214837             0.00095136761           
       3.087926              0.0108291286            0.000750782733           
       3.090566             0.00924002626            0.000679508133           
       3.093207              0.0135916421            0.000857589189           
       3.095847             0.00806685897            0.000633258071           
       3.098488             0.00757409761            0.000680390853           
       3.101128             0.00828740839            0.000716285944           
       3.103768             0.00775368938             0.00067980257           
       3.106409              0.0100272541             0.00082275593           
       3.109049             0.00912645325            0.000753258621           
       3.111690              0.0077379084            0.000681686474           
       3.114330             0.00701019875            0.000662643627           
       3.116970              0.0078862805            0.000708226825           
       3.119611              0.0108256968            0.000883248576           
       3.122251              0.0164298921             0.00113819846           
       3.124891              0.0330470979             0.00162927318           
       3.127532              0.0247619977             0.00137971117           
       3.130172              0.0178955206             0.00119318492           
       3.132813             0.00904444576             0.00083507806           
       3.135453                0.00772283            0.000765300768           
       3.138093             0.00648200642             0.00075969932           
       3.140734             0.00545411732            0.000642912491           
       3.143374             0.00728778593            0.000785933434           
       3.146014             0.00744491231            0.000855165526           
       3.148655             0.00822910006            0.000835774698           
       3.151295             0.00510739479            0.000701665178           
       3.153936             0.00511275478            0.000678142963           
       3.156576             0.00542467584            0.000689021605           
       3.159216             0.00555667966            0.000700842554           
       3.161857             0.00612576148            0.000732861209           
       3.164497             0.00821764866             0.00089186498           
       3.167138              0.0050571554            0.000722905274           
       3.169778             0.00608720934            0.000780037633           
       3.172418             0.00654016034            0.000800314226           
       3.175059             0.00714770526            0.000741735619           
       3.177699              0.0064624741            0.000746855143           
       3.180339             0.00623539838            0.000786013159           
       3.182980             0.00602702551             0.00079896377           
       3.185620             0.00504638306            0.000744544074           
       3.188261             0.00556135939            0.000795559364           
       3.190901             0.00615632834             0.00076982817           
       3.193541             0.00581855754            0.000786400222           
       3.196182             0.00693792496            0.000894907738           
       3.198822             0.00507460604            0.000765614536           
       3.201463             0.00556853162            0.000788191708           
       3.204103             0.00717487017             0.00088923832           
       3.206743             0.00617217131            0.000824687415           
       3.209384             0.00462280173            0.000771104905           
       3.212024             0.00669652728            0.000865262115           
       3.214664             0.00519158212            0.000866338499           
       3.217305             0.00571417164             0.00086396882           
       3.219945             0.00650922808            0.000949096717           
       3.222586             0.00715489841            0.000947774176           
       3.225226             0.00509743967             0.00088745331           
       3.227866             0.00567178473            0.000855599963           
       3.230507             0.00789872154             0.00104665693           
       3.233147             0.00593942551            0.000914936498           
       3.235787             0.00500067813            0.000859148049           
       3.238428             0.00515035626            0.000940902384           
       3.241068             0.00541127424            0.000901800343           
       3.243709             0.00657537094             0.00102704121           
       3.246349             0.00640234168            0.000923843184           
       3.248989              0.0053805977             0.00100002785           
       3.251630             0.00517717329            0.000944620078           
       3.254270             0.00757125659             0.00102094084           
       3.256911             0.00555801371            0.000954432732           
       3.259551             0.00702716634             0.00115538213           
       3.262191             0.00593881484              0.0010849321           
       3.264832             0.00603698381             0.00114292227           
       3.267472             0.00605976618             0.00107420518           
       3.270112             0.00414299856             0.00098158759           
       3.272753             0.00408361469            0.000892008168           
       3.275393             0.00706224154               0.001196923           
       3.278034             0.00462680306            0.000969348352           
       3.280674             0.00763985852             0.00135165962           
       3.283314             0.00573537298             0.00104740617           
       3.285955             0.00428867586            0.000934508363           
       3.288595             0.00530242891             0.00115604209           
       3.291235             0.00772073073             0.00143401905           
       3.293876             0.00493808653             0.00116332598           
       3.296516             0.00656053752             0.00128728044           
       3.299157             0.00467211269             0.00107267601           
       3.301797             0.00708705014             0.00150698983           
       3.304437             0.00601896737             0.00120322666           
       3.307078             0.00524372779             0.00123712991           
       3.309718             0.00403474119             0.00112010408           
       3.312359             0.00466525034               0.001204734           
       3.314999             0.00360503681             0.00104270238           
       3.317639             0.00609389146             0.00129652844           
       3.320280             0.00685411177             0.00146193429           
       3.322920             0.00550002175             0.00133162895           
       3.325560             0.00445935072             0.00119986336           
       3.328201             0.00597794701             0.00125116287           
       3.330841              0.0035011603             0.00116535086           
       3.333482             0.00624860681             0.00147156552           
       3.336122             0.00582983978              0.0014220534           
       3.338762             0.00505351037             0.00152941165           
       3.341403             0.00629334421             0.00163086282           
       3.344043             0.00698764955             0.00164987403           
       3.346683             0.00402978082             0.00127913684           
       3.349324             0.00463026422              0.0015416032           
       3.351964             0.00798946959             0.00214138003           
       3.354605             0.00525133296             0.00198547199           
       3.357245             0.00422725344             0.00160700004           
       3.359885             0.00826144949             0.00179804453           
       3.362526             0.00604872883              0.0019239891           
       3.365166             0.00433863577             0.00153690838           
       3.367807            0.000869216344            0.000880392485           
       3.370447             0.00738611819             0.00212884546           
       3.373087             0.00411757215              0.0016997454           
       3.375728              0.0026507738             0.00153917793           
       3.378368             0.00185285647             0.00190982371           
       3.381008             0.00434007285             0.00217920978           
       3.383649             0.00423135324             0.00172613449           
       3.386289             0.00786125532             0.00278459142           
       3.388930             0.00483093918             0.00345282549           
       3.391570             0.00990086091             0.00349669548           
       3.394210             0.00788349796             0.00394866946           
       3.396851             0.00489834949             0.00348168905           
       3.399491             0.00976070485             0.00491618003           
       3.402131           -2.64791335e-05                         0           
       3.404772           -2.64919136e-05                         0           
       3.407412                       nan                       nan           
       3.410053           -2.65571634e-05                         0           
       3.412693                       nan                       nan           
       3.415333              0.0090155259             0.00947649491           
