################################################################################
# EDF_DataBlockID                     0.Image.Psd
# EDF_BinarySize                      4366944
# EDF_HeaderSize                      2560
# ByteOrder                           LowByteFirst
# DataType                            FloatValue
# Dim_1                               1028
# Dim_2                               1062
# Image                               0
# HeaderID                            EH:000000:000000:000000
# Size                                4366944
# Center_1                            607.5200
# Center_2                            651.5500
# Comment                             Xenocs_Cell_Window - 20251028_20perc_iodine_1.23mg
# DDummy                              0.6
# Date                                2025-11-02T19:42:02
# Delta                               0
# Dummy                               -1.5
# ExposureTime                        360
# Gamma                               0
# Intensity1                          8.77244e-10
# PSize_1                             7.5e-05
# PSize_2                             7.5e-05
# Pressure                            0.0326653
# SampleDistance                      0.450002
# SampleEnvKind                       large
# SampleEnvPN                         ElectroChemical cell
# SampleEnvSN                         1141
# Thickness                           0
# Wavelength                          1.541891e-10
# Wavelength                          1.54189e-10
# aux                                 0
# aux_dial                            0.002375
# beamx                               588.434
# beamx_dial                          588.434
# beamz                               657.808
# beamz_dial                          657.808
# det0x                               0
# det0x_dial                          6.36945
# det0xvd                             0
# det0xvd_dial                        0
# det0y                               450.002
# det0y_dial                          481.635
# det0z                               0
# det0z_dial                          1.23302
# det0zvd                             0
# det0zvd_dial                        0
# mag                                 1.818
# mag_dial                            1.818
# om                                  0.2499
# om_dial                             -0.610199
# phi                                 -0.0120535
# phi_dial                            0
# ry                                  0.599993
# ry_dial                             0.599993
# s1bot                               0.8
# s1bot_dial                          -1.66094
# s1hl                                0.8
# s1hl_dial                           -0.608437
# s1hr                                0.8
# s1hr_dial                           0.970938
# s1top                               0.8
# s1top_dial                          -0.461562
# s2bot                               0.45
# s2bot_dial                          1.36109
# s2hl                                0.45
# s2hl_dial                           -0.83375
# s2hr                                0.45
# s2hr_dial                           -0.118594
# s2top                               0.45
# s2top_dial                          1.44734
# w2theta                             32
# w2theta_dial                        32
# waxsch                              19.2605
# waxsch_dial                         -32.7355
# waxsh                               137.085
# waxsh_dial                          -43.5338
# waxsth                              26.0607
# waxsth_dial                         -19.4086
# waxsz                               67.0407
# waxsz_dial                          -23.7954
# wind                                65.9854
# wind_dial                           66.0041
# wpsi                                124
# wpsi_dial                           124
# wstod                               115
# wstod_dial                          115
# x                                   0
# x_dial                              1.00969
# z                                   0
# z_dial                              13.3172
# CountCutoff                         15302352
# DetectorModel                       Dectris EIGER2 Si 1M, S/N E-02-0362
# ThresholdSetting                    4023.88989258
# Saturation                          0
# FlatField                           Corrected
# BackgroundReductionExtra            0.02
# BackgroundCorrectionConstant        0.0026712
# Detector                            0
# Monitor                             0
# Pil_Roi0                            0
# SumForIntensity1                    3.15808e+08
# TransmittedFlux                     877244
# det                                 0
# mon                                 0
# pilai0                              3.15808e+08
# pilai1                              795406
# pilct0                              5.46134e+08
# pilct1                              795406
# pilroi0                             0
# pilroi1                             0
# sec                                 1
# title                               20251028_20perc_iodine_1.23mg_0_01139.edf
# usaxs0                              0
# Operation                           Azimuthal average I(q)
# Error_model                         ErrorModel.poisson
# Geometrical_correction              True
# Transmission_correction             True
# Thickness_correction                False
# Binning mode                        Uniform
# Binning factor                      1.0
# Psi                                 0.0
# Omega                               0.2499
# MaskInvalidPixels                   True
# DetectorEdge                        3
# MaskFiles                           ['20251028_20perc_iodine_1.23mg_0_00012_mask.edf']
################################################################################
    q(A⁻¹)                Intensity(a.u.)            Sigma_I(a.u.)            
       0.000340                 372371.27                118.951299           
       0.001019                359259.481                 71.548556           
       0.001698                349743.448                49.9179319           
       0.002377                330831.807                43.4240637           
       0.003056                307906.507                35.4056296           
       0.003735                253565.598                28.3358281           
       0.004415                204610.686                25.4539392           
       0.005094                152659.937                19.0407539           
       0.005773                100657.101                14.3143149           
       0.006452                58509.3291                10.4565924           
       0.007131                32259.5529                 7.5216862           
       0.007810                16252.1833                5.29818106           
       0.008490                8182.72077                3.33236334           
       0.009169                3973.53422                2.29499964           
       0.009848                1222.89135                1.23095917           
       0.010527                472.610399               0.765246955           
       0.011206                117.663326               0.364421543           
       0.011885                54.2580071               0.229923557           
       0.012564                24.8507102               0.159754361           
       0.013244                16.8151635               0.122855284           
       0.013923                12.3303917               0.106900907           
       0.014602                9.19013927              0.0855931337           
       0.015281                7.51858734              0.0788088298           
       0.015960                5.93150446              0.0694968489           
       0.016639                4.92721469              0.0598133389           
       0.017319                 4.0331083              0.0532733518           
       0.017998                3.32757788              0.0462940907           
       0.018677                2.84569792              0.0443405413           
       0.019356                2.46838351              0.0408048717           
       0.020035                 2.0721029              0.0350755601           
       0.020714                1.78549948              0.0329041786           
       0.021394                1.58393399              0.0293230799           
       0.022073                1.38033489              0.0284801739           
       0.022752                1.24810727              0.0259065682           
       0.023431                1.06098392              0.0231854551           
       0.024110               0.976707603              0.0231926416           
       0.024789               0.890297045              0.0205643789           
       0.025469               0.826610671              0.0204197634           
       0.026148               0.712871723              0.0178172564           
       0.026827               0.614514644              0.0168072289           
       0.027506               0.609191027              0.0169755859           
       0.028185               0.516595115              0.0149076602           
       0.028864               0.531747323               0.015039843           
       0.029544               0.484421694              0.0139202874           
       0.030223               0.422918135              0.0131931322           
       0.030902               0.403123928               0.012998561           
       0.031581               0.375230643              0.0119213973           
       0.032260               0.348408753              0.0116831553           
       0.032939               0.306233985              0.0105613032           
       0.033619               0.295270011              0.0105229317           
       0.034298               0.265589102             0.00971219485           
       0.034977               0.261337252             0.00944480812           
       0.035656               0.236370713             0.00922006231           
       0.036335               0.218076921             0.00858929456           
       0.037014               0.203421015             0.00832039736           
       0.037693               0.193581282             0.00780812876           
       0.038373               0.192163589             0.00785582804           
       0.039052               0.164647006             0.00730259484           
       0.039731               0.178101667              0.0074181133           
       0.040410               0.157034176             0.00691886751           
       0.041089               0.137045532             0.00636229216           
       0.041768               0.135544755             0.00636041712           
       0.042448               0.133795883             0.00627021669           
       0.043127               0.124126629                0.00589676           
       0.043806               0.118005446             0.00579239514           
       0.044485               0.112930157             0.00555005574           
       0.045164               0.116827005             0.00575625856           
       0.045843               0.109786841             0.00535201526           
       0.046523               0.110092259             0.00537796146           
       0.047202              0.0930041059             0.00497753798           
       0.047881              0.0950510938             0.00493497792           
       0.048560               0.102904232             0.00518159936           
       0.049239              0.0940696094             0.00475690795           
       0.049918              0.0998316311             0.00499622789           
       0.050598              0.0885242719             0.00463419359           
       0.051277              0.0787778283             0.00435777399           
       0.051956              0.0835095828             0.00445856441           
       0.052635              0.0792720953             0.00425178426           
       0.053314              0.0791721791             0.00437333502           
       0.053993              0.0771829242             0.00419961229           
       0.054673              0.0757324931             0.00406729992           
       0.055352                0.07298581             0.00405151118           
       0.056031               0.074472952             0.00400658853           
       0.056710              0.0745485182             0.00410685171           
       0.057389              0.0706083885             0.00385420492           
       0.058068              0.0714505055             0.00391708721           
       0.058748              0.0607424986             0.00365671276           
       0.059427               0.066569394             0.00376327425           
       0.060106              0.0619233725              0.0036639284           
       0.060785              0.0638069703               0.003607799           
       0.061464              0.0583200247             0.00353232829           
       0.062143              0.0651146885             0.00369451538           
       0.062822              0.0588218718             0.00347025133           
       0.063502              0.0561188773             0.00338352496           
       0.064181              0.0539329608             0.00328194721           
       0.064860              0.0561911528             0.00340097402           
       0.065539              0.0550735473             0.00333405865           
       0.066218              0.0530564411             0.00320236436           
       0.066897              0.0523900638             0.00320675574           
       0.067577               0.044759108             0.00299250284           
       0.068256              0.0495729992             0.00322667912           
       0.068935              0.0471641166             0.00309641628           
       0.069614              0.0439758359             0.00301969084           
       0.070293              0.0499386241             0.00324758134           
       0.070972              0.0435161787             0.00300937001           
       0.071652              0.0483320215               0.003177339           
       0.072331              0.0477909469             0.00310319407           
       0.073010              0.0488894703             0.00321037166           
       0.073689               0.037801478             0.00280743007           
       0.074368              0.0392929879             0.00285707423           
       0.075047              0.0461810217             0.00306409698           
       0.075727              0.0441932115             0.00297891297           
       0.076406              0.0460111431             0.00310021216           
       0.077085               0.040846543             0.00286645007           
       0.077764              0.0387536606             0.00278226596           
       0.078443              0.0406671154             0.00286777156           
       0.079122              0.0401229995             0.00282115715           
       0.079802              0.0375051753             0.00275650005           
       0.080481              0.0370890867              0.0026487024           
       0.081160              0.0374791379             0.00271723021           
       0.081839              0.0391401486             0.00273233368           
       0.082518              0.0382716662             0.00270412518           
       0.083197              0.0329808987             0.00247125958           
       0.083876              0.0403045788             0.00268650228           
       0.084556              0.0367738153             0.00263750127           
       0.085235              0.0382152308             0.00263674853           
       0.085914              0.0334531833             0.00249096529           
       0.086593              0.0297292207             0.00233311707           
       0.087272              0.0311200768             0.00235332783           
       0.087951              0.0335413155             0.00249834984           
       0.088631              0.0339933775             0.00242946298           
       0.089310              0.0320352396             0.00240847375           
       0.089989              0.0329080419             0.00241252469           
       0.090668              0.0305827334             0.00235139971           
       0.091347              0.0325387577             0.00243900988           
       0.092026              0.0320793323             0.00231478226           
       0.092706              0.0269116778             0.00219711187           
       0.093385              0.0309475244             0.00231992446           
       0.094064              0.0313455401             0.00236196873           
       0.094743              0.0275032489              0.0021787583           
       0.095422              0.0312088418             0.00229501655           
       0.096101              0.0330346739             0.00240982535           
       0.096781              0.0307305902             0.00229098725           
       0.097460              0.0265425149             0.00207107925           
       0.098139              0.0280546271             0.00211287262           
       0.098818              0.0259810399             0.00200825037           
       0.099497              0.0264164905             0.00202916755           
       0.100176              0.0302379703             0.00211400602           
       0.100856              0.0295887914             0.00208985007           
       0.101535              0.0290159283             0.00206552923           
       0.102214              0.0297400732             0.00209115785           
       0.102893              0.0266161888             0.00195574427           
       0.103572              0.0236505171             0.00181633442           
       0.104251              0.0260186178             0.00191213711           
       0.104931               0.025952221              0.0018923098           
       0.105610              0.0264941625             0.00192012142           
       0.106289              0.0263852772             0.00188428353           
       0.106968              0.0270909124             0.00191497989           
       0.107647              0.0261966848             0.00188423969           
       0.108326              0.0248274754             0.00180979803           
       0.109005              0.0255921306             0.00182589569           
       0.109685              0.0214055752             0.00165115252           
       0.110364               0.025084222             0.00180771079           
       0.111043              0.0215054452             0.00166716075           
       0.111722              0.0276290239              0.0018665733           
       0.112401              0.0258871006             0.00181179898           
       0.113080              0.0238821411             0.00172028104           
       0.113760              0.0233602679             0.00172979908           
       0.114439              0.0220847074             0.00165790555           
       0.115118              0.0239141287             0.00171219863           
       0.115797              0.0262210797             0.00180949327           
       0.116476              0.0219244772              0.0016298478           
       0.117155              0.0257092253             0.00177916254           
       0.117835              0.0237170388             0.00167486853           
       0.118514              0.0217519227               0.001624319           
       0.119193               0.023875979               0.001701791           
       0.119872              0.0210586734             0.00157824873           
       0.120551              0.0231203195             0.00164268506           
       0.121230              0.0233278141             0.00163343491           
       0.121910               0.021910734             0.00159834475           
       0.122589              0.0239485068             0.00167274025           
       0.123268              0.0244796609              0.0016584244           
       0.123947              0.0203636788             0.00152237203           
       0.124626              0.0207442373             0.00151774439           
       0.125305              0.0231955467             0.00161279143           
       0.125985              0.0211979563             0.00152981831           
       0.126664              0.0212083779             0.00151561863           
       0.127343              0.0229173002             0.00159376036           
       0.128022              0.0220273633             0.00155052465           
       0.128701              0.0225629242             0.00156108615           
       0.129380              0.0215655302             0.00150707743           
       0.130059              0.0204081888             0.00146948495           
       0.130739              0.0201362193              0.0014699253           
       0.131418              0.0206662134             0.00148497497           
       0.132097              0.0185848813             0.00139015367           
       0.132776              0.0191435578             0.00140452379           
       0.133455              0.0211406122             0.00148743368           
       0.134134              0.0217952574              0.0015054786           
       0.134814              0.0214622522             0.00147854032           
       0.135493                0.02174412             0.00149424037           
       0.136172              0.0190798772             0.00138914113           
       0.136851              0.0201471939              0.0014357683           
       0.137530              0.0216763462             0.00145387629           
       0.138209              0.0201227584             0.00141725277           
       0.138889              0.0207991257             0.00144722571           
       0.139568              0.0199000906             0.00141499048           
       0.140247              0.0203357191             0.00142851974           
       0.140926              0.0178685326             0.00130077503           
       0.141605              0.0217014051              0.0014699326           
       0.142284              0.0201550375             0.00139311975           
       0.142964              0.0195701628             0.00137800812           
       0.143643              0.0195071153             0.00137404865           
       0.144322              0.0198133313             0.00135581415           
       0.145001              0.0204480181             0.00140563046           
       0.145680              0.0208249389             0.00138496623           
       0.146359              0.0172900697              0.0012665765           
       0.147039              0.0190236078              0.0013394927           
       0.147718              0.0178330273             0.00127549942           
       0.148397              0.0208509559             0.00140064304           
       0.149076              0.0178594875             0.00125606768           
       0.149755              0.0204319028             0.00136422964           
       0.150434              0.0192620826             0.00132514046           
       0.151114              0.0185943175             0.00129476701           
       0.151793              0.0168866622             0.00123389281           
       0.152472              0.0197489224             0.00131080242           
       0.153151              0.0204304269             0.00134611693           
       0.153830               0.018199385             0.00126123685           
       0.154509              0.0202265046               0.001324076           
       0.155188              0.0181026955             0.00125217079           
       0.155868              0.0206117353             0.00132662352           
       0.156547               0.018874126              0.0012776286           
       0.157226               0.018376924             0.00122989627           
       0.157905              0.0197573778             0.00128596569           
       0.158584              0.0191940167              0.0012651964           
       0.159263              0.0185625902             0.00124878979           
       0.159943              0.0190393678             0.00126566886           
       0.160622              0.0162049029             0.00114512754           
       0.161301              0.0195516494             0.00127465496           
       0.161980              0.0178048999              0.0011957047           
       0.162659              0.0183877992             0.00122858783           
       0.163338              0.0182388157             0.00121362744           
       0.164018              0.0199844538             0.00126371106           
       0.164697              0.0167371264             0.00117134029           
       0.165376              0.0166193409              0.0011417093           
       0.166055              0.0181228003             0.00120009624           
       0.166734              0.0185701857             0.00120937709           
       0.167413              0.0177319905             0.00118259577           
       0.168093              0.0163704096             0.00114703368           
       0.168772              0.0198162229             0.00122508583           
       0.169451              0.0176674018             0.00117804015           
       0.170130              0.0186584584             0.00119473714           
       0.170809              0.0180120387             0.00118786777           
       0.171488              0.0170670455             0.00114574669           
       0.172168               0.016341407             0.00111035496           
       0.172847              0.0171004581              0.0011507705           
       0.173526              0.0182355357             0.00116567968           
       0.174205              0.0173579891             0.00114252373           
       0.174884              0.0170984174             0.00112803963           
       0.175563              0.0160310371             0.00109692652           
       0.176243              0.0179728112             0.00117308482           
       0.176922              0.0170456131             0.00111265353           
       0.177601              0.0177210846             0.00114695281           
       0.178280              0.0196420587             0.00119403967           
       0.178959               0.018417643             0.00116552468           
       0.179638               0.017199009             0.00112306198           
       0.180317              0.0171619772             0.00111367962           
       0.180997              0.0187622728             0.00117076631           
       0.181676              0.0161263272             0.00107382374           
       0.182355               0.017925875             0.00113895348           
       0.183034              0.0164320282             0.00107296305           
       0.183713               0.015994858             0.00107148592           
       0.184392              0.0166864037             0.00109407288           
       0.185072              0.0169353105             0.00108964129           
       0.185751              0.0179394428             0.00112459968           
       0.186430              0.0154710256             0.00103705194           
       0.187109              0.0185084638             0.00114692771           
       0.187788              0.0168639741             0.00109209093           
       0.188467              0.0160555985             0.00105298441           
       0.189147              0.0177270189             0.00111764143           
       0.189826              0.0166058317             0.00106259139           
       0.190505               0.015914947               0.001057376           
       0.191184              0.0153166798             0.00102236141           
       0.191863              0.0169471961             0.00107766808           
       0.192542              0.0153350378             0.00103479621           
       0.193222              0.0160408396             0.00103462418           
       0.193901              0.0169722496             0.00107850265           
       0.194580              0.0159180379             0.00102620034           
       0.195259              0.0158058841             0.00103432294           
       0.195938              0.0154747249             0.00102587338           
       0.196617              0.0172080955             0.00106670379           
       0.197297              0.0160109953             0.00103313309           
       0.197976               0.016242007             0.00102457617           
       0.198655              0.0162590877             0.00103631191           
       0.199334               0.016102323             0.00102220916           
       0.200013              0.0160898476             0.00102124654           
       0.200692               0.016021104             0.00102519222           
       0.201371              0.0169413588             0.00104235187           
       0.202051              0.0170486567             0.00104889922           
       0.202730              0.0139158378            0.000938175033           
       0.203409              0.0149512259            0.000978978591           
       0.204088              0.0163679466             0.00102317816           
       0.204767              0.0154982691            0.000990392054           
       0.205446              0.0164023341             0.00102086003           
       0.206126               0.015395186             0.00097558476           
       0.206805              0.0172893127             0.00105281242           
       0.207484              0.0175034113             0.00104026717           
       0.208163              0.0157127748            0.000991543775           
       0.208842              0.0184717315             0.00107216295           
       0.209521              0.0148032663            0.000951834453           
       0.210201              0.0139694682            0.000934958056           
       0.210880              0.0145519268            0.000935525302           
       0.211559              0.0172727963             0.00103430989           
       0.212238              0.0170319324             0.00102184673           
       0.212917              0.0160574527            0.000988497399           
       0.213596              0.0163801501             0.00100428392           
       0.214276              0.0143132803            0.000919228954           
       0.214955              0.0158615615            0.000988018966           
       0.215634              0.0161983826            0.000991298317           
       0.216313              0.0160037141            0.000983254681           
       0.216992              0.0170049886             0.00101329296           
       0.217671              0.0144560837            0.000927941193           
       0.218351              0.0145199815            0.000939085181           
       0.219030              0.0169886593            0.000999750452           
       0.219709              0.0166049033            0.000994559661           
       0.220388              0.0147332999            0.000935630552           
       0.221067               0.015143375            0.000949314018           
       0.221746              0.0150036088            0.000943955087           
       0.222426              0.0145370561             0.00091527632           
       0.223105              0.0146080274            0.000930007494           
       0.223784              0.0149472161            0.000931411223           
       0.224463              0.0152526473            0.000948372159           
       0.225142               0.014188397            0.000900215078           
       0.225821              0.0141982027             0.00090415345           
       0.226500              0.0136798772            0.000893139332           
       0.227180              0.0145523917             0.00090698973           
       0.227859              0.0142338239            0.000901031413           
       0.228538              0.0161766621            0.000950912583           
       0.229217              0.0152870876            0.000931714045           
       0.229896              0.0144890621            0.000906632477           
       0.230575              0.0145764385            0.000894866246           
       0.231255              0.0189389527             0.00103529555           
       0.231934              0.0156554168            0.000934848895           
       0.232613              0.0161032929            0.000951624884           
       0.233292              0.0153013185            0.000918663332           
       0.233971              0.0147305437            0.000900945706           
       0.234650              0.0154874456            0.000934668629           
       0.235330              0.0148209996            0.000906353178           
       0.236009              0.0134247605            0.000860745671           
       0.236688              0.0154194466            0.000919176608           
       0.237367              0.0134272192            0.000858989645           
       0.238046              0.0145045246            0.000899071911           
       0.238725              0.0162193667            0.000936067539           
       0.239405              0.0151458975            0.000910169921           
       0.240084              0.0158766832            0.000925935216           
       0.240763              0.0157568127            0.000931265711           
       0.241442              0.0164757165            0.000938855276           
       0.242121              0.0146113076              0.0008858089           
       0.242800              0.0153580525             0.00091246194           
       0.243480               0.015455145            0.000911055763           
       0.244159              0.0138154665            0.000861789672           
       0.244838               0.014141673            0.000857557584           
       0.245517              0.0163235047            0.000934592393           
       0.246196              0.0140305663            0.000866887017           
       0.246875               0.015134353            0.000887790023           
       0.247554              0.0165772302            0.000938589878           
       0.248234              0.0156557931            0.000898300667           
       0.248913               0.013280394            0.000836631235           
       0.249592              0.0135451997            0.000836902244           
       0.250271              0.0142264807            0.000855200339           
       0.250950              0.0133147821             0.00083241142           
       0.251629              0.0151311449            0.000879832248           
       0.252309              0.0138058527            0.000842124176           
       0.252988              0.0134155393            0.000815835295           
       0.253667              0.0135565758             0.00082969456           
       0.254346              0.0143478893            0.000853390624           
       0.255025               0.015193986            0.000876268769           
       0.255704               0.014264144            0.000845143888           
       0.256384              0.0149269857            0.000861566478           
       0.257063              0.0136743017            0.000829324299           
       0.257742              0.0135681503            0.000820375179           
       0.258421              0.0129940455            0.000801286117           
       0.259100              0.0120258842             0.00077220146           
       0.259779              0.0143842873            0.000843816431           
       0.260459              0.0129530765            0.000802310163           
       0.261138                0.01383077            0.000812845208           
       0.261817              0.0132563792            0.000811851172           
       0.262496              0.0130871476            0.000798741519           
       0.263175              0.0122630263            0.000774844221           
       0.263854              0.0132162776            0.000800659288           
       0.264534              0.0141310726            0.000820834472           
       0.265213              0.0134554813            0.000813594958           
       0.265892              0.0136832714            0.000809941352           
       0.266571              0.0124347514            0.000770350571           
       0.267250              0.0128464213            0.000784317527           
       0.267929              0.0129574498            0.000786891876           
       0.268609              0.0126660025            0.000782251644           
       0.269288               0.012957899            0.000778070235           
       0.269967              0.0128053195            0.000781809417           
       0.270646              0.0125001376            0.000769097937           
       0.271325              0.0118794854            0.000751013608           
       0.272004               0.011889315            0.000743834785           
       0.272683              0.0123294641            0.000758414197           
       0.273363              0.0126460793            0.000772989129           
       0.274042              0.0127073412            0.000770287546           
       0.274721              0.0123614083            0.000759279976           
       0.275400              0.0120329779            0.000744165431           
       0.276079              0.0122323931              0.0007545668           
       0.276758              0.0117874001            0.000750062277           
       0.277438              0.0116202654             0.00073636601           
       0.278117              0.0118653331            0.000757620646           
       0.278796              0.0114890897            0.000737944818           
       0.279475              0.0115216351            0.000751196978           
       0.280154              0.0102921438            0.000699773218           
       0.280833              0.0120979144            0.000763295535           
       0.281513              0.0127837128            0.000796941743           
       0.282192              0.0125637327            0.000776576562           
       0.282871              0.0104502883            0.000713203185           
       0.283550              0.0107373288            0.000726805855           
       0.284229              0.0107379613            0.000737502454           
       0.284908              0.0114413026            0.000769302447           
       0.285588              0.0105243402            0.000729190804           
       0.286267              0.0110357612            0.000758653774           
       0.286946              0.0110368583            0.000753757663           
       0.287625              0.0116458113            0.000787455896           
       0.288304              0.0116858449            0.000778250352           
       0.288983              0.0117863546            0.000791487819           
       0.289663              0.0108096988            0.000762422544           
       0.290342              0.0110745319            0.000767597645           
       0.291021              0.0117800764            0.000795936596           
       0.291700              0.0110028298            0.000759181808           
       0.292379              0.0105916663            0.000761916257           
       0.293058              0.0113786867            0.000786733405           
       0.293738             0.00950824904            0.000713131211           
       0.294417              0.0100826882            0.000742892756           
       0.295096             0.00979990023            0.000724349245           
       0.295775             0.00907657877            0.000707751279           
       0.296454              0.0101061782            0.000737155408           
       0.297133             0.00885608543            0.000693324071           
       0.297812             0.00982025822            0.000733752495           
       0.298492             0.00985525069            0.000736478823           
       0.299171             0.00926228226             0.00071262821           
       0.299850              0.0109334122            0.000768964113           
       0.300529               0.010069171            0.000746259408           
       0.301208              0.0101285258            0.000750276939           
       0.301887             0.00993793171            0.000742301082           
       0.302567             0.00928685258            0.000713979595           
       0.303246              0.0101924494            0.000752864842           
       0.303925              0.0106338866            0.000778869124           
       0.304604             0.00999895342             0.00073895052           
       0.305283             0.00834425524            0.000685055377           
       0.305962             0.00931799195            0.000719550798           
       0.306642             0.00937894545            0.000731704886           
       0.307321             0.00853235547            0.000695671824           
       0.308000             0.00953449509            0.000726675038           
       0.308679              0.0102659055            0.000770361453           
       0.309358             0.00846059764            0.000689892765           
       0.310037             0.00900043045             0.00071314734           
       0.310717             0.00825753318            0.000682424717           
       0.311396             0.00824286721            0.000686391144           
       0.312075             0.00793346895            0.000681925315           
       0.312754             0.00906346224            0.000714292245           
       0.313433             0.00878483083            0.000709343074           
       0.314112             0.00786002641            0.000670813715           
       0.314792             0.00787704086            0.000676281595           
       0.315471             0.00833733443            0.000687156083           
       0.316150             0.00935710374            0.000734705638           
       0.316829             0.00931780515            0.000738002659           
       0.317508             0.00957031315            0.000739542828           
       0.318187             0.00764229779            0.000669582089           
       0.318866             0.00812051206            0.000680915744           
       0.319546             0.00928062119            0.000738842438           
       0.320225             0.00844453099            0.000704789729           
       0.320904             0.00840730565            0.000692361115           
       0.321583             0.00782963811            0.000682874246           
       0.322262             0.00972466854            0.000749505389           
       0.322941             0.00775046502            0.000677688202           
       0.323621             0.00787781133            0.000679063388           
       0.324300             0.00801824028            0.000685626062           
       0.324979             0.00638926633            0.000613137283           
       0.325658              0.0077601679             0.00067694745           
       0.326337             0.00725584593            0.000655435447           
       0.327016              0.0100800476            0.000767628739           
       0.327696             0.00757516783            0.000672851959           
       0.328375              0.0084308845            0.000703849285           
       0.329054             0.00752232439            0.000668448967           
       0.329733             0.00908244432            0.000737185423           
       0.330412             0.00772647342            0.000674361786           
       0.331091              0.0073055556            0.000667630532           
       0.331771             0.00743596703            0.000655913546           
       0.332450             0.00893778492            0.000733067441           
       0.333129             0.00744769396            0.000667448554           
       0.333808             0.00741632465             0.00066692175           
       0.334487             0.00657800843            0.000631076473           
       0.335166             0.00831563407            0.000699164655           
       0.335846             0.00724397415            0.000664027225           
       0.336525             0.00772954087            0.000679149161           
       0.337204             0.00772454568            0.000680709583           
       0.337883              0.0066449956            0.000632190603           
       0.338562             0.00594663301             0.00060136706           
       0.339241             0.00841148938            0.000716561641           
       0.339921             0.00694000015             0.00063995879           
       0.340600             0.00616971043            0.000614857935           
       0.341279             0.00771772461            0.000680317104           
       0.341958             0.00727065598            0.000669634585           
       0.342637             0.00676003483            0.000636570408           
       0.343316             0.00692085815             0.00064596282           
       0.343995             0.00628641874            0.000625724002           
       0.344675             0.00671387221            0.000634763726           
       0.345354             0.00612969696            0.000610520664           
       0.346033             0.00609641375            0.000607273731           
       0.346712             0.00607473137            0.000610060861           
       0.347391              0.0060077096            0.000610442637           
       0.348070             0.00722668651            0.000660006433           
       0.348750             0.00681795095            0.000650333197           
       0.349429             0.00615443499            0.000609901802           
       0.350108             0.00735077609            0.000674570415           
       0.350787             0.00714995411             0.00065398948           
       0.351466              0.0065051214             0.00063529329           
       0.352145             0.00607573828            0.000614477994           
       0.352825             0.00621388463            0.000618609775           
       0.353504             0.00497600572            0.000553438161           
       0.354183             0.00611142168            0.000606271554           
       0.354862              0.0067317937             0.00065108523           
       0.355541             0.00502240815            0.000555012988           
       0.356220             0.00626565667             0.00062108352           
       0.356900             0.00514662252            0.000568242238           
       0.357579             0.00682695712            0.000646439296           
       0.358258             0.00472391358            0.000545172471           
       0.358937             0.00694377363            0.000648541986           
       0.359616              0.0055374954            0.000587245467           
       0.360295             0.00492122344            0.000554065581           
       0.360975             0.00499874033            0.000556024032           
       0.361654             0.00593386931            0.000608927397           
       0.362333             0.00574415781            0.000596067974           
       0.363012             0.00469537254            0.000545845535           
       0.363691             0.00591147214            0.000600383394           
       0.364370              0.0048114541            0.000548369811           
       0.365050             0.00501074064            0.000556616611           
       0.365729             0.00649633368            0.000639824333           
       0.366408             0.00639519849            0.000636230018           
       0.367087             0.00592783637            0.000602716705           
       0.367766             0.00485567377            0.000556859714           
       0.368445             0.00523323314            0.000567840163           
       0.369124             0.00563152307            0.000593679918           
       0.369804             0.00522941739             0.00057117686           
       0.370483             0.00497212827            0.000559385469           
       0.371162              0.0054204382            0.000587445868           
       0.371841              0.0050913696            0.000559408446           
       0.372520             0.00466695643            0.000546320818           
       0.373199             0.00461380174            0.000536710907           
       0.373879             0.00524759468            0.000579015796           
       0.374558             0.00496830987            0.000555175817           
       0.375237             0.00504355103            0.000560280823           
       0.375916             0.00543483455            0.000592750538           
       0.376595             0.00540433928            0.000579532729           
       0.377274             0.00448991372             0.00053668857           
       0.377954             0.00533605059            0.000575886402           
       0.378633             0.00446676397            0.000533552624           
       0.379312             0.00510062502            0.000570010432           
       0.379991             0.00486135044            0.000553599779           
       0.380670              0.0060265805             0.00062728069           
       0.381349             0.00349008532             0.00047050421           
       0.382029             0.00457738588            0.000546553626           
       0.382708             0.00373593239            0.000482986055           
       0.383387             0.00477967672            0.000558684458           
       0.384066             0.00372652334            0.000488782924           
       0.384745             0.00376204649            0.000493037645           
       0.385424             0.00378238032            0.000496047365           
       0.386104             0.00407577329            0.000509236414           
       0.386783             0.00486736221            0.000568531931           
       0.387462             0.00449038932            0.000532487566           
       0.388141              0.0045704032            0.000545790958           
       0.388820             0.00411612605              0.0005142125           
       0.389499             0.00417410183            0.000520736271           
       0.390178             0.00394981481            0.000508569951           
       0.390858             0.00475469351            0.000553471321           
       0.391537             0.00401670074            0.000513902603           
       0.392216             0.00372920017               0.000488963           
       0.392895              0.0046536594            0.000548057438           
       0.393574             0.00334828858            0.000463726988           
       0.394253             0.00473834879            0.000554132772           
       0.394933             0.00432858114            0.000535682856           
       0.395612             0.00343816713            0.000463549878           
       0.396291             0.00346338184            0.000474718364           
       0.396970             0.00395566158             0.00050284073           
       0.397649             0.00406250393            0.000511155286           
       0.398328             0.00440315075            0.000529815396           
       0.399008             0.00318160793            0.000449387778           
       0.399687             0.00448565914            0.000535669281           
       0.400366              0.0040641711             0.00050793171           
       0.401045             0.00391974506            0.000497881906           
       0.401724             0.00374696203            0.000487597417           
       0.402403             0.00368338269            0.000487210873           
       0.403083             0.00376114308             0.00048522763           
       0.403762             0.00417653566            0.000513842479           
       0.404441             0.00480107897            0.000554432392           
       0.405120             0.00399856044            0.000504318037           
       0.405799             0.00435352741            0.000523941128           
       0.406478             0.00327436513            0.000454397894           
       0.407158             0.00518496069            0.000570728625           
       0.407837             0.00345475973            0.000469983136           
       0.408516             0.00388165767            0.000493841206           
       0.409195             0.00398488404            0.000506040682           
       0.409874             0.00370827662            0.000494953544           
       0.410553              0.0031160923             0.00045859515           
       0.411233             0.00321205987            0.000463190816           
       0.411912             0.00324658256            0.000472271501           
       0.412591             0.00329639634            0.000479030361           
       0.413270             0.00284667975            0.000443041567           
       0.413949             0.00426400822            0.000548153072           
       0.414628             0.00382648784            0.000518337407           
       0.415307              0.0034887451            0.000500439079           
       0.415987             0.00314179445            0.000470990152           
       0.416666              0.0035930461            0.000500649151           
       0.417345             0.00343192582            0.000497466156           
       0.418024             0.00322264408            0.000482071912           
       0.418703             0.00297935398            0.000462666577           
       0.419382              0.0023888084            0.000412253445           
       0.420062             0.00254446812            0.000426665215           
       0.420741             0.00294931833            0.000461799046           
       0.421420              0.0034115514            0.000498553893           
       0.422099             0.00360940002            0.000512819994           
       0.422778             0.00285031604            0.000458183498           
       0.423457             0.00229628113            0.000413766731           
       0.424137              0.0029922335            0.000464627512           
       0.424816             0.00208718694            0.000396160115           
       0.425495             0.00223623005            0.000409672934           
       0.426174             0.00254937647            0.000437570525           
       0.426853             0.00204996001            0.000389993804           
       0.427532             0.00232941634             0.00041924218           
       0.428212             0.00213155011            0.000403688735           
       0.428891             0.00241864672            0.000429038384           
       0.429570             0.00234615034              0.0004228484           
       0.430249              0.0024024808            0.000425672923           
       0.430928             0.00205406875            0.000402205569           
       0.431607              0.0022690405              0.0004154652           
       0.432287             0.00292297016            0.000475001403           
       0.432966             0.00274881516            0.000464685191           
       0.433645             0.00244163665            0.000438409414           
       0.434324             0.00316969694            0.000496503608           
       0.435003             0.00304590833             0.00048754317           
       0.435682             0.00158844869            0.000354967544           
       0.436361             0.00205864393            0.000403562718           
       0.437041             0.00314679893            0.000498281713           
       0.437720             0.00262997177             0.00045772616           
       0.438399             0.00177360066            0.000377849189           
       0.439078             0.00300158329            0.000505801763           
       0.439757             0.00346313581            0.000539953268           
       0.440436             0.00161685768            0.000377256006           
       0.441116             0.00330650689            0.000548313728           
       0.441795             0.00278554192             0.00050387426           
       0.442474             0.00297839727            0.000522477933           
       0.443153             0.00238843084            0.000478793801           
       0.443832               0.001606764            0.000393368565           
       0.444511             0.00197204399            0.000433831048           
       0.445191             0.00269332044            0.000519329934           
       0.445870             0.00218942333            0.000468248153           
       0.446549             0.00244430741            0.000499970994           
       0.447228             0.00140332519             0.00037669085           
       0.447907             0.00196464763            0.000451053935           
       0.448586             0.00142684044            0.000393640433           
       0.449266             0.00139529642            0.000385684345           
       0.449945             0.00275140582            0.000539387726           
       0.450624             0.00193644548            0.000459694114           
       0.451303            0.000808922579            0.000300963106           
       0.451982             0.00234624891            0.000509393882           
       0.452661             0.00232175045             0.00051616785           
       0.453341             0.00255927009            0.000543826715           
       0.454020             0.00223839294            0.000509368352           
       0.454699              0.0018258995            0.000464248748           
       0.455378             0.00216302612            0.000505564055           
       0.456057             0.00274246491            0.000579390923           
       0.456736             0.00211755572             0.00050753054           
       0.457416              0.0013887939            0.000411032335           
       0.458095             0.00119208146            0.000386322615           
       0.458774             0.00148031321            0.000436190197           
       0.459453             0.00150609754            0.000442191609           
       0.460132             0.00143214599             0.00042188665           
       0.460811               0.002222767            0.000545202076           
       0.461490             0.00150881966            0.000444620627           
       0.462170             0.00238132067            0.000567289677           
       0.462849             0.00144066108            0.000444103863           
       0.463528             0.00225964183            0.000554900566           
       0.464207            0.000818225561            0.000340159755           
       0.464886             0.00285866673            0.000630860361           
       0.465565             0.00181296821            0.000507915349           
       0.466245             0.00196427956             0.00053032667           
       0.466924              0.0025222855            0.000615146405           
       0.467603             0.00125954714            0.000425478611           
       0.468282              0.0013317563            0.000447879483           
       0.468961             0.00106932089            0.000403967557           
       0.469640            0.000610446445            0.000306439922           
       0.470320             0.00138986716            0.000462709348           
       0.470999             0.00203470798            0.000565131756           
       0.471678            0.000643528273            0.000320875837           
       0.472357            0.000811900574            0.000361422645           
       0.473036            0.000997858983            0.000403209929           
       0.473715              0.0015029213            0.000498711006           
       0.474395            0.000868523498            0.000384356144           
       0.475074            0.000713569677            0.000348396581           
       0.475753             0.00085771666             0.00037867265           
       0.476432            0.000580730558            0.000322930643           
       0.477111              0.0014327167            0.000501092851           
       0.477790             0.00163063921            0.000537441544           
       0.478470             0.00183382747            0.000577480254           
       0.479149            0.000798502039            0.000385003665           
       0.479828            0.000976419393            0.000424738352           
       0.480507            0.000237059852            0.000210969482           
       0.481186            0.000844406385            0.000407143671           
       0.481865            0.000646865293             0.00035193892           
       0.482545            0.000865695135            0.000411921521           
       0.483224            0.000269499122             0.00023140254           
       0.483903             0.00112536201            0.000480311666           
       0.484582            0.000109450913            0.000152227225           
       0.485261            0.000877218233            0.000420040846           
       0.485940           -9.64833735e-05                         0           
       0.486619            0.000736816353            0.000396085579           
       0.487299           -0.000311127738                         0           
       0.487978            0.000535056358            0.000339414609           
       0.488657           -0.000311165411                         0           
       0.489336            0.000355972048            0.000283216248           
       0.490015            0.000353008373            0.000284251257           
       0.490694           -8.42112695e-05                         0           
       0.491374           -8.57285307e-05                         0           
       0.492053            -0.00031125972                         0           
       0.492732            0.000179134553            0.000209856243           
       0.493411            0.000177532681            0.000210032943           
       0.494090           -0.000311316803                         0           
       0.494769           -0.000311335624                         0           
       0.495449           -5.90759746e-05                         0           
       0.496128           -0.000311373856                         0           
       0.496807            0.000241186572            0.000257207225           
       0.497486           -6.95683219e-05                         0           
       0.498165           -0.000311431285                         0           
       0.498844            -3.6317771e-05                         0           
       0.499524           -3.23521759e-05                         0           
       0.500203           -0.000311489047                         0           
       0.500882           -1.74631259e-05                         0           
       0.501561           -0.000311527314                         0           
       0.502240            0.000273209888            0.000280844495           
       0.502919           -0.000311566066                         0           
       0.503599           -0.000311585477                         0           
       0.504278            -0.00031160516                         0           
       0.504957            4.11720118e-06            3.58846979e-05           
       0.505636            -0.00031164394                         0           
       0.506315            7.02102094e-06            4.73743783e-05           
       0.506994            -0.00031168288                         0           
       0.507673           -0.000311702135                         0           
       0.508353            1.75526366e-05            7.53265288e-05           
       0.509032           -0.000311741374                         0           
       0.509711           -0.000311760958                         0           
       0.510390           -0.000311780851                         0           
       0.511069           -0.000311800678                         0           
       0.511748            4.48593217e-05            0.000126740852           
       0.512428            6.01370261e-05             0.00014952681           
       0.513107            5.58361058e-05            0.000143856284           
       0.513786           -0.000311879539                         0           
       0.514465           -0.000311899517                         0           
       0.515144           -0.000311919482                         0           
       0.515823           -0.000311939265                         0           
       0.516503           -0.000311959233                         0           
       0.517182             0.00010223845            0.000205410917           
       0.517861           -0.000311999118                         0           
       0.518540            0.000122496082            0.000231495675           
       0.519219           -0.000312039063                         0           
       0.519898           -0.000312059178                         0           
       0.520578           -0.000312079415                         0           
       0.521257            -0.00031209939                         0           
       0.521936           -0.000312119413                         0           
       0.522615             0.00063112929            0.000544227863           
       0.523294            0.000630897509            0.000544145647           
       0.523973           -0.000312180072                         0           
       0.524653           -0.000312199984                         0           
       0.525332           -0.000312220187                         0           
       0.526011           -0.000312240753                         0           
       0.526690           -0.000312261279                         0           
       0.527369           -0.000312281637                         0           
       0.528048            0.000648137665            0.000565449373           
       0.528728            0.000198798162            0.000319993945           
       0.529407           -0.000312342999                         0           
       0.530086            0.000201486958            0.000321464353           
       0.530765           -0.000312383584                         0           
       0.531444            -0.00031240411                         0           
       0.532123            0.000234837662            0.000361654526           
       0.532802           -0.000312445718                         0           
       0.533482            0.000265984226            0.000388635759           
       0.534161             0.00134014347             0.00086198006           
       0.534840            -0.00031250755                         0           
       0.535519           -0.000312528433                         0           
       0.536198             -0.0003125491                         0           
       0.536877           -0.000312569483                         0           
       0.537557           -0.000312590216                         0           
       0.538236           -0.000312611136                         0           
       0.538915           -0.000312632048                         0           
       0.539594           -0.000312652932                         0           
       0.540273           -0.000312674142                         0           
       0.540952           -0.000312695117                         0           
       0.541632           -0.000312715708                         0           
       0.542311           -0.000312736487                         0           
       0.542990             -0.0003127575                         0           
       0.543669           -0.000312778688                         0           
       0.544348           -0.000312799851                         0           
       0.545027            0.000340328779            0.000471864756           
       0.545707           -0.000312842149                         0           
       0.546386           -0.000312863389                         0           
       0.547065           -0.000312884375                         0           
       0.547744           -0.000312905456                         0           
       0.548423           -0.000312926769                         0           
       0.549102           -0.000312948105                         0           
       0.549782           -0.000312969332                         0           
       0.550461           -0.000312990811                         0           
       0.551140            0.000438000899            0.000573591593           
       0.551819           -0.000313033773                         0           
       0.552498            0.000480114616            0.000620802365           
       0.553177           -0.000313076475                         0           
       0.553856           -0.000313097718                         0           
       0.554536            -0.00031311903                         0           
       0.555215           -0.000313140666                         0           
       0.555894           -0.000313162252                         0           
       0.556573           -0.000313183967                         0           
       0.557252           -0.000313205663                         0           
       0.557931           -0.000313227261                         0           
       0.558611           -0.000313249363                         0           
       0.559290           -0.000313270904                         0           
       0.559969           -0.000313291915                         0           
       0.560648           -0.000313313483                         0           
       0.561327           -0.000313335531                         0           
       0.562006           -0.000313357478                         0           
       0.562686            0.000871346937             0.00101615508           
       0.563365             0.00066706198            0.000810973983           
       0.564044           -0.000313423404                         0           
       0.564723           -0.000313445284                         0           
       0.565402           -0.000313466756                         0           
       0.566081           -0.000313488371                         0           
       0.566761           -0.000313510218                         0           
       0.567440            -0.00031353251                         0           
       0.568119           -0.000313554625                         0           
       0.568798           -0.000313577052                         0           
       0.569477           -0.000313599334                         0           
       0.570156           -0.000313621724                         0           
       0.570836           -0.000313644031                         0           
       0.571515           -0.000313665865                         0           
       0.572194           -0.000313688333                         0           
       0.572873           -0.000313710286                         0           
       0.573552            -0.00031373211                         0           
       0.574231           -0.000313754378                         0           
       0.574911           -0.000313777206                         0           
       0.575590           -0.000313799595                         0           
       0.576269           -0.000313821915                         0           
       0.576948           -0.000313844664                         0           
       0.577627            -0.00031386672                         0           
       0.578306           -0.000313889086                         0           
       0.578985           -0.000313911644                         0           
       0.579665           -0.000313934072                         0           
       0.580344            -0.00031395684                         0           
       0.581023           -0.000313979582                         0           
       0.581702           -0.000314002114                         0           
       0.582381           -0.000314024442                         0           
       0.583060           -0.000314047436                         0           
       0.583740           -0.000314070068                         0           
       0.584419           -0.000314092776                         0           
       0.585098           -0.000314115456                         0           
       0.585777           -0.000314138314                         0           
       0.586456           -0.000314161543                         0           
       0.587135           -0.000314184154                         0           
       0.587815           -0.000314206522                         0           
       0.588494           -0.000314229586                         0           
       0.589173            -0.00031425318                         0           
       0.589852           -0.000314275521                         0           
       0.590531             0.00530411315             0.00545148508           
       0.591210           -0.000314321351                         0           
       0.591890           -0.000314344436                         0           
       0.592569           -0.000314366749                         0           
       0.593248           -0.000314391144                         0           
       0.593927           -0.000314414337                         0           
       0.594606           -0.000314438007                         0           
       0.595285           -0.000314460268                         0           
       0.595965            -0.00031448104                         0           
       0.596644           -0.000314502416                         0           
