################################################################################
# EDF_DataBlockID                     0.Image.Psd
# EDF_BinarySize                      4366944
# EDF_HeaderSize                      2560
# ByteOrder                           LowByteFirst
# DataType                            FloatValue
# Dim_1                               1028
# Dim_2                               1062
# Image                               0
# HeaderID                            EH:000000:000000:000000
# Size                                4366944
# Center_1                            607.5200
# Center_2                            651.5500
# Comment                             Xenocs_Cell_Window - 20251028_20perc_iodine_1.23mg
# DDummy                              0.6
# Date                                2025-10-30T15:12:09
# Delta                               0
# Dummy                               -1.5
# ExposureTime                        360
# Gamma                               0
# Intensity1                          8.44692e-10
# PSize_1                             7.5e-05
# PSize_2                             7.5e-05
# Pressure                            0.0326672
# SampleDistance                      0.450002
# SampleEnvKind                       large
# SampleEnvPN                         ElectroChemical cell
# SampleEnvSN                         1141
# Thickness                           0
# Wavelength                          1.541891e-10
# Wavelength                          1.54189e-10
# aux                                 0
# aux_dial                            0.002375
# beamx                               588.434
# beamx_dial                          588.434
# beamz                               657.808
# beamz_dial                          657.808
# det0x                               0
# det0x_dial                          6.36945
# det0xvd                             0
# det0xvd_dial                        0
# det0y                               450.002
# det0y_dial                          481.635
# det0z                               0
# det0z_dial                          1.23302
# det0zvd                             0
# det0zvd_dial                        0
# mag                                 1.818
# mag_dial                            1.818
# om                                  0.2499
# om_dial                             -0.610199
# phi                                 -0.0120535
# phi_dial                            0
# ry                                  0.599993
# ry_dial                             0.599993
# s1bot                               0.8
# s1bot_dial                          -1.66094
# s1hl                                0.8
# s1hl_dial                           -0.608437
# s1hr                                0.8
# s1hr_dial                           0.970938
# s1top                               0.8
# s1top_dial                          -0.461562
# s2bot                               0.45
# s2bot_dial                          1.36109
# s2hl                                0.45
# s2hl_dial                           -0.83375
# s2hr                                0.45
# s2hr_dial                           -0.118594
# s2top                               0.45
# s2top_dial                          1.44734
# w2theta                             32
# w2theta_dial                        32
# waxsch                              19.2605
# waxsch_dial                         -32.7355
# waxsh                               137.085
# waxsh_dial                          -43.5338
# waxsth                              26.0607
# waxsth_dial                         -19.4086
# waxsz                               67.0407
# waxsz_dial                          -23.7954
# wind                                65.9854
# wind_dial                           66.0041
# wpsi                                124
# wpsi_dial                           124
# wstod                               115
# wstod_dial                          115
# x                                   0
# x_dial                              1.00969
# z                                   0
# z_dial                              13.3172
# CountCutoff                         15302352
# DetectorModel                       Dectris EIGER2 Si 1M, S/N E-02-0362
# ThresholdSetting                    4023.88989258
# Saturation                          0
# FlatField                           Corrected
# BackgroundReductionExtra            0.02
# BackgroundCorrectionConstant        0.0026712
# Detector                            0
# Monitor                             0
# Pil_Roi0                            0
# SumForIntensity1                    3.04089e+08
# TransmittedFlux                     844692
# det                                 0
# mon                                 0
# pilai0                              3.04089e+08
# pilai1                              776157
# pilct0                              5.26348e+08
# pilct1                              776157
# pilroi0                             0
# pilroi1                             0
# sec                                 1
# title                               20251028_20perc_iodine_1.23mg_0_00444.edf
# usaxs0                              0
# Operation                           Azimuthal average I(q)
# Error_model                         ErrorModel.poisson
# Geometrical_correction              True
# Transmission_correction             True
# Thickness_correction                False
# Binning mode                        Uniform
# Binning factor                      1.0
# Psi                                 0.0
# Omega                               0.2499
# MaskInvalidPixels                   True
# DetectorEdge                        3
# MaskFiles                           ['20251028_20perc_iodine_1.23mg_0_00012_mask.edf']
################################################################################
    q(A⁻¹)                Intensity(a.u.)            Sigma_I(a.u.)            
       0.000340                372646.477                 121.26644           
       0.001019                359503.056                72.9388749           
       0.001698                350304.681                50.9114861           
       0.002377                331160.975                44.2748832           
       0.003056                307830.655                36.0769516           
       0.003735                253163.333                 28.853743           
       0.004415                204777.379                25.9503279           
       0.005094                152878.998                19.4180908           
       0.005773                100886.017                 14.604102           
       0.006452                58770.6498                10.6799417           
       0.007131                32358.6134                7.67700818           
       0.007810                16261.1458                5.40079291           
       0.008490                8181.69903                3.39575419           
       0.009169                3984.21359                2.34194376           
       0.009848                1232.53209                1.25938884           
       0.010527                478.401132               0.784615866           
       0.011206                120.915485               0.376474406           
       0.011885                55.6362537               0.237269275           
       0.012564                25.1314752               0.163720599           
       0.013244                 16.978264               0.125805882           
       0.013923                12.5619091               0.109959256           
       0.014602                9.63014851              0.0892905268           
       0.015281                7.45919523              0.0799951679           
       0.015960                 6.0556762              0.0715607721           
       0.016639                4.92703603              0.0609538561           
       0.017319                4.17424128              0.0552318853           
       0.017998                3.43284264              0.0479180796           
       0.018677                2.98407478              0.0462724459           
       0.019356                2.45476198               0.041468794           
       0.020035                2.12041845              0.0361593617           
       0.020714                1.90932224              0.0346754271           
       0.021394                1.57686883              0.0298160316           
       0.022073                1.44201096              0.0296650918           
       0.022752                1.27088289              0.0266408274           
       0.023431                1.10295449              0.0240907896           
       0.024110               0.986703926              0.0237559484           
       0.024789               0.909523233              0.0211819551           
       0.025469               0.841488097              0.0209959342           
       0.026148               0.761298366              0.0187639211           
       0.026827               0.659319904              0.0177414497           
       0.027506               0.607747852              0.0172790855           
       0.028185               0.547761903              0.0156437642           
       0.028864               0.530984877              0.0153159075           
       0.029544               0.475394455              0.0140531757           
       0.030223               0.442583532              0.0137539803           
       0.030902               0.393522339              0.0130879521           
       0.031581               0.374549394              0.0121379006           
       0.032260               0.356448719              0.0120427359           
       0.032939               0.323388608              0.0110602308           
       0.033619               0.301954035              0.0108444745           
       0.034298               0.260456532             0.00980146293           
       0.034977               0.259045167             0.00958277386           
       0.035656               0.243306604             0.00953289885           
       0.036335               0.226729228             0.00892518879           
       0.037014               0.205121593              0.0085145728           
       0.037693               0.203666018             0.00816179316           
       0.038373               0.169219078              0.0075126316           
       0.039052               0.182836628             0.00784229007           
       0.039731               0.147689112              0.0068840612           
       0.040410               0.158971791             0.00709429054           
       0.041089               0.142977566             0.00662256349           
       0.041768               0.151531514             0.00685341031           
       0.042448               0.144159436             0.00663275149           
       0.043127               0.138845213             0.00635561292           
       0.043806               0.112813539             0.00577163396           
       0.044485               0.111580183             0.00562207878           
       0.045164               0.116650915             0.00586170232           
       0.045843               0.121385621             0.00573504503           
       0.046523               0.112660958             0.00554417624           
       0.047202              0.0982310732             0.00521313508           
       0.047881              0.0975483507             0.00509480578           
       0.048560              0.0983448154              0.0051621897           
       0.049239              0.0966171234             0.00491290245           
       0.049918              0.0904473601             0.00484637613           
       0.050598              0.0917148163             0.00480699592           
       0.051277                0.08891966             0.00471815941           
       0.051956              0.0869634003             0.00463666967           
       0.052635              0.0740124964             0.00418672649           
       0.053314              0.0819789811             0.00453511934           
       0.053993               0.080398514             0.00436800984           
       0.054673              0.0721174797              0.0040447935           
       0.055352              0.0743245839             0.00416653546           
       0.056031              0.0719745668             0.00401398736           
       0.056710              0.0690210452              0.0040270896           
       0.057389              0.0635037397             0.00372492314           
       0.058068              0.0675288288             0.00388075486           
       0.058748              0.0624033199             0.00377710781           
       0.059427              0.0580348313             0.00358083198           
       0.060106              0.0611753745             0.00371123973           
       0.060785              0.0611172237             0.00359833086           
       0.061464              0.0672539542             0.00386564648           
       0.062143              0.0554693853               0.003475007           
       0.062822              0.0644564402             0.00370199374           
       0.063502              0.0568382014             0.00347013262           
       0.064181              0.0580440434             0.00346971897           
       0.064860              0.0517074191             0.00332473309           
       0.065539              0.0498751253             0.00323336493           
       0.066218              0.0457402008             0.00303013329           
       0.066897               0.043897745             0.00299139343           
       0.067577              0.0511912953             0.00326139148           
       0.068256              0.0471483122             0.00320683984           
       0.068935              0.0513572875             0.00329280143           
       0.069614              0.0424078699             0.00302196668           
       0.070293              0.0513840536             0.00335712062           
       0.070972              0.0499863771             0.00328690427           
       0.071652              0.0452735699             0.00313385904           
       0.072331              0.0399798265             0.00289246148           
       0.073010              0.0390025059             0.00292216622           
       0.073689              0.0430822158             0.00305432035           
       0.074368              0.0410538272             0.00297612957           
       0.075047              0.0388888882             0.00286546109           
       0.075727              0.0367143802             0.00276699992           
       0.076406              0.0391216635             0.00291326219           
       0.077085              0.0349538353             0.00270224772           
       0.077764              0.0386402218             0.00283121659           
       0.078443              0.0372162587             0.00279576226           
       0.079122               0.037309008             0.00277235248           
       0.079802              0.0368044703             0.00278274687           
       0.080481              0.0369773581             0.00269518789           
       0.081160              0.0323657887             0.00257327231           
       0.081839               0.038450012             0.00275982632           
       0.082518              0.0369748622             0.00270864695           
       0.083197              0.0371431065             0.00267262021           
       0.083876              0.0334801231             0.00249525282           
       0.084556              0.0337935155              0.0025766239           
       0.085235              0.0294615352             0.00235933261           
       0.085914               0.029520525             0.00238463548           
       0.086593              0.0348379729               0.002573844           
       0.087272              0.0329244749             0.00246679207           
       0.087951              0.0344702072             0.00258104851           
       0.088631              0.0313864759             0.00237900534           
       0.089310              0.0323517183             0.00246653691           
       0.089989              0.0368970285             0.00260331939           
       0.090668              0.0274535551             0.00227038035           
       0.091347              0.0309575128             0.00242441588           
       0.092026              0.0266593778             0.00215047057           
       0.092706              0.0285677983             0.00230691281           
       0.093385              0.0288648125             0.00228326474           
       0.094064              0.0323674658             0.00244597282           
       0.094743              0.0276378103             0.00222576795           
       0.095422              0.0313287922             0.00234331048           
       0.096101              0.0301184079             0.00234491753           
       0.096781              0.0266155167             0.00217277965           
       0.097460              0.0304493513             0.00226061038           
       0.098139              0.0267025353             0.00210067239           
       0.098818              0.0326274305             0.00229346459           
       0.099497              0.0310221156             0.00224092369           
       0.100176              0.0270999679             0.00203950748           
       0.100856              0.0251764722             0.00196453589           
       0.101535              0.0257759948             0.00198395511           
       0.102214              0.0310453052             0.00217733262           
       0.102893              0.0297562348             0.00210736195           
       0.103572              0.0248786791             0.00189845437           
       0.104251              0.0247290396             0.00189972858           
       0.104931              0.0292368344             0.00204682711           
       0.105610              0.0262945362             0.00194938385           
       0.106289              0.0272438608             0.00195124031           
       0.106968              0.0232308951             0.00180715909           
       0.107647              0.0267726322             0.00194119663           
       0.108326              0.0256599531             0.00187500649           
       0.109005              0.0256417751             0.00186254939           
       0.109685              0.0251371695             0.00182344615           
       0.110364              0.0202204554              0.0016539985           
       0.111043              0.0256747846              0.0018563834           
       0.111722              0.0235723832             0.00175701325           
       0.112401              0.0229113221             0.00173701829           
       0.113080               0.022892886             0.00171642194           
       0.113760              0.0227725463             0.00174049813           
       0.114439              0.0216128805             0.00167140347           
       0.115118              0.0250924318             0.00178734855           
       0.115797              0.0198286117             0.00160357344           
       0.116476              0.0202845516             0.00159762977           
       0.117155              0.0233121904             0.00172652823           
       0.117835              0.0210022732             0.00160618163           
       0.118514              0.0220490375              0.0016665883           
       0.119193              0.0229595727             0.00170066409           
       0.119872              0.0209116705             0.00160274828           
       0.120551              0.0208586954             0.00159005438           
       0.121230              0.0204283541             0.00155773118           
       0.121910              0.0241136766             0.00170877438           
       0.122589              0.0232943246             0.00168122315           
       0.123268              0.0197053352             0.00151633761           
       0.123947              0.0212408998             0.00158449235           
       0.124626              0.0182473328             0.00145064321           
       0.125305              0.0220164191              0.0016012541           
       0.125985                 0.0208217             0.00154511911           
       0.126664              0.0215965464             0.00155861688           
       0.127343              0.0256735408             0.00171907645           
       0.128022              0.0207370931             0.00153314196           
       0.128701              0.0188348068             0.00145351921           
       0.129380              0.0233924177             0.00159957299           
       0.130059              0.0216306961             0.00154173301           
       0.130739              0.0204729145             0.00151045276           
       0.131418              0.0188466558             0.00144516303           
       0.132097               0.017914663             0.00139090749           
       0.132776              0.0187064407              0.0014148955           
       0.133455               0.021503145             0.00152876537           
       0.134134               0.023715418             0.00160036849           
       0.134814              0.0211426447             0.00149549923           
       0.135493              0.0208595434             0.00149146463           
       0.136172              0.0173931517             0.00135163284           
       0.136851              0.0193247479              0.0014329961           
       0.137530              0.0203126819             0.00143426388           
       0.138209              0.0199679204             0.00143873559           
       0.138889              0.0184731446             0.00138993713           
       0.139568              0.0220281003             0.00151713954           
       0.140247              0.0184213626             0.00138556967           
       0.140926              0.0172509703             0.00130249338           
       0.141605              0.0199384472             0.00143585364           
       0.142284              0.0192203389              0.0013863988           
       0.142964              0.0182096703             0.00135461728           
       0.143643              0.0180573808             0.00134723692           
       0.144322              0.0164278668             0.00125812274           
       0.145001               0.016928782              0.0013033751           
       0.145680              0.0194837437             0.00136519451           
       0.146359              0.0187454392             0.00134397712           
       0.147039              0.0181718894             0.00133415093           
       0.147718              0.0191725024             0.00134777731           
       0.148397              0.0188108827             0.00135575147           
       0.149076              0.0175361661              0.0012684019           
       0.149755              0.0189601292             0.00133925949           
       0.150434              0.0180157285             0.00130601216           
       0.151114              0.0206444113             0.00139031679           
       0.151793              0.0179020672             0.00129469696           
       0.152472              0.0197959853             0.00133741166           
       0.153151               0.018200044             0.00129476603           
       0.153830              0.0201137116             0.00135121799           
       0.154509              0.0162198469             0.00120833369           
       0.155188              0.0192848653             0.00131707729           
       0.155868              0.0189186647             0.00129522933           
       0.156547              0.0163834759             0.00121306825           
       0.157226              0.0161867192             0.00117631193           
       0.157905              0.0177331002             0.00124156104           
       0.158584              0.0159665912             0.00117595886           
       0.159263              0.0169442941             0.00121588585           
       0.159943              0.0172216608             0.00122671129           
       0.160622              0.0170718116             0.00119779214           
       0.161301              0.0173484121             0.00122360662           
       0.161980              0.0176677799             0.00121382526           
       0.162659               0.018948004             0.00127096643           
       0.163338              0.0182797632             0.00123817881           
       0.164018              0.0144477011             0.00109499473           
       0.164697               0.016603169             0.00118891044           
       0.165376              0.0194542236             0.00125882862           
       0.166055              0.0170697771             0.00118693889           
       0.166734              0.0177555206             0.00120512288           
       0.167413              0.0181532099             0.00121939751           
       0.168093              0.0181011312             0.00122916524           
       0.168772              0.0166653929             0.00114491927           
       0.169451              0.0183437256             0.00122328749           
       0.170130              0.0177010248             0.00118589081           
       0.170809              0.0160311113              0.0011420352           
       0.171488              0.0165176033             0.00114866653           
       0.172168              0.0171311353             0.00115856712           
       0.172847              0.0167098434              0.0011592632           
       0.173526              0.0179287004             0.00117789175           
       0.174205              0.0163784707             0.00113100158           
       0.174884              0.0160688628             0.00111442279           
       0.175563              0.0168271713             0.00114528427           
       0.176243              0.0160431388             0.00112947622           
       0.176922              0.0171659791             0.00113788648           
       0.177601              0.0164094874             0.00112475756           
       0.178280               0.014983116             0.00106276523           
       0.178959              0.0165978103             0.00112756311           
       0.179638              0.0163579606             0.00111616295           
       0.180317              0.0173228853             0.00114024385           
       0.180997              0.0137842526             0.00102265729           
       0.181676              0.0151409727             0.00106035959           
       0.182355              0.0151699983                0.00106775           
       0.183034              0.0170104212             0.00111251974           
       0.183713              0.0165990164             0.00111236794           
       0.184392              0.0174801788             0.00114116601           
       0.185072              0.0171543489             0.00111759668           
       0.185751              0.0170151694             0.00111615018           
       0.186430              0.0165632473             0.00109351492           
       0.187109              0.0191204376             0.00118798453           
       0.187788              0.0174910415             0.00113343778           
       0.188467              0.0165966706             0.00109101367           
       0.189147              0.0160743369             0.00108458148           
       0.189826              0.0174683877             0.00111064023           
       0.190505               0.013754031             0.00100173504           
       0.191184              0.0168185623             0.00109176101           
       0.191863              0.0154712305             0.00104932382           
       0.192542               0.015183749             0.00104933201           
       0.193222              0.0167089141             0.00107610389           
       0.193901              0.0162479704             0.00107538032           
       0.194580              0.0163793232             0.00106083143           
       0.195259              0.0140904609            0.000995222926           
       0.195938              0.0165590119             0.00108146013           
       0.196617              0.0160956648             0.00105133932           
       0.197297               0.015544193             0.00103739036           
       0.197976              0.0186611915              0.0011191933           
       0.198655              0.0144157491            0.000994424976           
       0.199334              0.0149809725             0.00100479281           
       0.200013              0.0168196094             0.00106407833           
       0.200692              0.0149411256             0.00100893167           
       0.201371              0.0163259329             0.00104277413           
       0.202051              0.0160254765             0.00103634694           
       0.202730              0.0153777444             0.00100504735           
       0.203409              0.0153598327             0.00101120463           
       0.204088              0.0136371255            0.000951758124           
       0.204767              0.0177549614             0.00108028023           
       0.205446              0.0159645032              0.0010263656           
       0.206126              0.0157310541             0.00100499167           
       0.206805              0.0167752163             0.00105683505           
       0.207484               0.014571475            0.000967266875           
       0.208163               0.015270881            0.000996158647           
       0.208842              0.0155008379              0.0010009113           
       0.209521               0.017125189             0.00104330514           
       0.210201              0.0147000843             0.00097740176           
       0.210880              0.0131077579            0.000904837323           
       0.211559               0.013896972            0.000945454114           
       0.212238              0.0162227633              0.0010163124           
       0.212917              0.0154242599            0.000987302836           
       0.213596              0.0152824408            0.000988564351           
       0.214276               0.015683742            0.000980595654           
       0.214955              0.0132198656            0.000919214455           
       0.215634              0.0139800426            0.000938498977           
       0.216313               0.015374514            0.000982126301           
       0.216992              0.0161631139             0.00100674709           
       0.217671              0.0148808779            0.000959445736           
       0.218351               0.014927532             0.00097034679           
       0.219030              0.0142812164            0.000934126446           
       0.219709              0.0134611791            0.000912567984           
       0.220388              0.0146075026            0.000949409075           
       0.221067                0.01345136            0.000911785469           
       0.221746              0.0142941039            0.000938951036           
       0.222426              0.0159528117            0.000977110375           
       0.223105              0.0152991578             0.00096991893           
       0.223784              0.0134727976            0.000901158565           
       0.224463              0.0150571165            0.000960258369           
       0.225142              0.0149930338            0.000943051456           
       0.225821              0.0141344959            0.000919341007           
       0.226500              0.0138508583            0.000915856581           
       0.227180              0.0149341048            0.000936344778           
       0.227859              0.0142355225            0.000918283661           
       0.228538              0.0141821844            0.000907358088           
       0.229217              0.0137675018            0.000901070662           
       0.229896              0.0149848892            0.000939612781           
       0.230575              0.0134187173            0.000874981617           
       0.231255              0.0163741991            0.000981018988           
       0.231934              0.0142839907            0.000910007337           
       0.232613              0.0143925072            0.000916827612           
       0.233292              0.0142308342             0.00090285529           
       0.233971              0.0129079656            0.000859466876           
       0.234650              0.0149098745            0.000934578479           
       0.235330               0.014523357            0.000914330554           
       0.236009              0.0142758905            0.000904553359           
       0.236688              0.0147580037            0.000916409095           
       0.237367              0.0131946795            0.000867771383           
       0.238046              0.0144888001             0.00091573519           
       0.238725              0.0147544586            0.000909835525           
       0.239405              0.0158443431            0.000948687339           
       0.240084              0.0147439915             0.00090932527           
       0.240763              0.0150941631            0.000928870047           
       0.241442              0.0149466593            0.000911296235           
       0.242121              0.0145072382            0.000899495264           
       0.242800              0.0144678867            0.000902527092           
       0.243480              0.0121071074             0.00082174984           
       0.244159              0.0127376374            0.000843284196           
       0.244838              0.0157576904            0.000922508108           
       0.245517              0.0129564716            0.000848535321           
       0.246196              0.0138457082            0.000877593703           
       0.246875              0.0139055169            0.000867227241           
       0.247554              0.0125790437            0.000833210448           
       0.248234              0.0133689243            0.000845947535           
       0.248913              0.0137900298            0.000868804798           
       0.249592               0.011487975             0.00078544319           
       0.250271              0.0137231733             0.00085596777           
       0.250950              0.0141005032            0.000872969995           
       0.251629              0.0149810008            0.000892165463           
       0.252309              0.0138056124            0.000858189839           
       0.252988              0.0141437974            0.000853674775           
       0.253667              0.0142163288            0.000865860607           
       0.254346              0.0141137081            0.000862552297           
       0.255025              0.0146291692            0.000876238468           
       0.255704               0.013255422            0.000830262818           
       0.256384              0.0137710558            0.000843329646           
       0.257063              0.0142485625             0.00086271699           
       0.257742              0.0134213014            0.000831496675           
       0.258421               0.012699759            0.000807279975           
       0.259100              0.0127017695            0.000808751757           
       0.259779              0.0144102278            0.000860696902           
       0.260459              0.0133927549            0.000831384266           
       0.261138               0.012212889            0.000778403692           
       0.261817              0.0138719842            0.000846338833           
       0.262496              0.0118662818            0.000775089943           
       0.263175               0.013334141            0.000823396665           
       0.263854              0.0134233231            0.000822307411           
       0.264534              0.0119009611             0.00076766202           
       0.265213              0.0126831497            0.000804976501           
       0.265892              0.0106826939            0.000729306372           
       0.266571               0.011668692            0.000760487283           
       0.267250              0.0132976284            0.000813202956           
       0.267929              0.0131703313            0.000808471392           
       0.268609              0.0136728341            0.000828260565           
       0.269288              0.0120463248            0.000764521676           
       0.269967              0.0128563803            0.000798318247           
       0.270646              0.0120536444            0.000769652083           
       0.271325              0.0112528397            0.000744888159           
       0.272004              0.0119900169            0.000761235402           
       0.272683              0.0122234518            0.000769559668           
       0.273363              0.0129239419            0.000796349932           
       0.274042              0.0117052363            0.000753401768           
       0.274721              0.0124503154            0.000776549527           
       0.275400              0.0124116209            0.000770208304           
       0.276079              0.0109044412            0.000726030223           
       0.276758              0.0120495729            0.000772832096           
       0.277438              0.0114017492            0.000743331375           
       0.278117              0.0118263756             0.00077081238           
       0.278796              0.0113329551            0.000746902088           
       0.279475              0.0125310764            0.000798365892           
       0.280154              0.0122182278            0.000776997313           
       0.280833              0.0109112734            0.000738730787           
       0.281513              0.0127259736            0.000810316336           
       0.282192              0.0123374815            0.000784240386           
       0.282871              0.0103105041             0.00072193833           
       0.283550              0.0107927678            0.000742587646           
       0.284229              0.0113207934            0.000771706216           
       0.284908              0.0114854278            0.000785496002           
       0.285588              0.0103284027            0.000736158512           
       0.286267               0.011582114            0.000792040531           
       0.286946              0.0108424826            0.000761350061           
       0.287625              0.0114428536            0.000795462203           
       0.288304              0.0115026355            0.000786862699           
       0.288983             0.00948853453            0.000723710823           
       0.289663              0.0103954716            0.000761942229           
       0.290342               0.010155016             0.00074906976           
       0.291021              0.0106719206             0.00077203453           
       0.291700             0.00919331375             0.00070719739           
       0.292379              0.0103513362             0.00076759885           
       0.293058              0.0105665195            0.000772606776           
       0.293738              0.0118277872            0.000810553963           
       0.294417             0.00968811393            0.000742110515           
       0.295096              0.0100078387            0.000745964818           
       0.295775             0.00958278171            0.000741099265           
       0.296454              0.0120547709            0.000820457468           
       0.297133              0.0110064324            0.000787679745           
       0.297812              0.0104865853            0.000772709402           
       0.298492              0.0101734406            0.000762555337           
       0.299171              0.0109969348            0.000791317632           
       0.299850             0.00933454593            0.000724078785           
       0.300529              0.0100793056            0.000760885454           
       0.301208              0.0094781741            0.000739642456           
       0.301887             0.00957013397            0.000742338715           
       0.302567             0.00867109699            0.000703071606           
       0.303246             0.00960108383            0.000744644313           
       0.303925             0.00986009218            0.000764310765           
       0.304604             0.00930783793            0.000726563381           
       0.305283             0.00953882904            0.000746432318           
       0.305962             0.00878603292            0.000712045456           
       0.306642             0.00974300661            0.000760005021           
       0.307321             0.00974106775            0.000757502793           
       0.308000              0.0102361225            0.000767308735           
       0.308679               0.008967083            0.000733723655           
       0.309358             0.00907402401            0.000728101699           
       0.310037             0.00788244597            0.000680125629           
       0.310717             0.00820876106            0.000693392923           
       0.311396             0.00851793825            0.000711067413           
       0.312075             0.00856543087            0.000722089234           
       0.312754              0.0100091104            0.000764958055           
       0.313433             0.00971290922             0.00076010801           
       0.314112              0.0076354142            0.000673778648           
       0.314792              0.0102099271            0.000784636222           
       0.315471             0.00838008714            0.000702064582           
       0.316150             0.00975109265            0.000764328942           
       0.316829             0.00931694118            0.000752053617           
       0.317508             0.00809098264            0.000692965962           
       0.318187             0.00848648211             0.00071906262           
       0.318866             0.00898500294            0.000729914167           
       0.319546             0.00993710769            0.000779119942           
       0.320225             0.00846920102            0.000719290017           
       0.320904             0.00896209728            0.000728484122           
       0.321583              0.0088897456            0.000741524609           
       0.322262             0.00717762695            0.000656203904           
       0.322941             0.00742349324            0.000675898085           
       0.323621             0.00751549265            0.000675923068           
       0.324300             0.00795049904            0.000695754449           
       0.324979             0.00754103576            0.000678826428           
       0.325658             0.00825568275            0.000711552434           
       0.326337             0.00754877664            0.000681294996           
       0.327016             0.00851910312            0.000719163908           
       0.327696             0.00737265698            0.000676466694           
       0.328375              0.0080874088            0.000702520198           
       0.329054             0.00886849191            0.000739653178           
       0.329733             0.00725706289             0.00067153217           
       0.330412             0.00694013421            0.000651324241           
       0.331091             0.00741473025            0.000685438122           
       0.331771             0.00735471191            0.000664770468           
       0.332450             0.00684956812            0.000653990724           
       0.333129             0.00600815204            0.000610925644           
       0.333808             0.00664457122             0.00064331697           
       0.334487             0.00727597044            0.000676380772           
       0.335166             0.00735659933            0.000670164387           
       0.335846             0.00826477144            0.000722809541           
       0.336525             0.00748635374             0.00068113705           
       0.337204             0.00808611928            0.000709751757           
       0.337883             0.00729293607            0.000674936481           
       0.338562             0.00668705227            0.000649878904           
       0.339241             0.00741074948            0.000685423805           
       0.339921             0.00592664963            0.000602681566           
       0.340600             0.00616522111            0.000626365362           
       0.341279             0.00628068074            0.000625433476           
       0.341958             0.00646130392            0.000643312774           
       0.342637             0.00645615433            0.000633971805           
       0.343316             0.00593446651            0.000609578165           
       0.343995             0.00602013633            0.000624015442           
       0.344675             0.00609484082            0.000616336321           
       0.345354             0.00743616804            0.000685277505           
       0.346033             0.00765152703            0.000693317798           
       0.346712              0.0074378676            0.000687930966           
       0.347391             0.00656810807            0.000650461434           
       0.348070              0.0055504534            0.000589459272           
       0.348750             0.00734679793            0.000687969283           
       0.349429             0.00701989199            0.000663807339           
       0.350108             0.00739434169            0.000689479667           
       0.350787             0.00611047372            0.000616123236           
       0.351466              0.0046429017            0.000546955914           
       0.352145             0.00658618557             0.00065198079           
       0.352825             0.00574891577            0.000606372045           
       0.353504             0.00606641643            0.000622738603           
       0.354183             0.00698445761            0.000660500912           
       0.354862             0.00535870984             0.00059198892           
       0.355541             0.00668041026            0.000652318544           
       0.356220             0.00677099703             0.00065796688           
       0.356900             0.00508614737             0.00057567562           
       0.357579             0.00558877071            0.000596050861           
       0.358258             0.00627891634            0.000640525327           
       0.358937             0.00539236093            0.000582426074           
       0.359616             0.00665743282            0.000656186653           
       0.360295             0.00641355358            0.000644592142           
       0.360975             0.00513712092            0.000574426121           
       0.361654             0.00620968258            0.000634807778           
       0.362333             0.00602800616            0.000622272291           
       0.363012              0.0058668382            0.000621795826           
       0.363691             0.00492561247            0.000558498461           
       0.364370             0.00597595183             0.00062280189           
       0.365050             0.00462508171             0.00054497417           
       0.365729             0.00582384829            0.000617365888           
       0.366408             0.00513662459            0.000581081525           
       0.367087             0.00456889991            0.000539239827           
       0.367766             0.00530489394            0.000593158031           
       0.368445             0.00549462063            0.000592953906           
       0.369124             0.00558470795            0.000602491148           
       0.369804             0.00517425956            0.000579000674           
       0.370483              0.0043091306            0.000530696055           
       0.371162             0.00484216358             0.00056582404           
       0.371841             0.00490753722            0.000559698986           
       0.372520             0.00578600021            0.000619913525           
       0.373199             0.00583207204            0.000614940943           
       0.373879             0.00479180005            0.000563859143           
       0.374558             0.00418350166            0.000519167131           
       0.375237             0.00536278957            0.000588767649           
       0.375916             0.00451096599            0.000550331766           
       0.376595             0.00463588274            0.000546995684           
       0.377274             0.00446765812            0.000545574831           
       0.377954             0.00458337604             0.00054391447           
       0.378633             0.00444765178            0.000542571727           
       0.379312             0.00457585772            0.000550197198           
       0.379991             0.00471181026            0.000555421074           
       0.380670              0.0040873051            0.000526448605           
       0.381349             0.00547044531            0.000600299311           
       0.382029             0.00441945699            0.000547292486           
       0.382708             0.00454038141            0.000542615591           
       0.383387             0.00435212879            0.000543286872           
       0.384066             0.00359706992            0.000489383762           
       0.384745             0.00443871967            0.000545767754           
       0.385424             0.00453988506            0.000553826829           
       0.386104              0.0042992136            0.000532991111           
       0.386783             0.00457241672            0.000561554541           
       0.387462             0.00386855701            0.000503678005           
       0.388141             0.00420041101            0.000533219454           
       0.388820             0.00487172006            0.000570099253           
       0.389499             0.00446494145            0.000548851943           
       0.390178             0.00444478409            0.000549792329           
       0.390858             0.00476569071            0.000564687011           
       0.391537             0.00458957974            0.000559813738           
       0.392216             0.00359995283            0.000489584396           
       0.392895             0.00403619573            0.000520146764           
       0.393574             0.00534969383            0.000597346615           
       0.394253             0.00412119007             0.00052665069           
       0.394933             0.00388386883            0.000517104427           
       0.395612             0.00473334048            0.000554278285           
       0.396291             0.00392659241            0.000515115678           
       0.396970             0.00451587959            0.000547523889           
       0.397649             0.00374810494            0.000500348777           
       0.398328             0.00378048219            0.000500296435           
       0.399008             0.00356962212            0.000485087475           
       0.399687             0.00326497886            0.000465730635           
       0.400366             0.00435642693             0.00053591457           
       0.401045             0.00328590617            0.000464553809           
       0.401724             0.00369384418            0.000493369217           
       0.402403              0.0038879014            0.000510108058           
       0.403083             0.00403554083            0.000512209325           
       0.403762             0.00347760764            0.000477829777           
       0.404441             0.00353255731            0.000484657336           
       0.405120             0.00496599265            0.000572752136           
       0.405799             0.00420606302             0.00052482045           
       0.406478             0.00340600773            0.000472287644           
       0.407158             0.00384471644            0.000500841251           
       0.407837             0.00437910013             0.00053923342           
       0.408516             0.00331527143            0.000465103135           
       0.409195             0.00366258267            0.000494404391           
       0.409874             0.00308252216            0.000459877851           
       0.410553             0.00387439792            0.000521119621           
       0.411233             0.00297977639            0.000454643487           
       0.411912             0.00357951743            0.000505361051           
       0.412591             0.00242032549             0.00041830324           
       0.413270             0.00224263993             0.00040074301           
       0.413949             0.00222053842            0.000403118746           
       0.414628             0.00258739413            0.000434364866           
       0.415307             0.00333094632            0.000498323567           
       0.415987             0.00282738841            0.000455330447           
       0.416666             0.00249076654            0.000424795212           
       0.417345             0.00243751354            0.000427247101           
       0.418024             0.00236394456            0.000420760839           
       0.418703             0.00302327883            0.000474960167           
       0.419382             0.00226182029            0.000408802644           
       0.420062             0.00351905689            0.000511343674           
       0.420741              0.0029074714            0.000467262518           
       0.421420             0.00292578218            0.000470509245           
       0.422099             0.00322872408            0.000494281004           
       0.422778             0.00311866983            0.000488414611           
       0.423457              0.0021459593            0.000407628737           
       0.424137             0.00236690678            0.000421122815           
       0.424816             0.00288075269            0.000474301039           
       0.425495             0.00208435299             0.00040306555           
       0.426174              0.0023967553            0.000432368388           
       0.426853              0.0026094374            0.000448403988           
       0.427532             0.00304156963            0.000488203969           
       0.428212             0.00269298164            0.000462409306           
       0.428891             0.00228364753            0.000424849859           
       0.429570             0.00284490096            0.000474516547           
       0.430249             0.00296971545            0.000482296927           
       0.430928             0.00270486042            0.000470353125           
       0.431607             0.00172282097            0.000368930547           
       0.432287              0.0028815287            0.000480623708           
       0.432966             0.00269162898            0.000468602579           
       0.433645             0.00213300641            0.000417586497           
       0.434324              0.0020162082            0.000403545249           
       0.435003             0.00169345311            0.000370469333           
       0.435682             0.00263823064            0.000466196966           
       0.436361             0.00345448655            0.000532749667           
       0.437041             0.00204959246             0.00040981252           
       0.437720             0.00174244489            0.000379682629           
       0.438399             0.00218078318            0.000426980293           
       0.439078             0.00206851657            0.000427903318           
       0.439757             0.00133433207            0.000341557941           
       0.440436             0.00360620251            0.000574164497           
       0.441116             0.00249432719              0.0004853244           
       0.441795             0.00183773759            0.000417080693           
       0.442474             0.00355936375            0.000582068155           
       0.443153              0.0033739437            0.000579925375           
       0.443832             0.00187918282            0.000433529979           
       0.444511             0.00184971606            0.000428179507           
       0.445191             0.00185496229            0.000439215741           
       0.445870             0.00227488226            0.000486409084           
       0.446549              0.0016700463            0.000421155199           
       0.447228             0.00145037274            0.000390262424           
       0.447907             0.00277181853            0.000545983541           
       0.448586             0.00182574941            0.000453778164           
       0.449266              0.0032150556            0.000596628544           
       0.449945             0.00196895764            0.000464999979           
       0.450624                0.00335209            0.000616361004           
       0.451303             0.00199412902            0.000481556691           
       0.451982              0.0013984455            0.000400774858           
       0.452661             0.00324520334             0.00062189226           
       0.453341              0.0022928377            0.000524566011           
       0.454020             0.00123815678            0.000386066953           
       0.454699              0.0027402218             0.00057958372           
       0.455378             0.00310534391            0.000617321172           
       0.456057             0.00246425381            0.000559699448           
       0.456736             0.00269827996            0.000583847296           
       0.457416             0.00335157965             0.00065071808           
       0.458095             0.00318887663            0.000643912769           
       0.458774             0.00180026353            0.000490205464           
       0.459453             0.00197001856            0.000515383036           
       0.460132             0.00187315755            0.000491700108           
       0.460811             0.00134940047            0.000432904371           
       0.461490             0.00184392863            0.000500903431           
       0.462170             0.00204616235            0.000535891659           
       0.462849             0.00195615627             0.00052737122           
       0.463528             0.00137960378            0.000441858858           
       0.464207             0.00216108384            0.000563369368           
       0.464886             0.00140428539            0.000450598953           
       0.465565             0.00232489183            0.000586149813           
       0.466245             0.00174729753            0.000509725386           
       0.466924            0.000918300971            0.000378255196           
       0.467603             0.00160904376            0.000490078286           
       0.468282             0.00154518706            0.000491643534           
       0.468961            0.000628702527            0.000315664743           
       0.469640             0.00159902332            0.000505428783           
       0.470320             0.00143730496            0.000479520416           
       0.470999            0.000798036251            0.000360679111           
       0.471678            0.000501524431             0.00028867572           
       0.472357             0.00183317081            0.000553447481           
       0.473036            0.000866592317            0.000382926183           
       0.473715            0.000865669906            0.000385716312           
       0.474395             0.00125418515            0.000470689902           
       0.475074             0.00126110263            0.000471999915           
       0.475753             0.00140417852            0.000493758052           
       0.476432            0.000603226204            0.000335407701           
       0.477111            0.000752437356              0.0003700703           
       0.477790            0.000944674672            0.000416873647           
       0.478470             0.00059984405            0.000336579834           
       0.479149            0.000641886283            0.000351776569           
       0.479828             0.00119189169            0.000478225454           
       0.480507            0.000656366399            0.000357746024           
       0.481186            6.62726951e-05            0.000116238571           
       0.481865            0.000473018383            0.000306697612           
       0.482545             0.00089644297            0.000427173535           
       0.483224            0.000499881623            0.000321169313           
       0.483903            0.000937813025            0.000446833939           
       0.484582            0.000102492176            0.000150120156           
       0.485261             0.00109750382            0.000478797343           
       0.485940            0.000119412246            0.000164304207           
       0.486619            0.000544856645            0.000347105536           
       0.487299            0.000333293106            0.000275805168           
       0.487978            0.000323747436            0.000269057405           
       0.488657             0.00039765814            0.000310497513           
       0.489336            0.000145406548            0.000184464675           
       0.490015            0.000602700243             0.00037850497           
       0.490694            0.000177976934            0.000211373867           
       0.491374             0.00062847139            0.000392360538           
       0.492053           -0.000323254775                         0           
       0.492732            -7.4467493e-05                         0           
       0.493411           -0.000323294125                         0           
       0.494090           -0.000323314057                         0           
       0.494769           -0.000323333603                         0           
       0.495449           -0.000323353425                         0           
       0.496128           -0.000323373308                         0           
       0.496807           -3.95920031e-05                         0           
       0.497486           -0.000323412819                         0           
       0.498165           -0.000323432951                         0           
       0.498844           -3.77269881e-05                         0           
       0.499524           -0.000323472701                         0           
       0.500203           -3.08312737e-05                         0           
       0.500882            -1.4259354e-05                         0           
       0.501561             0.00028061345            0.000292225812           
       0.502240           -0.000323552848                         0           
       0.502919             0.00031793713             0.00031919612           
       0.503599           -2.01171766e-05                         0           
       0.504278           -0.000323613527                         0           
       0.504957            3.51503373e-06            3.37896747e-05           
       0.505636            0.000312282965            0.000320654533           
       0.506315            1.35743304e-05            6.71295304e-05           
       0.506994           -0.000323694241                         0           
       0.507673           -0.000323714239                         0           
       0.508353            0.000671712807            0.000474875322           
       0.509032            4.59646914e-05            0.000130127549           
       0.509711           -0.000323775329                         0           
       0.510390           -0.000323795988                         0           
       0.511069            -0.00032381658                         0           
       0.511748            4.63596527e-05            0.000131302009           
       0.512428           -0.000323857742                         0           
       0.513107           -0.000323878079                         0           
       0.513786           -0.000323898479                         0           
       0.514465           -0.000323919227                         0           
       0.515144           -0.000323939961                         0           
       0.515823           -0.000323960507                         0           
       0.516503           -0.000323981245                         0           
       0.517182           -0.000324001981                         0           
       0.517861           -0.000324022666                         0           
       0.518540           -0.000324043468                         0           
       0.519219            -0.00032406415                         0           
       0.519898            0.000152467494            0.000268286211           
       0.520578           -0.000324106058                         0           
       0.521257           -0.000324126803                         0           
       0.521936           -0.000324147598                         0           
       0.522615            0.000153816865            0.000273800725           
       0.523294           -0.000324189764                         0           
       0.523973           -0.000324210594                         0           
       0.524653            0.000195702637            0.000320676098           
       0.525332           -0.000324252255                         0           
       0.526011           -0.000324273613                         0           
       0.526690            0.000162226481            0.000283527183           
       0.527369           -0.000324316073                         0           
       0.528048           -0.000324337365                         0           
       0.528728           -0.000324358632                         0           
       0.529407             -0.0003243798                         0           
       0.530086            -0.00032440086                         0           
       0.530765           -0.000324421949                         0           
       0.531444           -0.000324443266                         0           
       0.532123            -0.00032446496                         0           
       0.532802           -0.000324486477                         0           
       0.533482            -0.00032450792                         0           
       0.534161           -0.000324529398                         0           
       0.534840           -0.000324550692                         0           
       0.535519            -0.00032457238                         0           
       0.536198           -0.000324593844                         0           
       0.536877           -0.000324615012                         0           
       0.537557           -0.000324636544                         0           
       0.538236            -0.00032465827                         0           
       0.538915           -0.000324679988                         0           
       0.539594           -0.000324701677                         0           
       0.540273            0.000290462865            0.000426626894           
       0.540952           -0.000324745487                         0           
       0.541632           -0.000324766871                         0           
       0.542311           -0.000324788452                         0           
       0.542990            0.000391979196            0.000534238205           
       0.543669           -0.000324832278                         0           
       0.544348           -0.000324854257                         0           
       0.545027           -0.000324876188                         0           
       0.545707           -0.000324898186                         0           
       0.546386           -0.000324920244                         0           
       0.547065           -0.000324942039                         0           
       0.547744           -0.000324963932                         0           
       0.548423           -0.000324986067                         0           
       0.549102           -0.000325008224                         0           
       0.549782            -0.00032503027                         0           
       0.550461           -0.000325052577                         0           
       0.551140           -0.000325075018                         0           
       0.551819           -0.000325097194                         0           
       0.552498            -0.00032511956                         0           
       0.553177           -0.000325141542                         0           
       0.553856           -0.000325163603                         0           
       0.554536           -0.000325185736                         0           
       0.555215           -0.000325208207                         0           
       0.555894           -0.000325230625                         0           
       0.556573            0.000655474959            0.000799062242           
       0.557252           -0.000325275708                         0           
       0.557931           -0.000325298138                         0           
       0.558611           -0.000325321093                         0           
       0.559290           -0.000325343464                         0           
       0.559969           -0.000325365284                         0           
       0.560648           -0.000325387683                         0           
       0.561327           -0.000325410581                         0           
       0.562006           -0.000325433373                         0           
       0.562686           -0.000325456178                         0           
       0.563365           -0.000325479067                         0           
       0.564044            -0.00032550184                         0           
       0.564723           -0.000325524563                         0           
       0.565402           -0.000325546863                         0           
       0.566081            0.000956903558             0.00111985329           
       0.566761              -0.000325592                         0           
       0.567440           -0.000325615151                         0           
       0.568119           -0.000325638119                         0           
       0.568798           -0.000325661409                         0           
       0.569477            0.000910611326             0.00107541546           
       0.570156           -0.000325707803                         0           
       0.570836           -0.000325730969                         0           
       0.571515           -0.000325753645                         0           
       0.572194           -0.000325776979                         0           
       0.572873           -0.000325799778                         0           
       0.573552           -0.000325822444                         0           
       0.574231           -0.000325845569                         0           
       0.574911           -0.000325869277                         0           
       0.575590           -0.000325892528                         0           
       0.576269           -0.000325915709                         0           
       0.576948           -0.000325939335                         0           
       0.577627            -0.00032596224                         0           
       0.578306           -0.000325985469                         0           
       0.578985           -0.000326008896                         0           
       0.579665           -0.000326032188                         0           
       0.580344           -0.000326055833                         0           
       0.581023           -0.000326079452                         0           
       0.581702           -0.000326102853                         0           
       0.582381             0.00233413462             0.00248899236           
       0.583060           -0.000326149921                         0           
       0.583740           -0.000326173425                         0           
       0.584419           -0.000326197008                         0           
       0.585098           -0.000326220563                         0           
       0.585777           -0.000326244301                         0           
       0.586456           -0.000326268425                         0           
       0.587135             0.00351145866              0.0036611602           
       0.587815           -0.000326315137                         0           
       0.588494           -0.000326339091                         0           
       0.589173           -0.000326363594                         0           
       0.589852           -0.000326386795                         0           
       0.590531           -0.000326410871                         0           
       0.591210           -0.000326434392                         0           
       0.591890           -0.000326458366                         0           
       0.592569           -0.000326481539                         0           
       0.593248           -0.000326506874                         0           
       0.593927           -0.000326530961                         0           
       0.594606           -0.000326555544                         0           
       0.595285           -0.000326578662                         0           
       0.595965           -0.000326600235                         0           
       0.596644           -0.000326622434                         0           
