################################################################################
# EDF_DataBlockID                     0.Image.Psd
# EDF_BinarySize                      2105344
# EDF_HeaderSize                      2560
# ByteOrder                           LowByteFirst
# DataType                            FloatValue
# Dim_1                               512
# Dim_2                               1028
# Image                               0
# HeaderID                            EH:000000:000000:000000
# Size                                2105344
# Center_1                            304.9000
# Center_2                            588.7000
# Comment                             Xenocs_Cell_Window - 20251028_20perc_iodine_1.23mg
# DDummy                              0.6
# Date                                2025-10-31T08:15:13
# Delta                               21.910000
# Dummy                               -1.5
# ExposureTime                        360
# Gamma                               15.360000
# Intensity1                          8.5343e-10
# PSize_1                             7.5e-05
# PSize_2                             7.5e-05
# Pressure                            0.0329666
# SampleDistance                      0.115750
# SampleEnvKind                       large
# SampleEnvPN                         ElectroChemical cell
# SampleEnvSN                         1141
# Thickness                           0
# Wavelength                          1.541891e-10
# Wavelength                          1.54189e-10
# aux                                 0
# aux_dial                            0.002375
# beamx                               588.434
# beamx_dial                          588.434
# beamz                               657.808
# beamz_dial                          657.808
# det0x                               0
# det0x_dial                          6.36945
# det0xvd                             0
# det0xvd_dial                        0
# det0y                               450.002
# det0y_dial                          481.635
# det0z                               0
# det0z_dial                          1.23302
# det0zvd                             0
# det0zvd_dial                        0
# mag                                 1.818
# mag_dial                            1.818
# om                                  0.2499
# om_dial                             -0.610199
# phi                                 -0.0120535
# phi_dial                            0
# ry                                  0.599993
# ry_dial                             0.599993
# s1bot                               0.8
# s1bot_dial                          -1.66094
# s1hl                                0.8
# s1hl_dial                           -0.608437
# s1hr                                0.8
# s1hr_dial                           0.970938
# s1top                               0.8
# s1top_dial                          -0.461562
# s2bot                               0.45
# s2bot_dial                          1.36109
# s2hl                                0.45
# s2hl_dial                           -0.83375
# s2hr                                0.45
# s2hr_dial                           -0.118594
# s2top                               0.45
# s2top_dial                          1.44734
# w2theta                             32
# w2theta_dial                        32
# waxsch                              19.2605
# waxsch_dial                         -32.7355
# waxsh                               137.085
# waxsh_dial                          -43.5338
# waxsth                              26.0607
# waxsth_dial                         -19.4086
# waxsz                               67.0407
# waxsz_dial                          -23.7954
# wind                                65.9854
# wind_dial                           66.0041
# wpsi                                124
# wpsi_dial                           124
# wstod                               115
# wstod_dial                          115
# x                                   0
# x_dial                              1.00969
# z                                   0
# z_dial                              13.3172
# CountCutoff                         6807993
# DetectorModel                       Dectris EIGER2 Si 500K, S/N E-01-0554
# ThresholdSetting                    4023.88989258
# Saturation                          0
# FlatField                           Corrected
# BackgroundReductionExtra            0.02
# BackgroundCorrectionConstant        0.0026712
# Detector                            0
# Monitor                             0
# Pil_Roi0                            0
# SumForIntensity1                    3.07235e+08
# TransmittedFlux                     853430
# det                                 0
# mon                                 0
# pilai0                              3.07235e+08
# pilai1                              783294
# pilct0                              5.31867e+08
# pilct1                              783294
# pilroi0                             0
# pilroi1                             0
# sec                                 1
# title                               20251028_20perc_iodine_1.23mg_1_00599.edf
# usaxs0                              0
# Operation                           Azimuthal average I(q)
# Error_model                         ErrorModel.poisson
# Geometrical_correction              True
# Transmission_correction             True
# Thickness_correction                False
# Binning mode                        Uniform
# Binning factor                      1.0
# Psi                                 0.0
# Omega                               0.2499
# MaskInvalidPixels                   True
# DetectorEdge                        3
# MaskFiles                           ['WAXS_corrected.edf']
################################################################################
    q(A⁻¹)                Intensity(a.u.)            Sigma_I(a.u.)            
       0.693100             0.00412665785             0.00428676175           
       0.695741             0.00559518116             0.00407328606           
       0.698381           -2.37704717e-05                         0           
       0.701021           -2.37526557e-05                         0           
       0.703662              0.0171068583             0.00711913894           
       0.706302              0.0155301957             0.00525155548           
       0.708942             0.00572694609             0.00411606379           
       0.711583              0.0132148093             0.00541423115           
       0.714223             0.00583688527             0.00415429029           
       0.716864             0.00631294642             0.00282678708           
       0.719504             0.00736673001             0.00329520379           
       0.722144             0.00378991871             0.00218880296           
       0.724785              0.0087812792             0.00265767589           
       0.727425             0.00438717663              0.0025412988           
       0.730065              0.0101237983             0.00273071346           
       0.732706             0.00930021284             0.00219785773           
       0.735346              0.0079266422             0.00264497683           
       0.737987             0.00482418119             0.00145809601           
       0.740627             0.00486286014             0.00218427185           
       0.743267              0.0083791739             0.00192045246           
       0.745908             0.00569229256             0.00171733606           
       0.748548              0.0065673444             0.00170028221           
       0.751189             0.00800835602             0.00252996393           
       0.753829             0.00677216642             0.00213860984           
       0.756469              0.0100537478             0.00210118887           
       0.759110             0.00830115469             0.00201205981           
       0.761750             0.00762911189             0.00170556898           
       0.764390             0.00954130502             0.00199637283           
       0.767031             0.00655204673             0.00143260155           
       0.769671             0.00782291629              0.0019527017           
       0.772312             0.00733793463              0.0014397591           
       0.774952              0.0087693178             0.00212542377           
       0.777592             0.00816632075             0.00149393959           
       0.780233             0.00713105486               0.001684304           
       0.782873             0.00835640048             0.00174379667           
       0.785513             0.00708691872             0.00171679612           
       0.788154             0.00695209529             0.00142243269           
       0.790794             0.00832333216              0.0018607221           
       0.793435             0.00671171581             0.00150106639           
       0.796075             0.00964660224             0.00173355039           
       0.798715             0.00911304075             0.00199110281           
       0.801356             0.00668608228             0.00146785718           
       0.803996             0.00801909738             0.00163890357           
       0.806637             0.00613797143             0.00114107794           
       0.809277              0.0052300568             0.00114008548           
       0.811917             0.00782879851             0.00130397546           
       0.814558             0.00718208313             0.00129806647           
       0.817198             0.00889830355             0.00137268335           
       0.819838             0.00633207212             0.00117193061           
       0.822479             0.00599900495             0.00133948446           
       0.825119             0.00628164184              0.0011666172           
       0.827760             0.00533655937             0.00108921923           
       0.830400             0.00939320624             0.00136008723           
       0.833040             0.00863160748             0.00136596425           
       0.835681             0.00784354312             0.00148028291           
       0.838321             0.00787383704             0.00124484566           
       0.840961             0.00817157711             0.00138172378           
       0.843602             0.00585643069             0.00107268813           
       0.846242              0.0066412975              0.0011421382           
       0.848883             0.00739907568              0.0012336947           
       0.851523             0.00783859575             0.00125403474           
       0.854163              0.0102126239             0.00152222299           
       0.856804             0.00877947119             0.00126902367           
       0.859444             0.00704317272             0.00111367932           
       0.862085             0.00843406656             0.00127018369           
       0.864725             0.00702747789             0.00118656577           
       0.867365             0.00724081606             0.00111686769           
       0.870006             0.00781860655             0.00110593737           
       0.872646             0.00826579945             0.00119243315           
       0.875286              0.0074722825             0.00109074004           
       0.877927             0.00621326748            0.000959756298           
       0.880567             0.00845287666             0.00115976897           
       0.883208              0.0059214632            0.000961552268           
       0.885848               0.007222369             0.00110260879           
       0.888488             0.00753228375             0.00105613445           
       0.891129             0.00857561554             0.00115709951           
       0.893769                0.00526324            0.000867537759           
       0.896410             0.00730947292            0.000953199914           
       0.899050             0.00661583053            0.000997283155           
       0.901690             0.00928240319             0.00128676801           
       0.904331             0.00757703486             0.00103068367           
       0.906971               0.007449076             0.00108717973           
       0.909611             0.00710880935            0.000966813467           
       0.912252              0.0075615134             0.00102992307           
       0.914892             0.00752494699             0.00112276173           
       0.917533             0.00823356765             0.00111101357           
       0.920173             0.00734055415            0.000973297743           
       0.922813             0.00780802633             0.00105338651           
       0.925454             0.00782070569            0.000949315379           
       0.928094             0.00719379777            0.000972005772           
       0.930734             0.00638361447            0.000985783861           
       0.933375             0.00731239269             0.00104469044           
       0.936015              0.0083414656             0.00101336799           
       0.938656             0.00809736121              0.0010710798           
       0.941296             0.00815113191            0.000973910856           
       0.943936             0.00760504961            0.000922523674           
       0.946577             0.00861345543            0.000975291581           
       0.949217             0.00820535156            0.000875364509           
       0.951858              0.0098261964             0.00100275987           
       0.954498              0.0100195205             0.00117203902           
       0.957138             0.00677201627             0.00091283877           
       0.959779             0.00597639519            0.000845358864           
       0.962419             0.00623560543            0.000857753179           
       0.965059             0.00809000285             0.00102755499           
       0.967700             0.00777713411             0.00103186917           
       0.970340             0.00749835576            0.000896587265           
       0.972981             0.00825126602            0.000856907523           
       0.975621             0.00827105283             0.00091269432           
       0.978261             0.00817110505            0.000861964415           
       0.980902              0.0074005601            0.000981467294           
       0.983542             0.00734667911            0.000865983465           
       0.986182             0.00906379893            0.000944364181           
       0.988823              0.0101151245            0.000968701554           
       0.991463             0.00950602582             0.00100190334           
       0.994104             0.00941528615            0.000972696204           
       0.996744             0.00753320329            0.000887456491           
       0.999384             0.00786999398             0.00081123078           
       1.002025              0.0079390966            0.000909407157           
       1.004665             0.00870147568            0.000870074982           
       1.007306             0.00834887431            0.000847901726           
       1.009946             0.00716885526            0.000801303543           
       1.012586             0.00857048552            0.000853311437           
       1.015227             0.00753066207              0.0008593148           
       1.017867             0.00624939558            0.000752331695           
       1.020507             0.00825221853             0.00083740639           
       1.023148             0.00899402987            0.000943323216           
       1.025788             0.00839632803             0.00083571856           
       1.028429             0.00739140674            0.000821487788           
       1.031069             0.00736592597            0.000771717947           
       1.033709             0.00948447529            0.000930863177           
       1.036350             0.00698537176            0.000717490914           
       1.038990             0.00839819531            0.000801166807           
       1.041630              0.0062363845            0.000720086918           
       1.044271             0.00786119373            0.000760334603           
       1.046911             0.00831893808            0.000822728109           
       1.049552              0.0088883457            0.000893472861           
       1.052192             0.00763116387            0.000755957461           
       1.054832             0.00778587751            0.000770528316           
       1.057473             0.00912318531            0.000822227466           
       1.060113             0.00804387716            0.000752969124           
       1.062754             0.00808061457             0.00077052173           
       1.065394             0.00944605265             0.00088078328           
       1.068034             0.00856367077            0.000763044399           
       1.070675             0.00762977715            0.000751296243           
       1.073315             0.00852823562            0.000805685844           
       1.075955             0.00819201963            0.000745469576           
       1.078596             0.00881818391            0.000822008317           
       1.081236             0.00849795538            0.000772702365           
       1.083877              0.0073212707            0.000710779307           
       1.086517             0.00799856467            0.000796637786           
       1.089157             0.00947843655             0.00089982535           
       1.091798             0.00897246764            0.000767547023           
       1.094438             0.00887226209            0.000760785528           
       1.097078             0.00822355925            0.000702491538           
       1.099719             0.00806256714            0.000752377453           
       1.102359             0.00749836684            0.000679509872           
       1.105000             0.00831498134            0.000800130025           
       1.107640             0.00780496789            0.000741220199           
       1.110280               0.008017451            0.000685451001           
       1.112921             0.00999819882            0.000822263192           
       1.115561             0.00776187514            0.000688568508           
       1.118202             0.00913001888            0.000747495697           
       1.120842             0.00938977808            0.000796720359           
       1.123482             0.00909590652            0.000780728902           
       1.126123             0.00799642339            0.000702133395           
       1.128763             0.00737029542            0.000678705996           
       1.131403             0.00946135279            0.000740979477           
       1.134044             0.00805266377            0.000703421676           
       1.136684             0.00914527349            0.000799230693           
       1.139325             0.00864285932            0.000715741049           
       1.141965             0.00790722548            0.000689129573           
       1.144605             0.00922120839            0.000709585591           
       1.147246             0.00908471776            0.000720804902           
       1.149886              0.0079005615            0.000669802133           
       1.152527             0.00963001032            0.000750241277           
       1.155167             0.00850228294            0.000670510251           
       1.157807             0.00850015448            0.000718816459           
       1.160448             0.00912568665            0.000727312436           
       1.163088              0.0095402577            0.000709332192           
       1.165728             0.00903663293            0.000708801285           
       1.168369             0.00910638881            0.000718105274           
       1.171009             0.00947332062            0.000710803473           
       1.173650             0.00873735945            0.000700546228           
       1.176290             0.00869249286            0.000682830856           
       1.178930             0.00845025459            0.000659845539           
       1.181571             0.00873559785            0.000684197749           
       1.184211              0.0082878854            0.000668796966           
       1.186851              0.0101108998            0.000722215065           
       1.189492             0.00830242135            0.000650043511           
       1.192132               0.010095543            0.000708768732           
       1.194773              0.0107969053            0.000736177883           
       1.197413              0.0089960511            0.000643856024           
       1.200053             0.00931865105            0.000671948878           
       1.202694              0.0102529404            0.000670252295           
       1.205334               0.011070504             0.00075056868           
       1.207975             0.00898292704            0.000645363565           
       1.210615              0.0103182839            0.000763030065           
       1.213255             0.00868778775             0.00062697026           
       1.215896             0.00890482012            0.000646254312           
       1.218536               0.008784713             0.00061719626           
       1.221176             0.00937649649            0.000693252275           
       1.223817             0.00955705887            0.000657003684           
       1.226457             0.00982169856            0.000679456137           
       1.229098              0.0110505258            0.000720673308           
       1.231738             0.00920156661            0.000660860891           
       1.234378               0.010670821            0.000668720039           
       1.237019              0.0096481553            0.000655256849           
       1.239659              0.0100943484            0.000664398823           
       1.242299             0.00982458803            0.000647133321           
       1.244940             0.00925354948             0.00061081314           
       1.247580             0.00976658836            0.000646707792           
       1.250221              0.0095856645            0.000636736445           
       1.252861              0.0102272699            0.000626134443           
       1.255501              0.0102555409            0.000680801344           
       1.258142             0.00963499989            0.000620078523           
       1.260782              0.0100747946            0.000647792111           
       1.263423              0.0112663712            0.000658236337           
       1.266063              0.0102567751             0.00064373476           
       1.268703             0.00904658685             0.00059954956           
       1.271344              0.0100653679            0.000653841041           
       1.273984              0.0104559944            0.000643618396           
       1.276624               0.010905677            0.000644964177           
       1.279265              0.0103512415            0.000638790441           
       1.281905              0.0109569201            0.000660130252           
       1.284546              0.0106918131            0.000630309237           
       1.287186              0.0109793482            0.000626660403           
       1.289826              0.0100904377             0.00063314889           
       1.292467              0.0104938548            0.000631459877           
       1.295107              0.0102693451            0.000618463299           
       1.297747              0.0108528994             0.00060840068           
       1.300388              0.0108411118             0.00066287327           
       1.303028              0.0102845951            0.000616362104           
       1.305669              0.0098596596            0.000617864222           
       1.308309              0.0116025812            0.000663653544           
       1.310949              0.0109352067            0.000643636903           
       1.313590              0.0109161022            0.000622972636           
       1.316230              0.0109483753            0.000665780311           
       1.318871              0.0100348202            0.000624253381           
       1.321511              0.0112571884            0.000648926885           
       1.324151              0.0105488461            0.000609555612           
       1.326792              0.0105874042            0.000614444016           
       1.329432             0.00988354791            0.000589479102           
       1.332072             0.00976764283            0.000577279098           
       1.334713              0.0108381983            0.000627611588           
       1.337353              0.0116379851            0.000623704597           
       1.339994              0.0114263739            0.000648538077           
       1.342634              0.0124431193            0.000648987097           
       1.345274              0.0114884852            0.000645362505           
       1.347915              0.0109538637            0.000612765516           
       1.350555              0.0117184363            0.000644890248           
       1.353195              0.0116866277            0.000647177481           
       1.355836              0.0120571964            0.000647107749           
       1.358476              0.0111041429            0.000603091327           
       1.361117              0.0114550248            0.000613386611           
       1.363757               0.011497642            0.000633290863           
       1.366397              0.0107129046            0.000592798668           
       1.369038              0.0108410144            0.000602270429           
       1.371678               0.010104379            0.000576322604           
       1.374319              0.0112072159            0.000601733051           
       1.376959              0.0102434733            0.000569493808           
       1.379599              0.0108900338            0.000629291822           
       1.382240              0.0113416972            0.000603580208           
       1.384880              0.0113424022            0.000639348458           
       1.387520              0.0109654463            0.000597033643           
       1.390161              0.0112635033            0.000574693342           
       1.392801              0.0107674607            0.000585441338           
       1.395442               0.011353631             0.00060937615           
       1.398082               0.011300662            0.000569321496           
       1.400722             0.00989593755            0.000558057082           
       1.403363              0.0104781633            0.000604456382           
       1.406003              0.0102584004            0.000559726324           
       1.408644              0.0102414218            0.000585864287           
       1.411284              0.0100676134            0.000550033894           
       1.413924              0.0105409079            0.000560727895           
       1.416565              0.0112763233            0.000577680347           
       1.419205               0.011915139            0.000619446975           
       1.421845              0.0113432785            0.000604044304           
       1.424486              0.0106071122            0.000561468418           
       1.427126              0.0121674209            0.000624684488           
       1.429767              0.0104581882            0.000544908021           
       1.432407              0.0105044706            0.000571519413           
       1.435047              0.0114527247            0.000560454892           
       1.437688             0.00955659805            0.000519616953           
       1.440328               0.010859374            0.000565320617           
       1.442968              0.0104406565            0.000566734352           
       1.445609              0.0107206377            0.000556065183           
       1.448249              0.0114878566            0.000590192981           
       1.450890               0.011841816            0.000595305339           
       1.453530               0.010003531            0.000572430109           
       1.456170              0.0106589435            0.000573467652           
       1.458811              0.0114313509            0.000567883199           
       1.461451              0.0103917624            0.000542865969           
       1.464092              0.0105421573            0.000550354924           
       1.466732               0.010313172            0.000539667309           
       1.469372               0.010333504            0.000527556697           
       1.472013              0.0105953585             0.00057614442           
       1.474653              0.0110257472            0.000578663103           
       1.477293             0.00971456493            0.000554615248           
       1.479934              0.0102197615            0.000542805168           
       1.482574              0.0100634228            0.000521047466           
       1.485215              0.0105525628             0.00054349785           
       1.487855              0.0103648773            0.000545748489           
       1.490495              0.0108838176            0.000557184036           
       1.493136              0.0115524476            0.000566175462           
       1.495776              0.0100296224            0.000525139068           
       1.498416              0.0117282878             0.00058644966           
       1.501057              0.0103123409            0.000537791349           
       1.503697              0.0111021859            0.000545540574           
       1.506338               0.010581531            0.000542327347           
       1.508978              0.0095544659            0.000510268003           
       1.511618             0.00995318447            0.000554656075           
       1.514259              0.0101662003            0.000541194388           
       1.516899              0.0105443751            0.000536655396           
       1.519540             0.00958175372            0.000519822453           
       1.522180              0.0108069209            0.000556906021           
       1.524820             0.00986118558            0.000528995572           
       1.527461              0.0102533512            0.000542079487           
       1.530101              0.0103855808             0.00054010746           
       1.532741             0.00914649659            0.000503923317           
       1.535382              0.0104931307            0.000548435469           
       1.538022              0.0108478348            0.000525315036           
       1.540663             0.00946380444            0.000527735768           
       1.543303              0.0107442377            0.000522108777           
       1.545943              0.0114109701            0.000569501721           
       1.548584              0.0108815034            0.000566115335           
       1.551224               0.010554885            0.000515511702           
       1.553864               0.009884537            0.000527152474           
       1.556505             0.00938752898             0.00049627511           
       1.559145              0.0110763385            0.000545673299           
       1.561786              0.0105473058            0.000532892623           
       1.564426              0.0103844893            0.000512316822           
       1.567066              0.0100446482            0.000527952826           
       1.569707              0.0100274203            0.000518024322           
       1.572347             0.00950958552            0.000521169134           
       1.574988             0.00951184631            0.000496124596           
       1.577628             0.00972843765            0.000523192516           
       1.580268             0.00938742166            0.000497953946           
       1.582909             0.00963793329            0.000534807569           
       1.585549             0.00931082361            0.000510392837           
       1.588189             0.00895808697            0.000489705012           
       1.590830             0.00907008943            0.000492138416           
       1.593470             0.00948481131            0.000523191141           
       1.596111              0.0100712826            0.000526352215           
       1.598751             0.00952086365            0.000495885022           
       1.601391             0.00861510899            0.000482115139           
       1.604032             0.00918575987            0.000508233545           
       1.606672             0.00899835147            0.000488733941           
       1.609312             0.00940928438            0.000521700397           
       1.611953             0.00977960334            0.000520465547           
       1.614593              0.0101233368            0.000519430149           
       1.617234             0.00910510858            0.000510535013           
       1.619874             0.00877307341            0.000499160117           
       1.622514             0.00927561471            0.000506255961           
       1.625155             0.00919381377            0.000506996189           
       1.627795             0.00867721385            0.000480477959           
       1.630436             0.00838863995            0.000469954069           
       1.633076             0.00893056574            0.000491256194           
       1.635716             0.00840453347            0.000469153528           
       1.638357             0.00891415691            0.000484441729           
       1.640997             0.00871546446            0.000493522567           
       1.643637             0.00864089428            0.000478194129           
       1.646278             0.00870098245             0.00049493097           
       1.648918             0.00912212533            0.000508149633           
       1.651559             0.00905206324            0.000510123279           
       1.654199             0.00898384946            0.000494266779           
       1.656839             0.00856574309            0.000482796687           
       1.659480              0.0103003331            0.000549309628           
       1.662120             0.00914115253            0.000487379211           
       1.664761             0.00942142957            0.000513963844           
       1.667401             0.00832452994            0.000461758223           
       1.670041             0.00921140332            0.000493139408           
       1.672682             0.00929485178            0.000493332062           
       1.675322             0.00846130761            0.000467665258           
       1.677962             0.00897082857              0.0004762283           
       1.680603             0.00796603735            0.000450147114           
       1.683243             0.00811150405            0.000473913221           
       1.685884             0.00895627506            0.000501657334           
       1.688524             0.00851494229            0.000479686104           
       1.691164             0.00823236656            0.000471766605           
       1.693805             0.00873514525             0.00049129777           
       1.696445             0.00756879129            0.000459975746           
       1.699085             0.00855108352            0.000472531161           
       1.701726              0.0089330678            0.000465257326           
       1.704366             0.00812970448            0.000467577412           
       1.707007             0.00813902597            0.000457416618           
       1.709647             0.00888136059             0.00048321734           
       1.712287             0.00788273753            0.000459203448           
       1.714928              0.0091138815            0.000497743727           
       1.717568             0.00850636231            0.000452979739           
       1.720209             0.00842038174             0.00047206087           
       1.722849             0.00865146967            0.000476034628           
       1.725489             0.00899148641            0.000485706446           
       1.728130             0.00926960224            0.000524091881           
       1.730770              0.0087275711            0.000482974616           
       1.733410             0.00916737596            0.000487213393           
       1.736051             0.00808679827            0.000460784028           
       1.738691             0.00909883099            0.000478859099           
       1.741332             0.00872760509            0.000482702359           
       1.743972             0.00823318169            0.000484146963           
       1.746612               0.008216215            0.000464425232           
       1.749253             0.00900718143            0.000495869494           
       1.751893             0.00785508778              0.0004596729           
       1.754533              0.0087080753            0.000483535872           
       1.757174             0.00769139784            0.000450177869           
       1.759814             0.00866130891            0.000470478521           
       1.762455             0.00860747019            0.000477626083           
       1.765095             0.00931558041            0.000475330196           
       1.767735             0.00799272379            0.000453871921           
       1.770376             0.00807337475            0.000457358634           
       1.773016              0.0088876488            0.000476654789           
       1.775657               0.008714713            0.000465203277           
       1.778297             0.00809365709            0.000444460094           
       1.780937             0.00880809687            0.000489394971           
       1.783578             0.00886839102            0.000478788386           
       1.786218             0.00826680989            0.000482423162           
       1.788858              0.0083590123            0.000460733661           
       1.791499             0.00891662651            0.000470508661           
       1.794139             0.00910741941            0.000471657908           
       1.796780             0.00829692185            0.000448011534           
       1.799420              0.0086995631            0.000456213063           
       1.802060             0.00856052993            0.000456208272           
       1.804701             0.00863977083            0.000439819798           
       1.807341             0.00963988559            0.000488171511           
       1.809981             0.00978564769            0.000493488261           
       1.812622               0.009699639            0.000482469515           
       1.815262             0.00913454258            0.000478150144           
       1.817903             0.00874530308            0.000460919717           
       1.820543             0.00951133522             0.00048817294           
       1.823183             0.00943824392            0.000486026263           
       1.825824             0.00902739971            0.000454111289           
       1.828464             0.00870924938            0.000465013327           
       1.831105             0.00940014134            0.000469748931           
       1.833745             0.00863848063            0.000459933292           
       1.836385             0.00817480716            0.000460188173           
       1.839026             0.00895575496            0.000480146195           
       1.841666             0.00883120564            0.000475105081           
       1.844306             0.00838220234            0.000450240068           
       1.846947             0.00885073886            0.000466707905           
       1.849587             0.00807008632            0.000492106283           
       1.852228             0.00918009539            0.000474603441           
       1.854868             0.00911309947            0.000499515584           
       1.857508              0.0082316107            0.000470086584           
       1.860149             0.00834685453            0.000481966169           
       1.862789             0.00850206621            0.000469514224           
       1.865429             0.00929694556            0.000512499568           
       1.868070             0.00915861623            0.000501892824           
       1.870710             0.00938536336            0.000496354429           
       1.873351             0.00970697863            0.000511027591           
       1.875991             0.00891870682            0.000497833155           
       1.878631             0.00999183884             0.00051684129           
       1.881272             0.00967155589            0.000505083262           
       1.883912              0.0090520405            0.000508530985           
       1.886553             0.00814652114            0.000477031992           
       1.889193             0.00912031008            0.000503875817           
       1.891833             0.00930402969            0.000528539033           
       1.894474             0.00864220128            0.000504957557           
       1.897114             0.00877884109              0.0004924846           
       1.899754             0.00868900202            0.000492008202           
       1.902395             0.00934254081            0.000500201299           
       1.905035              0.0095690237            0.000536180256           
       1.907676             0.00920003696            0.000495512374           
       1.910316             0.00849344904            0.000488745295           
       1.912956             0.00858303717            0.000480507139           
       1.915597             0.00793036954            0.000464458073           
       1.918237             0.00936888462            0.000521364866           
       1.920878             0.00884588903            0.000504530078           
       1.923518             0.00947681731            0.000522434445           
       1.926158             0.00975542624             0.00052318005           
       1.928799              0.0087065239            0.000488533161           
       1.931439             0.00852576391            0.000496115248           
       1.934079             0.00819177568            0.000506956579           
       1.936720             0.00880808236            0.000487058875           
       1.939360             0.00807782729            0.000497617583           
       1.942001             0.00836086567            0.000464013703           
       1.944641             0.00813928053            0.000466841715           
       1.947281             0.00898843067            0.000486067867           
       1.949922             0.00936101663            0.000512365189           
       1.952562             0.00822738673            0.000495396909           
       1.955202             0.00829114524            0.000496706548           
       1.957843             0.00831650801            0.000484564968           
       1.960483             0.00935811189            0.000537401785           
       1.963124             0.00884771655            0.000511821105           
       1.965764             0.00914459487            0.000490692498           
       1.968404             0.00804785382            0.000455978465           
       1.971045             0.00864634221            0.000481870269           
       1.973685             0.00794848526            0.000484619281           
       1.976326             0.00882038743            0.000503491462           
       1.978966             0.00887130308            0.000509373873           
       1.981606             0.00852670969            0.000509797884           
       1.984247             0.00782038165            0.000485016554           
       1.986887             0.00804956372            0.000486177669           
       1.989527             0.00832715845             0.00048916435           
       1.992168             0.00791687405            0.000494887897           
       1.994808             0.00821432825             0.00050193832           
       1.997449             0.00754788185            0.000471264924           
       2.000089             0.00853119836            0.000499036524           
       2.002729             0.00780806096            0.000477704359           
       2.005370             0.00846188742            0.000491952342           
       2.008010             0.00802996756            0.000500147857           
       2.010650               0.008343639            0.000513627033           
       2.013291             0.00726492123            0.000459838681           
       2.015931             0.00739867898            0.000460772184           
       2.018572             0.00776907719            0.000505025222           
       2.021212             0.00897916579            0.000533178402           
       2.023852             0.00753512562            0.000462273295           
       2.026493             0.00751852266            0.000482394366           
       2.029133              0.0073341077            0.000466853605           
       2.031774             0.00718180584            0.000484838559           
       2.034414             0.00815210911            0.000475300985           
       2.037054             0.00803697383            0.000483894565           
       2.039695             0.00832223944            0.000488688461           
       2.042335             0.00712312114            0.000469844825           
       2.044975             0.00731317638            0.000470298189           
       2.047616             0.00713632195            0.000463422742           
       2.050256               0.007135963            0.000467796607           
       2.052897             0.00835268267            0.000515439061           
       2.055537             0.00805121337             0.00048907986           
       2.058177             0.00763291921            0.000466333633           
       2.060818             0.00731033385            0.000478086141           
       2.063458             0.00702032544            0.000488230931           
       2.066098             0.00739081172            0.000472561871           
       2.068739             0.00788272313            0.000495620753           
       2.071379             0.00763828398            0.000500599724           
       2.074020             0.00706115241            0.000470855881           
       2.076660             0.00767801954            0.000494961608           
       2.079300             0.00742477676            0.000498656428           
       2.081941             0.00710199909            0.000446542104           
       2.084581             0.00734185247            0.000479222487           
       2.087222              0.0079723393             0.00048159996           
       2.089862             0.00893668926            0.000555354904           
       2.092502             0.00762756897            0.000497346669           
       2.095143             0.00750082244            0.000509299852           
       2.097783             0.00735290269            0.000488201808           
       2.100423             0.00719807765            0.000465448297           
       2.103064             0.00783235503            0.000503794844           
       2.105704             0.00798307482            0.000506099744           
       2.108345             0.00760705335            0.000474637205           
       2.110985             0.00705422922            0.000488178904           
       2.113625             0.00743206277            0.000505454792           
       2.116266             0.00746455782            0.000513745453           
       2.118906             0.00764445738            0.000484517073           
       2.121546             0.00767498067            0.000476214042           
       2.124187             0.00767317107            0.000499818735           
       2.126827              0.0074887669            0.000499287217           
       2.129468             0.00756829603             0.00050321348           
       2.132108             0.00725491597            0.000479345083           
       2.134748             0.00730385623            0.000479093133           
       2.137389             0.00701054184            0.000489674349           
       2.140029             0.00726998538            0.000446424491           
       2.142670             0.00736278809            0.000480138974           
       2.145310             0.00798630942            0.000486713724           
       2.147950             0.00830862399            0.000510970059           
       2.150591             0.00751399263            0.000481010932           
       2.153231             0.00711541706             0.00048181521           
       2.155871             0.00766741967            0.000483183356           
       2.158512             0.00785294225            0.000510230588           
       2.161152             0.00806150513            0.000500761342           
       2.163793             0.00737082287            0.000476673656           
       2.166433             0.00838941184            0.000522221578           
       2.169073             0.00700543352            0.000466582491           
       2.171714             0.00830328805            0.000504170265           
       2.174354             0.00687511472            0.000479369115           
       2.176995             0.00752237212            0.000499316848           
       2.179635             0.00764536163            0.000531931583           
       2.182275             0.00777442398            0.000506449165           
       2.184916             0.00788969603             0.00049277721           
       2.187556             0.00733147901            0.000470263691           
       2.190196             0.00757534776            0.000499525461           
       2.192837              0.0072219374            0.000485080518           
       2.195477             0.00752163747            0.000471964972           
       2.198118             0.00754802752            0.000484906813           
       2.200758             0.00711852498            0.000483123566           
       2.203398             0.00724455036            0.000490499331           
       2.206039             0.00692286917             0.00045379273           
       2.208679             0.00728115167            0.000476218138           
       2.211319             0.00759637774            0.000489222156           
       2.213960             0.00713495806            0.000480483786           
       2.216600             0.00769542494            0.000516202925           
       2.219241             0.00755677581             0.00048888594           
       2.221881             0.00661295324            0.000458278015           
       2.224521             0.00745128149            0.000492420606           
       2.227162              0.0074746904            0.000483318608           
       2.229802             0.00750496737            0.000499456888           
       2.232443             0.00718040734            0.000480832107           
       2.235083             0.00786080101            0.000517937693           
       2.237723             0.00665906245            0.000457468662           
       2.240364             0.00742630987            0.000495006431           
       2.243004             0.00717241483            0.000482587799           
       2.245644             0.00689732263            0.000477979574           
       2.248285             0.00722452405             0.00047938579           
       2.250925             0.00747940328            0.000490731794           
       2.253566              0.0071737681            0.000513798926           
       2.256206             0.00678522157             0.00048969966           
       2.258846             0.00732858886             0.00048413311           
       2.261487             0.00737764423            0.000509840451           
       2.264127             0.00765794695            0.000501662566           
       2.266767             0.00690101275             0.00048891265           
       2.269408             0.00758737521            0.000514748932           
       2.272048             0.00724489141              0.0004999948           
       2.274689             0.00738958888             0.00051161671           
       2.277329             0.00731945435            0.000479428653           
       2.279969              0.0076261579            0.000520906564           
       2.282610             0.00716906247            0.000491007412           
       2.285250             0.00721063199            0.000471321371           
       2.287891             0.00683531932            0.000492000813           
       2.290531             0.00790407534            0.000536180661           
       2.293171             0.00749986104            0.000508758283           
       2.295812             0.00664306086            0.000476891702           
       2.298452             0.00684613269            0.000506267024           
       2.301092             0.00741332508            0.000489481924           
       2.303733             0.00747867263            0.000511471678           
       2.306373             0.00680774568            0.000495675191           
       2.309014             0.00707301004             0.00049538383           
       2.311654             0.00816558963            0.000555450892           
       2.314294              0.0077664309            0.000499074575           
       2.316935             0.00705049796            0.000477479969           
       2.319575              0.0070658462            0.000500832737           
       2.322215             0.00694377102            0.000517423786           
       2.324856             0.00747689245            0.000493641892           
       2.327496             0.00692472639            0.000505142941           
       2.330137             0.00658512812            0.000471382094           
       2.332777             0.00710128325             0.00050473446           
       2.335417             0.00684987529            0.000480921889           
       2.338058             0.00701670319            0.000501283137           
       2.340698             0.00772062646            0.000521694752           
       2.343339             0.00718519682             0.00051435498           
       2.345979              0.0064950355             0.00046266008           
       2.348619             0.00699118801            0.000497552039           
       2.351260              0.0074939587            0.000512130879           
       2.353900             0.00650439881            0.000475609978           
       2.356540             0.00802067366            0.000527394832           
       2.359181             0.00688029902             0.00048161769           
       2.361821             0.00777148237            0.000494442566           
       2.364462             0.00623833685            0.000463316814           
       2.367102             0.00678910082            0.000496705782           
       2.369742             0.00708770702            0.000534191001           
       2.372383             0.00666761184            0.000469154748           
       2.375023             0.00796418704            0.000539006417           
       2.377663             0.00706271877            0.000485326224           
       2.380304             0.00683650337            0.000485452173           
       2.382944             0.00710392806            0.000471334537           
       2.385585             0.00815344489            0.000538540581           
       2.388225             0.00726834836            0.000506081185           
       2.390865             0.00631258523            0.000466790175           
       2.393506             0.00810862823            0.000519062942           
       2.396146             0.00797108131            0.000556453797           
       2.398787              0.0064924066            0.000462812689           
       2.401427              0.0064786621            0.000446247835           
       2.404067             0.00772069915              0.0004980151           
       2.406708             0.00586213789            0.000428748719           
       2.409348             0.00734662324            0.000509107485           
       2.411988             0.00816812592            0.000525962572           
       2.414629             0.00626975234            0.000475158031           
       2.417269             0.00793109243             0.00054065537           
       2.419910             0.00648419299            0.000489991531           
       2.422550             0.00664618894            0.000474613544           
       2.425190             0.00637636958            0.000490031686           
       2.427831             0.00640371802            0.000488320901           
       2.430471             0.00727660207            0.000495914236           
       2.433112             0.00769037904            0.000496442318           
       2.435752               0.006708978            0.000490723563           
       2.438392             0.00621082995            0.000455724961           
       2.441033             0.00616661007            0.000481254435           
       2.443673             0.00714084091            0.000518274603           
       2.446313             0.00752139437            0.000532374414           
       2.448954             0.00684721217            0.000483643772           
       2.451594             0.00704773819            0.000527589867           
       2.454235             0.00729857578            0.000503746057           
       2.456875             0.00793889088            0.000549734492           
       2.459515             0.00769687748            0.000555303011           
       2.462156             0.00778932074            0.000527422432           
       2.464796             0.00730691984            0.000504238962           
       2.467436             0.00676066804            0.000501572711           
       2.470077             0.00745114171            0.000499086341           
       2.472717             0.00677779954            0.000478063781           
       2.475358             0.00800919329            0.000525098575           
       2.477998             0.00725314822              0.0004912762           
       2.480638             0.00754043206            0.000509811719           
       2.483279             0.00715650335            0.000519092405           
       2.485919             0.00712930111            0.000499312544           
       2.488560             0.00639354856             0.00047152508           
       2.491200             0.00786356602            0.000538479731           
       2.493840             0.00680696578            0.000530121961           
       2.496481             0.00757992674            0.000550260908           
       2.499121             0.00717925895            0.000520879052           
       2.501761             0.00690083545            0.000517445146           
       2.504402             0.00707937042            0.000516438933           
       2.507042             0.00686236416            0.000504695393           
       2.509683             0.00662676594              0.0004883762           
       2.512323             0.00682431566             0.00052050544           
       2.514963             0.00739375916             0.00053509325           
       2.517604             0.00691042269            0.000536786526           
       2.520244             0.00784202392            0.000536087281           
       2.522884               0.007502232            0.000531843062           
       2.525525             0.00786142838            0.000550605502           
       2.528165              0.0081429786            0.000551643491           
       2.530806             0.00824527867            0.000564773305           
       2.533446              0.0121839759            0.000671886512           
       2.536086             0.00857473788            0.000558608104           
       2.538727             0.00723589609            0.000492287876           
       2.541367             0.00805127341            0.000524399586           
       2.544008             0.00661855469            0.000491031458           
       2.546648             0.00746716433             0.00053050776           
       2.549288              0.0070178875            0.000524779972           
       2.551929             0.00766094691            0.000539556323           
       2.554569             0.00614073022            0.000465392692           
       2.557209             0.00733137416            0.000513183285           
       2.559850              0.0067487152            0.000493949713           
       2.562490             0.00691356531            0.000516721183           
       2.565131             0.00688997687            0.000534845027           
       2.567771             0.00741298863            0.000534884997           
       2.570411             0.00682949678            0.000507847697           
       2.573052              0.0065396735            0.000503213577           
       2.575692              0.0070374509            0.000518852772           
       2.578332             0.00670612137            0.000508585968           
       2.580973             0.00708546078            0.000517798473           
       2.583613              0.0069564774            0.000500847306           
       2.586254             0.00662545393            0.000488106382           
       2.588894             0.00616381412            0.000488897676           
       2.591534             0.00652157985            0.000520581458           
       2.594175             0.00595676389            0.000488139322           
       2.596815             0.00687114089            0.000527358822           
       2.599456             0.00698692782            0.000504287892           
       2.602096             0.00716140556            0.000514431027           
       2.604736             0.00728272972            0.000531071493           
       2.607377              0.0077415025            0.000533113811           
       2.610017             0.00531516783            0.000434008778           
       2.612657             0.00721570553            0.000537871445           
       2.615298             0.00638414557            0.000493946892           
       2.617938             0.00690730325            0.000549620808           
       2.620579             0.00757360696            0.000552493202           
       2.623219             0.00754742857            0.000550751318           
       2.625859             0.00646026333            0.000495419073           
       2.628500             0.00667910961            0.000500438713           
       2.631140             0.00750389418            0.000538611561           
       2.633780             0.00726283719            0.000529429053           
       2.636421             0.00748746376            0.000550773335           
       2.639061             0.00854059294            0.000553753969           
       2.641702             0.00657296954            0.000497042152           
       2.644342             0.00734912978            0.000527809199           
       2.646982             0.00731808212            0.000518819168           
       2.649623             0.00735123735            0.000544931909           
       2.652263             0.00664213314            0.000512785412           
       2.654904             0.00717962941            0.000533666058           
       2.657544             0.00664693574            0.000483651331           
       2.660184             0.00678254851            0.000517038981           
       2.662825             0.00696726296            0.000536189612           
       2.665465             0.00643494244            0.000498379384           
       2.668105             0.00586320479            0.000501431571           
       2.670746             0.00767570897            0.000529999086           
       2.673386              0.0114478717             0.00066705252           
       2.676027              0.0132111004            0.000705083404           
       2.678667             0.00915063961            0.000572578832           
       2.681307              0.0127668988            0.000664522927           
       2.683948              0.0133718658            0.000698755928           
       2.686588              0.0120598525            0.000652586291           
       2.689229              0.0106062447            0.000598016063           
       2.691869             0.00958632431            0.000600886182           
       2.694509              0.0085657175            0.000568311711           
       2.697150             0.00701029852            0.000505788802           
       2.699790             0.00760577695            0.000552308432           
       2.702430             0.00758809831            0.000527326547           
       2.705071              0.0068383342            0.000517272617           
       2.707711             0.00845022925            0.000558094378           
       2.710352             0.00727239287            0.000547057549           
       2.712992             0.00671159593            0.000535259064           
       2.715632             0.00676436771            0.000498562778           
       2.718273             0.00607624277            0.000489707458           
       2.720913             0.00662160977            0.000509757332           
       2.723553             0.00624414084            0.000498335936           
       2.726194             0.00764635519            0.000576456249           
       2.728834             0.00704300375            0.000553505304           
       2.731475             0.00851543001            0.000561702763           
       2.734115             0.00754569744            0.000545163224           
       2.736755             0.00716613013            0.000535647601           
       2.739396              0.0072623394            0.000536107072           
       2.742036             0.00685396367             0.00054506682           
       2.744677             0.00664839646            0.000520873714           
       2.747317               0.007410368            0.000545991575           
       2.749957             0.00692934201            0.000531678638           
       2.752598             0.00745585764            0.000557493526           
       2.755238              0.0082810212            0.000598140273           
       2.757878             0.00731242792            0.000557157597           
       2.760519             0.00847440766            0.000593433995           
       2.763159             0.00906034601            0.000607474842           
       2.765800             0.00683595828            0.000502853409           
       2.768440             0.00843644305            0.000562741647           
       2.771080             0.00807840051            0.000555267319           
       2.773721             0.00767445596            0.000555167858           
       2.776361             0.00685257046            0.000531836132           
       2.779001             0.00711021548            0.000561028678           
       2.781642             0.00741039646            0.000568528202           
       2.784282             0.00687962878            0.000556797435           
       2.786923             0.00697966506            0.000565769002           
       2.789563             0.00619741608            0.000513459789           
       2.792203             0.00710727502            0.000525273975           
       2.794844             0.00650500182            0.000550759652           
       2.797484              0.0062671721            0.000510192362           
       2.800125             0.00693481691            0.000564319509           
       2.802765             0.00708478601            0.000560576112           
       2.805405             0.00750079052            0.000578751557           
       2.808046             0.00674739065            0.000558566571           
       2.810686             0.00686591184             0.00051774591           
       2.813326              0.0069561765            0.000541318706           
       2.815967             0.00694405256              0.0005562246           
       2.818607             0.00774580793            0.000560596278           
       2.821248              0.0057398932            0.000472560571           
       2.823888             0.00795775858            0.000577575702           
       2.826528             0.00675184989            0.000515231482           
       2.829169             0.00632363683            0.000522282237           
       2.831809             0.00682784272            0.000550086624           
       2.834449             0.00694831629            0.000558425314           
       2.837090             0.00647519723            0.000520664091           
       2.839730             0.00655057523            0.000521128993           
       2.842371             0.00686613675            0.000534303579           
       2.845011             0.00743655932            0.000560487478           
       2.847651             0.00678079804            0.000535862478           
       2.850292             0.00685581149            0.000544106386           
       2.852932             0.00666855918            0.000548319211           
       2.855573             0.00640183404            0.000521139536           
       2.858213             0.00649973262            0.000551428261           
       2.860853             0.00736286999            0.000545952751           
       2.863494             0.00601687606            0.000510985537           
       2.866134             0.00716388533            0.000579522218           
       2.868774             0.00760309055            0.000586750958           
       2.871415             0.00596950279            0.000528007911           
       2.874055             0.00681329021            0.000539201627           
       2.876696             0.00621256615            0.000528809509           
       2.879336              0.0066238559            0.000526271182           
       2.881976             0.00688627553            0.000553460403           
       2.884617             0.00744912014            0.000567180472           
       2.887257             0.00707166493            0.000555476244           
       2.889897              0.0074479036            0.000558329027           
       2.892538             0.00653010676            0.000572726334           
       2.895178              0.0067696052            0.000526823099           
       2.897819             0.00647784793            0.000525701686           
       2.900459              0.0061100376            0.000500627015           
       2.903099             0.00662408653            0.000515925429           
       2.905740             0.00787552758            0.000577107916           
       2.908380              0.0063164504            0.000522709649           
       2.911021             0.00688181131             0.00055447184           
       2.913661             0.00655197351            0.000540858985           
       2.916301             0.00665721098            0.000545705217           
       2.918942             0.00729101237            0.000546263274           
       2.921582             0.00788032644            0.000594198394           
       2.924222             0.00693259941            0.000539939366           
       2.926863              0.0067561517            0.000555205855           
       2.929503             0.00788825046            0.000607029393           
       2.932144             0.00709619111            0.000552682346           
       2.934784             0.00679096676            0.000531800239           
       2.937424             0.00654885274            0.000527595912           
       2.940065             0.00603603471            0.000483170082           
       2.942705             0.00721135585            0.000527457451           
       2.945346             0.00739287007            0.000566766887           
       2.947986             0.00619818311            0.000529155036           
       2.950626             0.00696672211            0.000557844087           
       2.953267             0.00679175119            0.000541894983           
       2.955907             0.00682782353            0.000563632418           
       2.958547             0.00599935642            0.000498772785           
       2.961188             0.00790644456             0.00059736749           
       2.963828             0.00833936551            0.000600120428           
       2.966469              0.0061992774            0.000507586327           
       2.969109             0.00710037876            0.000551274203           
       2.971749             0.00782352692            0.000575056397           
       2.974390             0.00652918358            0.000516240449           
       2.977030             0.00841347345            0.000599113491           
       2.979670              0.0100100016            0.000635644212           
       2.982311             0.00923883102            0.000632927197           
       2.984951             0.00693531215            0.000521553596           
       2.987592              0.0072197378            0.000542799256           
       2.990232             0.00782299043            0.000587616215           
       2.992872             0.00868030491            0.000583041823           
       2.995513             0.00802153362            0.000548334936           
       2.998153              0.0123156283            0.000690846531           
       3.000794              0.0133156837            0.000695794062           
       3.003434                 0.0120629            0.000663254314           
       3.006074              0.0562026007              0.0014115697           
       3.008715               0.131746209             0.00208622716           
       3.011355               0.173006935             0.00230540286           
       3.013995              0.0831053893             0.00160217396           
       3.016636               0.056726792             0.00129621478           
       3.019276               0.123180837             0.00187758221           
       3.021917               0.501730853             0.00364362757           
       3.024557                1.78000516             0.00674744239           
       3.027197                1.10886154             0.00519216378           
       3.029838               0.505369887             0.00355493285           
       3.032478               0.261966177             0.00256206823           
       3.035118              0.0720390294             0.00136156943           
       3.037759               0.104252178             0.00163582837           
       3.040399               0.150045801             0.00202435581           
       3.043040               0.582217246             0.00403653202           
       3.045680               0.381264174             0.00307328633           
       3.048320              0.0782395394             0.00142249364           
       3.050961               0.114280914             0.00174948321           
       3.053601              0.0845260218             0.00144910248           
       3.056242              0.0571310891              0.0012666604           
       3.058882              0.0530540349             0.00130937087           
       3.061522              0.0407045058             0.00112524343           
       3.064163              0.0508434178             0.00124176404           
       3.066803               0.109495675             0.00191849092           
       3.069443               0.112652227             0.00203595975           
       3.072084              0.0459132864             0.00126563483           
       3.074724              0.0384560584             0.00129355826           
       3.077365              0.0815240197             0.00194966495           
       3.080005               0.015590222            0.000857427325           
       3.082645              0.0112108922            0.000763830466           
       3.085286              0.0135261654             0.00084562385           
       3.087926              0.0107874839            0.000749358802           
       3.090566              0.0118688199            0.000770147729           
       3.093207              0.0106608115            0.000759540045           
       3.095847             0.00949289083            0.000686973457           
       3.098488             0.00947371685            0.000760966312           
       3.101128             0.00872820432            0.000735108972           
       3.103768              0.0105413803            0.000792664769           
       3.106409             0.00837312541            0.000751858339           
       3.109049             0.00937740619            0.000763566156           
       3.111690             0.00913196181             0.00074057175           
       3.114330             0.00774488235            0.000696521433           
       3.116970             0.00749785277            0.000690584663           
       3.119611              0.0138428975            0.000998805054           
       3.122251              0.0207821085             0.00128014056           
       3.124891              0.0353441444             0.00168499336           
       3.127532              0.0248113381             0.00138112392           
       3.130172              0.0134724244             0.00103531064           
       3.132813             0.00936925922            0.000849964788           
       3.135453             0.00899627834            0.000826014301           
       3.138093             0.00648813394            0.000760079685           
       3.140734             0.00819756917            0.000788214435           
       3.143374             0.00720394444            0.000781421491           
       3.146014             0.00726809158            0.000844972937           
       3.148655             0.00781858615             0.00081468435           
       3.151295             0.00703764842             0.00082367561           
       3.153936             0.00485015875            0.000660516951           
       3.156576             0.00725947442            0.000797096215           
       3.159216             0.00565653235            0.000707131418           
       3.161857             0.00539648085            0.000687874526           
       3.164497             0.00821671055            0.000891839151           
       3.167138             0.00868469748            0.000947366021           
       3.169778              0.0070652558            0.000840393326           
       3.172418              0.0065549374            0.000801240376           
       3.175059             0.00661051129            0.000713338322           
       3.177699             0.00532426008             0.00067792057           
       3.180339             0.00693322347            0.000828853023           
       3.182980             0.00538127651            0.000754971293           
       3.185620             0.00591560921            0.000806143312           
       3.188261              0.0071741778            0.000903608675           
       3.190901             0.00567131155             0.00073890206           
       3.193541             0.00487706673            0.000719991753           
       3.196182             0.00495741459            0.000756490184           
       3.198822             0.00612297293            0.000841012376           
       3.201463              0.0047876575            0.000730861805           
       3.204103             0.00540162899             0.00077158848           
       3.206743             0.00528235554            0.000762950582           
       3.209384             0.00551703058             0.00084241432           
       3.212024             0.00602932241            0.000821049488           
       3.214664             0.00531793484            0.000876842253           
       3.217305             0.00534221741            0.000835399903           
       3.219945             0.00664520656            0.000958985812           
       3.222586             0.00601671266            0.000869150499           
       3.225226             0.00447958775            0.000831956661           
       3.227866             0.00568027168            0.000856263939           
       3.230507             0.00652677734            0.000951453485           
       3.233147             0.00579908681            0.000904088095           
       3.235787             0.00588462382            0.000932019765           
       3.238428             0.00497807344            0.000925057643           
       3.241068              0.0063026278             0.00097327074           
       3.243709             0.00609188059            0.000988588706           
       3.246349             0.00560215392            0.000864208565           
       3.248989             0.00501578857             0.00096555865           
       3.251630             0.00533947804            0.000959339743           
       3.254270             0.00658953007            0.000952480359           
       3.256911             0.00556838205            0.000955349418           
       3.259551             0.00665683007             0.00112455701           
       3.262191              0.0063452009             0.00112146976           
       3.264832             0.00603553151             0.00114281692           
       3.267472             0.00588463225             0.00105859828           
       3.270112             0.00553000333             0.00113408754           
       3.272753             0.00467821888            0.000954770373           
       3.275393             0.00365097434            0.000860620192           
       3.278034             0.00426252775            0.000930433184           
       3.280674             0.00597443521             0.00119532312           
       3.283314             0.00535326837             0.00101194292           
       3.285955             0.00468431625            0.000976690351           
       3.288595             0.00530424831             0.00115627292           
       3.291235             0.00532534592             0.00119100023           
       3.293876             0.00711622847             0.00139655883           
       3.296516             0.00403525827             0.00100960465           
       3.299157             0.00592526615             0.00120803094           
       3.301797             0.00673333591             0.00146894293           
       3.304437             0.00554019166              0.0011544126           
       3.307078               0.004950369             0.00120206025           
       3.309718             0.00526918093             0.00128007173           
       3.312359             0.00434800445              0.0011630835           
       3.314999             0.00661802633             0.00141280419           
       3.317639             0.00885911274             0.00156329888           
       3.320280             0.00684517391             0.00146102187           
       3.322920             0.00548933697             0.00133037227           
       3.325560             0.00640098161              0.0014375782           
       3.328201             0.00755185858             0.00140629669           
       3.330841             0.00617866625             0.00154814019           
       3.333482             0.00695080883             0.00155209354           
       3.336122             0.00621647104             0.00146849261           
       3.338762             0.00597016112             0.00166239051           
       3.341403             0.00375603547             0.00125995125           
       3.344043             0.00420325934             0.00127964804           
       3.346683             0.00854052942             0.00186221965           
       3.349324             0.00774302348             0.00199359629           
       3.351964             0.00630219885             0.00190192347           
       3.354605             0.00526801027             0.00198867816           
       3.357245             0.00362440685             0.00148804967           
       3.359885             0.00352345413             0.00117427237           
       3.362526             0.00479605851              0.0017132668           
       3.365166             0.00438836318             0.00154573441           
       3.367807             0.00622157523             0.00235545481           
       3.370447             0.00733352328             0.00212131205           
       3.373087             0.00692637532             0.00220459333           
       3.375728              0.0035158717             0.00177268356           
       3.378368              0.0057309902             0.00335891828           
       3.381008             0.00765475309             0.00289419864           
       3.383649             0.00493961547             0.00186506414           
       3.386289             0.00292773869             0.00169939329           
       3.388930             0.00983680726             0.00492717671           
       3.391570             0.00734431092             0.00301168172           
       3.394210             0.00195117265             0.00196449697           
       3.396851              0.0023770005             0.00242544788           
       3.399491             0.00474667617             0.00342842145           
       3.402131             0.00482209221             0.00488892805           
       3.404772           -2.64934036e-05                         0           
       3.407412                       nan                       nan           
       3.410053             0.00928048365             0.00960583562           
       3.412693                       nan                       nan           
       3.415333           -2.66094101e-05                         0           
