################################################################################
# EDF_DataBlockID                     0.Image.Psd
# EDF_BinarySize                      4366944
# EDF_HeaderSize                      2560
# ByteOrder                           LowByteFirst
# DataType                            FloatValue
# Dim_1                               1028
# Dim_2                               1062
# Image                               0
# HeaderID                            EH:000000:000000:000000
# Size                                4366944
# Center_1                            607.5200
# Center_2                            651.5500
# Comment                             Xenocs_Cell_Window - 20251028_20perc_iodine_1.23mg
# DDummy                              0.6
# Date                                2025-10-29T14:48:08
# Delta                               0
# Dummy                               -1.5
# ExposureTime                        360
# Gamma                               0
# Intensity1                          8.51783e-10
# PSize_1                             7.5e-05
# PSize_2                             7.5e-05
# Pressure                            0.0327482
# SampleDistance                      0.450002
# SampleEnvKind                       large
# SampleEnvPN                         ElectroChemical cell
# SampleEnvSN                         1141
# Thickness                           0
# Wavelength                          1.541891e-10
# Wavelength                          1.54189e-10
# aux                                 0
# aux_dial                            0.002375
# beamx                               588.434
# beamx_dial                          588.434
# beamz                               657.808
# beamz_dial                          657.808
# det0x                               0
# det0x_dial                          6.36945
# det0xvd                             0
# det0xvd_dial                        0
# det0y                               450.002
# det0y_dial                          481.635
# det0z                               0
# det0z_dial                          1.23302
# det0zvd                             0
# det0zvd_dial                        0
# mag                                 1.818
# mag_dial                            1.818
# om                                  0.2499
# om_dial                             -0.610199
# phi                                 -0.0120535
# phi_dial                            0
# ry                                  0.599993
# ry_dial                             0.599993
# s1bot                               0.8
# s1bot_dial                          -1.66094
# s1hl                                0.8
# s1hl_dial                           -0.608437
# s1hr                                0.8
# s1hr_dial                           0.970938
# s1top                               0.8
# s1top_dial                          -0.461562
# s2bot                               0.45
# s2bot_dial                          1.36109
# s2hl                                0.45
# s2hl_dial                           -0.83375
# s2hr                                0.45
# s2hr_dial                           -0.118594
# s2top                               0.45
# s2top_dial                          1.44734
# w2theta                             32
# w2theta_dial                        32
# waxsch                              19.2605
# waxsch_dial                         -32.7355
# waxsh                               137.085
# waxsh_dial                          -43.5338
# waxsth                              26.0607
# waxsth_dial                         -19.4086
# waxsz                               67.0407
# waxsz_dial                          -23.7954
# wind                                65.9854
# wind_dial                           66.0041
# wpsi                                124
# wpsi_dial                           124
# wstod                               115
# wstod_dial                          115
# x                                   0
# x_dial                              1.00969
# z                                   0
# z_dial                              13.3172
# CountCutoff                         15302352
# DetectorModel                       Dectris EIGER2 Si 1M, S/N E-02-0362
# ThresholdSetting                    4023.88989258
# Saturation                          0
# FlatField                           Corrected
# BackgroundReductionExtra            0.02
# BackgroundCorrectionConstant        0.0026712
# Detector                            0
# Monitor                             0
# Pil_Roi0                            0
# SumForIntensity1                    3.06642e+08
# TransmittedFlux                     851783
# det                                 0
# mon                                 0
# pilai0                              3.06642e+08
# pilai1                              768143
# pilct0                              5.31519e+08
# pilct1                              768143
# pilroi0                             0
# pilroi1                             0
# sec                                 1
# title                               20251028_20perc_iodine_1.23mg_0_00222.edf
# usaxs0                              0
# Operation                           Azimuthal average I(q)
# Error_model                         ErrorModel.poisson
# Geometrical_correction              True
# Transmission_correction             True
# Thickness_correction                False
# Binning mode                        Uniform
# Binning factor                      1.0
# Psi                                 0.0
# Omega                               0.2499
# MaskInvalidPixels                   True
# DetectorEdge                        3
# MaskFiles                           ['20251028_20perc_iodine_1.23mg_0_00012_mask.edf']
################################################################################
    q(A⁻¹)                Intensity(a.u.)            Sigma_I(a.u.)            
       0.000340                372095.573                120.671324           
       0.001019                359782.641                72.6628747           
       0.001698                350576.652                50.7188041           
       0.002377                330944.496                44.0757931           
       0.003056                307348.807                35.8983406           
       0.003735                253381.425                28.7457637           
       0.004415                205325.373                25.8766395           
       0.005094                 153726.84                19.3906412           
       0.005773                101591.798                14.5939683           
       0.006452                59223.3028                10.6762726           
       0.007131                32384.2812                7.64801778           
       0.007810                 16173.945                5.36382549           
       0.008490                8059.24787                3.35618937           
       0.009169                3846.15277                 2.2914117           
       0.009848                 1178.6099                1.22639529           
       0.010527                453.457789               0.760701243           
       0.011206                114.837472               0.365360013           
       0.011885                53.8804367               0.232521343           
       0.012564                25.1736594               0.163174471           
       0.013244                16.9392424               0.125137076           
       0.013923                12.4347048               0.108944777           
       0.014602                9.32810689              0.0875125536           
       0.015281                7.55437537              0.0801681301           
       0.015960                6.11403584              0.0716048422           
       0.016639                4.94675461               0.060820951           
       0.017319                4.16580299              0.0549458838           
       0.017998                3.47793214              0.0480305672           
       0.018677                3.01178771               0.046292911           
       0.019356                2.52634758              0.0418936276           
       0.020035                2.21361161              0.0367913215           
       0.020714                 1.8757804              0.0342261388           
       0.021394                 1.6516068              0.0303871587           
       0.022073                1.34923544              0.0285752469           
       0.022752                1.28176166              0.0266430099           
       0.023431                1.15694941              0.0245705075           
       0.024110               0.953446958              0.0232547631           
       0.024789               0.898178297              0.0209616338           
       0.025469               0.840137575              0.0208915722           
       0.026148               0.730331999              0.0183016827           
       0.026827               0.665112957              0.0177448945           
       0.027506               0.659124505              0.0179195654           
       0.028185               0.539044752              0.0154540555           
       0.028864               0.514141796              0.0150081727           
       0.029544               0.485899139              0.0141483304           
       0.030223               0.445658306              0.0137441055           
       0.030902               0.421002142               0.013480744           
       0.031581               0.371405454              0.0120364349           
       0.032260               0.360463396              0.0120598505           
       0.032939               0.343447639              0.0113505473           
       0.033619               0.294675201              0.0106682846           
       0.034298               0.266608276             0.00987517486           
       0.034977               0.266522362             0.00967954682           
       0.035656               0.239042606             0.00940958349           
       0.036335               0.217277584             0.00870073265           
       0.037014               0.205576446             0.00848845314           
       0.037693               0.192318045              0.0078980708           
       0.038373               0.179873732             0.00771322516           
       0.039052               0.171202413             0.00755702653           
       0.039731               0.161740743             0.00717405837           
       0.040410               0.163010167             0.00715386912           
       0.041089               0.140790203             0.00654429856           
       0.041768               0.134950555             0.00644061437           
       0.042448               0.138901859             0.00648352103           
       0.043127               0.113971796             0.00573423368           
       0.043806               0.125573558             0.00606389921           
       0.044485               0.112692347             0.00562646097           
       0.045164               0.123221896             0.00599940714           
       0.045843               0.108610897             0.00540224925           
       0.046523               0.100936839             0.00522588518           
       0.047202              0.0985491963             0.00519978975           
       0.047881               0.096293714             0.00504082177           
       0.048560              0.0954311203             0.00506393291           
       0.049239              0.0967042493             0.00489461543           
       0.049918              0.0963014913             0.00497989724           
       0.050598              0.0914116849             0.00477902791           
       0.051277              0.0821307369             0.00451555649           
       0.051956              0.0831160852             0.00451403733           
       0.052635              0.0842033649             0.00444704469           
       0.053314               0.081012367             0.00448949848           
       0.053993              0.0790205599              0.0043123535           
       0.054673              0.0811856823             0.00427366537           
       0.055352              0.0700818836             0.00402899222           
       0.056031              0.0760295245             0.00410830156           
       0.056710              0.0728570395             0.00412022557           
       0.057389              0.0708045052             0.00391681282           
       0.058068              0.0742763941             0.00405304769           
       0.058748              0.0714190369             0.00402390051           
       0.059427              0.0674986603             0.00384566866           
       0.060106              0.0687346315             0.00391744764           
       0.060785              0.0612309126             0.00358665296           
       0.061464               0.054062841             0.00345141642           
       0.062143              0.0584471334             0.00355218292           
       0.062822               0.058687993             0.00351772477           
       0.063502               0.052530631             0.00332213231           
       0.064181              0.0569645774             0.00342296626           
       0.064860              0.0532002115             0.00335831741           
       0.065539              0.0478010248             0.00315221647           
       0.066218              0.0464946226              0.0030422771           
       0.066897               0.053886248             0.00330047242           
       0.067577              0.0514385839              0.0032556228           
       0.068256              0.0499741263             0.00328777059           
       0.068935              0.0535931516             0.00334968414           
       0.069614              0.0471602726             0.00317350584           
       0.070293              0.0435511115             0.00307777659           
       0.070972              0.0485793394             0.00322679766           
       0.071652              0.0413909925             0.00298397179           
       0.072331              0.0425913283             0.00297298303           
       0.073010              0.0447366677             0.00311655777           
       0.073689              0.0423660418             0.00301619365           
       0.074368              0.0423856205             0.00301140376           
       0.075047              0.0444285553             0.00304998395           
       0.075727              0.0403366178             0.00288818822           
       0.076406              0.0357308369             0.00277253614           
       0.077085              0.0341670394             0.00266051751           
       0.077764              0.0316914765             0.00255334343           
       0.078443              0.0389921135              0.0028497514           
       0.079122              0.0363935674              0.0027267079           
       0.079802              0.0353222486             0.00271476534           
       0.080481              0.0372222285             0.00269281798           
       0.081160              0.0361109354             0.00270674115           
       0.081839              0.0358150568             0.00265247343           
       0.082518              0.0376014639             0.00272010834           
       0.083197               0.031642896             0.00245652368           
       0.083876              0.0306520435             0.00237758173           
       0.084556              0.0350995114             0.00261498732           
       0.085235              0.0292262891             0.00234009251           
       0.085914              0.0373163901             0.00266989684           
       0.086593               0.036956613             0.00263989449           
       0.087272              0.0296749077             0.00233212868           
       0.087951              0.0305594125              0.0024200895           
       0.088631              0.0291587715             0.00228346025           
       0.089310               0.033214065             0.00248876943           
       0.089989              0.0338366012              0.0024826176           
       0.090668              0.0323609303             0.00245467799           
       0.091347              0.0273310979             0.00226849243           
       0.092026              0.0278649774             0.00218938708           
       0.092706              0.0290432149             0.00231632687           
       0.093385              0.0329570052             0.00242957593           
       0.094064              0.0264279983             0.00220096998           
       0.094743              0.0316995352              0.0023737732           
       0.095422              0.0300882517              0.0022868685           
       0.096101               0.028306657             0.00226381309           
       0.096781              0.0276206364             0.00220419382           
       0.097460              0.0320408329             0.00230926248           
       0.098139              0.0294172338              0.0021956732           
       0.098818              0.0292776524             0.00216348274           
       0.099497              0.0281814493              0.0021269522           
       0.100176              0.0236724647             0.00189822356           
       0.100856              0.0300454281             0.00213715704           
       0.101535               0.024915157             0.00194240883           
       0.102214               0.028976088             0.00209474612           
       0.102893              0.0234604998              0.0018633888           
       0.103572              0.0273837288             0.00198343286           
       0.104251              0.0262495055             0.00194909587           
       0.104931              0.0223283638             0.00178126749           
       0.105610               0.027419192             0.00198233313           
       0.106289              0.0246771378             0.00184930495           
       0.106968              0.0229153101              0.0017873557           
       0.107647              0.0240685717             0.00183287927           
       0.108326              0.0251358994             0.00184802042           
       0.109005              0.0217869189             0.00170968605           
       0.109685              0.0257163397                0.00183664           
       0.110364              0.0248702431             0.00182668796           
       0.111043              0.0205732397             0.00165481832           
       0.111722              0.0250640695             0.00180419631           
       0.112401              0.0252398493              0.0018155466           
       0.113080              0.0241381965             0.00175513651           
       0.113760              0.0220554492             0.00170573053           
       0.114439              0.0218334543             0.00167290356           
       0.115118               0.022252369             0.00167614162           
       0.115797              0.0231766526             0.00172644506           
       0.116476              0.0255735977             0.00178638088           
       0.117155              0.0237355726             0.00173486907           
       0.117835              0.0195079691             0.00154153092           
       0.118514              0.0203695808             0.00159517841           
       0.119193              0.0226139521             0.00168077501           
       0.119872              0.0220486549             0.00163887833           
       0.120551              0.0240017372              0.0016985348           
       0.121230              0.0215618511             0.00159368892           
       0.121910               0.023546157             0.00168150334           
       0.122589              0.0234665246             0.00168038731           
       0.123268              0.0198537484              0.0015156885           
       0.123947              0.0224747567             0.00162306494           
       0.124626              0.0201286806             0.00151723647           
       0.125305              0.0194956291             0.00150051467           
       0.125985              0.0219379278             0.00157937908           
       0.126664              0.0257474258             0.00169472344           
       0.127343              0.0208754611             0.00154367209           
       0.128022              0.0172141509             0.00139102821           
       0.128701              0.0197973708             0.00148398208           
       0.129380              0.0199083973             0.00146949923           
       0.130059              0.0230459205             0.00158473138           
       0.130739              0.0224148148             0.00157387268           
       0.131418              0.0194062802             0.00146034527           
       0.132097              0.0233140188             0.00158010957           
       0.132776              0.0230053557             0.00156252857           
       0.133455              0.0196099615             0.00145382764           
       0.134134              0.0182132273             0.00139663448           
       0.134814               0.022177524             0.00152527367           
       0.135493              0.0228156105             0.00155332135           
       0.136172              0.0161087267             0.00129534337           
       0.136851              0.0219803735             0.00152191477           
       0.137530              0.0195557027             0.00140141527           
       0.138209              0.0200109423             0.00143427704           
       0.138889              0.0187377486             0.00139401726           
       0.139568              0.0170476991             0.00132909063           
       0.140247              0.0191040629             0.00140512535           
       0.140926              0.0177127327             0.00131430528           
       0.141605              0.0192569415             0.00140521529           
       0.142284              0.0193015343             0.00138352904           
       0.142964              0.0210351444             0.00144984984           
       0.143643              0.0172087172             0.00130971124           
       0.144322              0.0190673292             0.00134977712           
       0.145001              0.0170806275             0.00130374657           
       0.145680              0.0196622977             0.00136571528           
       0.146359              0.0193449556             0.00135960465           
       0.147039               0.021500908             0.00144516698           
       0.147718              0.0215348968             0.00142244291           
       0.148397               0.017671497             0.00130856974           
       0.149076              0.0159486542             0.00120458177           
       0.149755              0.0187876193             0.00132759213           
       0.150434              0.0175864469             0.00128497615           
       0.151114              0.0194326093             0.00134326835           
       0.151793              0.0170439505             0.00125801661           
       0.152472               0.018208824             0.00127732732           
       0.153151              0.0163774795              0.0012231038           
       0.153830              0.0194736002             0.00132399742           
       0.154509              0.0178768841             0.00126326402           
       0.155188              0.0175238818             0.00125026715           
       0.155868              0.0186722675             0.00128139984           
       0.156547              0.0175794776             0.00125132436           
       0.157226              0.0180546237             0.00123714901           
       0.157905              0.0163872187               0.001188538           
       0.158584              0.0172916308             0.00121867726           
       0.159263              0.0175786465             0.00123327091           
       0.159943              0.0170107797             0.00121409219           
       0.160622              0.0185793291             0.00124434663           
       0.161301              0.0167017894             0.00119557868           
       0.161980              0.0161245881             0.00115476657           
       0.162659               0.017414521             0.00121336879           
       0.163338              0.0185423744             0.00124183948           
       0.164018              0.0166304588             0.00116990199           
       0.164697              0.0168974512             0.00119439769           
       0.165376              0.0183304517              0.0012168329           
       0.166055              0.0174368084             0.00119462786           
       0.166734              0.0143727404             0.00107973983           
       0.167413              0.0176661974             0.00119791178           
       0.168093               0.017462705             0.00120225856           
       0.168772              0.0196998067             0.00123960345           
       0.169451               0.015849259             0.00113233244           
       0.170130               0.016293934             0.00113303462           
       0.170809              0.0160434872             0.00113771051           
       0.171488              0.0157606417             0.00111735739           
       0.172168              0.0190796416             0.00121758122           
       0.172847              0.0155269079             0.00111281521           
       0.173526              0.0173972322             0.00115546225           
       0.174205              0.0179398905             0.00117874846           
       0.174884              0.0186966237             0.00119708148           
       0.175563              0.0176721393              0.0011687914           
       0.176243              0.0180298102             0.00119237457           
       0.176922              0.0176947465             0.00115046001           
       0.177601              0.0169013745             0.00113672951           
       0.178280              0.0180911689              0.0011629319           
       0.178959              0.0148574965             0.00106236312           
       0.179638              0.0182656632             0.00117453362           
       0.180317              0.0147618515              0.0010481966           
       0.180997              0.0174168203             0.00114474209           
       0.181676              0.0158730847             0.00108116419           
       0.182355              0.0144406104             0.00103741924           
       0.183034              0.0169760274             0.00110675867           
       0.183713              0.0154182795              0.0010676034           
       0.184392              0.0145926229             0.00103831058           
       0.185072              0.0177810623             0.00113308252           
       0.185751              0.0155008502             0.00106088171           
       0.186430              0.0164716915             0.00108593986           
       0.187109              0.0156205943             0.00106928963           
       0.187788               0.016056358             0.00108142916           
       0.188467              0.0164494838             0.00108163454           
       0.189147              0.0175401504             0.00112822836           
       0.189826              0.0138890394            0.000986206361           
       0.190505              0.0155811689             0.00106175078           
       0.191184              0.0159175048             0.00105768256           
       0.191863              0.0157798022             0.00105531616           
       0.192542              0.0175060442             0.00112202396           
       0.193222              0.0180685451             0.00111436224           
       0.193901              0.0179388977             0.00112523986           
       0.194580              0.0154182469             0.00102494511           
       0.195259              0.0172930862             0.00109794031           
       0.195938              0.0168477233             0.00108629711           
       0.196617              0.0155436516             0.00102884436           
       0.197297              0.0160890194             0.00105101185           
       0.197976              0.0166441542                0.00105257           
       0.198655              0.0150602914             0.00101217314           
       0.199334              0.0161061831             0.00103749865           
       0.200013              0.0173398395             0.00107590243           
       0.200692              0.0145504866            0.000991501919           
       0.201371              0.0161005506             0.00103123184           
       0.202051              0.0171987879              0.0010691369           
       0.202730              0.0154309915             0.00100258644           
       0.203409              0.0147946658            0.000988287022           
       0.204088              0.0162688704             0.00103521029           
       0.204767              0.0161631107             0.00102641678           
       0.205446              0.0168189284             0.00104907914           
       0.206126               0.015522146            0.000994132195           
       0.206805              0.0152697591             0.00100409301           
       0.207484              0.0160997686             0.00101248613           
       0.208163              0.0154622343            0.000998199376           
       0.208842              0.0151711607            0.000986079918           
       0.209521              0.0158701512             0.00100015865           
       0.210201              0.0146482779            0.000971608252           
       0.210880              0.0156707941            0.000985227462           
       0.211559              0.0158144724             0.00100436698           
       0.212238              0.0142598799            0.000948871607           
       0.212917              0.0154709775            0.000984672484           
       0.213596              0.0142466718            0.000950495356           
       0.214276              0.0180357846             0.00104717037           
       0.214955              0.0145247795            0.000959495197           
       0.215634              0.0159829076            0.000999291414           
       0.216313              0.0151634423            0.000971292982           
       0.216992              0.0152764215            0.000974660554           
       0.217671              0.0148205996            0.000953506668           
       0.218351              0.0148148969            0.000962646844           
       0.219030              0.0149506822            0.000951783738           
       0.219709              0.0147150438            0.000950143415           
       0.220388              0.0144177079             0.00093928678           
       0.221067              0.0153195526            0.000968985582           
       0.221746              0.0156544843            0.000978517432           
       0.222426              0.0161631879            0.000979429595           
       0.223105              0.0139518679            0.000922364453           
       0.223784               0.014869054            0.000942754683           
       0.224463              0.0149066952            0.000951464496           
       0.225142              0.0152499112            0.000947128693           
       0.225821              0.0145638769            0.000929308002           
       0.226500               0.014379804            0.000929287974           
       0.227180              0.0160925667            0.000967929131           
       0.227859              0.0140650109            0.000908960255           
       0.228538              0.0148619451            0.000924974334           
       0.229217              0.0155839543            0.000954673392           
       0.229896              0.0145152195            0.000920913116           
       0.230575              0.0134879317            0.000873576239           
       0.231255               0.013720908             0.00089427999           
       0.231934              0.0136442282            0.000885685037           
       0.232613              0.0131841949            0.000873838089           
       0.233292              0.0127957828            0.000852552442           
       0.233971              0.0153839897            0.000934371196           
       0.234650              0.0168147227            0.000988344486           
       0.235330              0.0149235623            0.000922976588           
       0.236009              0.0139846075            0.000891543287           
       0.236688              0.0143494805             0.00089986711           
       0.237367              0.0130272989            0.000858653206           
       0.238046              0.0141405015            0.000900888008           
       0.238725              0.0132386721            0.000858238851           
       0.239405              0.0150994341            0.000922255019           
       0.240084              0.0148536037            0.000908892139           
       0.240763              0.0139644626            0.000889707517           
       0.241442              0.0139925879            0.000878054023           
       0.242121              0.0143352364            0.000890417418           
       0.242800              0.0132502398            0.000860110546           
       0.243480              0.0132265051            0.000855316181           
       0.244159              0.0136230766            0.000868464011           
       0.244838              0.0154684021            0.000910188498           
       0.245517              0.0140575991            0.000880170551           
       0.246196              0.0143870219            0.000890853047           
       0.246875              0.0159335421            0.000924443162           
       0.247554              0.0142781212            0.000883997699           
       0.248234              0.0136381226             0.00085085822           
       0.248913              0.0137823441            0.000864939756           
       0.249592              0.0133206783            0.000842249795           
       0.250271               0.014708339            0.000882463315           
       0.250950               0.013765639            0.000858944107           
       0.251629              0.0140037967            0.000858979102           
       0.252309              0.0148086846             0.00088511251           
       0.252988              0.0134611552            0.000829345146           
       0.253667              0.0134855728            0.000839795718           
       0.254346              0.0138441544             0.00085071246           
       0.255025              0.0130584918            0.000824410853           
       0.255704              0.0129277803              0.0008165175           
       0.256384              0.0142715555            0.000854936994           
       0.257063              0.0128920667            0.000817200838           
       0.257742              0.0134667885            0.000829430361           
       0.258421              0.0132094546            0.000819886224           
       0.259100              0.0128965579            0.000811530293           
       0.259779              0.0136934133            0.000835517173           
       0.260459              0.0132847862            0.000824572472           
       0.261138              0.0128160433            0.000794067409           
       0.261817              0.0130920666            0.000818773515           
       0.262496              0.0116088741             0.00076343933           
       0.263175              0.0125708291            0.000796146976           
       0.263854              0.0143126509            0.000845568756           
       0.264534              0.0130342655            0.000800031384           
       0.265213              0.0124809491            0.000795203268           
       0.265892              0.0129096058            0.000798382138           
       0.266571              0.0131527188            0.000804032016           
       0.267250              0.0136304182            0.000819881618           
       0.267929              0.0142405208            0.000837170563           
       0.268609              0.0134667837            0.000818567241           
       0.269288              0.0123347346            0.000770392648           
       0.269967              0.0136259413            0.000818435887           
       0.270646              0.0130162907            0.000796459301           
       0.271325              0.0109735005            0.000732516319           
       0.272004              0.0127064036            0.000780378166           
       0.272683              0.0140038606            0.000820264586           
       0.273363              0.0123312762            0.000774631525           
       0.274042              0.0125466701            0.000776757558           
       0.274721              0.0120077082            0.000759440499           
       0.275400              0.0123542737            0.000765221671           
       0.276079              0.0110485129            0.000727762398           
       0.276758              0.0120843773            0.000770719183           
       0.277438              0.0121554335            0.000764304919           
       0.278117              0.0106887875            0.000729746088           
       0.278796              0.0108910362            0.000729140795           
       0.279475              0.0123673076            0.000789823541           
       0.280154              0.0111392265            0.000738801268           
       0.280833              0.0112627256            0.000747403175           
       0.281513              0.0142606159            0.000854206623           
       0.282192              0.0107264988            0.000728198279           
       0.282871              0.0109714441            0.000741612011           
       0.283550              0.0109978693            0.000746483629           
       0.284229              0.0113448054            0.000769301888           
       0.284908              0.0103818685            0.000743691569           
       0.285588              0.0112788186            0.000766074963           
       0.286267              0.0110389641            0.000770020621           
       0.286946              0.0110221138            0.000764429031           
       0.287625              0.0111072603            0.000780441869           
       0.288304              0.0121445371            0.000805147536           
       0.288983             0.00999845783            0.000739804064           
       0.289663              0.0110179942            0.000781152672           
       0.290342             0.00959205848            0.000724974236           
       0.291021              0.0108025938            0.000773506847           
       0.291700              0.0114698892            0.000786627139           
       0.292379              0.0107655677            0.000779541577           
       0.293058              0.0113846642            0.000798614796           
       0.293738              0.0104449274            0.000758520989           
       0.294417              0.0119498879            0.000820758876           
       0.295096             0.00986654492            0.000737590735           
       0.295775             0.00996153503            0.000752451348           
       0.296454              0.0115122181            0.000798437273           
       0.297133             0.00989946853            0.000743904247           
       0.297812              0.0115206471            0.000806533281           
       0.298492             0.00930895639             0.00072639466           
       0.299171              0.0110804871            0.000791004856           
       0.299850              0.0105832951            0.000767775738           
       0.300529              0.0100417342            0.000756298158           
       0.301208             0.00895309956            0.000715864629           
       0.301887              0.0106818851            0.000781001307           
       0.302567             0.00962695883            0.000737720413           
       0.303246             0.00987693639            0.000752115573           
       0.303925             0.00936028052            0.000741581057           
       0.304604              0.0100155562            0.000750535678           
       0.305283             0.00940693586            0.000738162026           
       0.305962              0.0082427318            0.000686802073           
       0.306642              0.0097703735            0.000757897113           
       0.307321             0.00849722451            0.000704537655           
       0.308000              0.0088590587            0.000710854801           
       0.308679             0.00883331689             0.00072519289           
       0.309358             0.00806584197            0.000683599353           
       0.310037             0.00828586846            0.000694404238           
       0.310717             0.00936433069            0.000737502802           
       0.311396             0.00837313609            0.000702056903           
       0.312075             0.00907628885            0.000740210299           
       0.312754             0.00878812808            0.000713793811           
       0.313433             0.00934096997             0.00074230321           
       0.314112             0.00885853117            0.000722714068           
       0.314792             0.00845771991            0.000711161747           
       0.315471             0.00777842294            0.000673570844           
       0.316150             0.00941433101            0.000747882036           
       0.316829             0.00906126279            0.000738569207           
       0.317508             0.00920766038            0.000736157296           
       0.318187             0.00836440511            0.000710894409           
       0.318866             0.00743504705            0.000661209749           
       0.319546             0.00851376913            0.000718157935           
       0.320225             0.00985478422            0.000772664712           
       0.320904              0.0081803852            0.000693085554           
       0.321583              0.0082595001            0.000711774607           
       0.322262             0.00765262959            0.000674743052           
       0.322941             0.00895044704            0.000739067538           
       0.323621             0.00751807436            0.000673219297           
       0.324300             0.00837578394            0.000711141849           
       0.324979             0.00748380401             0.00067342487           
       0.325658             0.00788317588            0.000692413816           
       0.326337             0.00789643424            0.000693900386           
       0.327016             0.00887137722            0.000730821265           
       0.327696             0.00846992159            0.000722035924           
       0.328375             0.00716638936            0.000658550409           
       0.329054             0.00848159245            0.000720321947           
       0.329733             0.00772790565            0.000690084053           
       0.330412             0.00900737858            0.000738919661           
       0.331091             0.00672316304            0.000649968194           
       0.331771             0.00717840258             0.00065401468           
       0.332450             0.00690460791            0.000653874214           
       0.333129              0.0066837266            0.000641670307           
       0.333808             0.00703023015            0.000658962963           
       0.334487              0.0066581344             0.00064432766           
       0.335166             0.00711482458            0.000656310872           
       0.335846             0.00713311001            0.000668701997           
       0.336525             0.00655101499            0.000634509802           
       0.337204             0.00721374801            0.000667577352           
       0.337883             0.00679623019            0.000648829289           
       0.338562               0.007443064            0.000682771938           
       0.339241             0.00596325359            0.000612286189           
       0.339921              0.0066013877            0.000633411009           
       0.340600             0.00585558218            0.000607887414           
       0.341279              0.0065478202             0.00063593224           
       0.341958             0.00641682343            0.000638420525           
       0.342637             0.00751438007            0.000681105327           
       0.343316             0.00662828327            0.000641540085           
       0.343995             0.00596099049            0.000618352463           
       0.344675             0.00573742373            0.000595497232           
       0.345354             0.00637430944             0.00063181969           
       0.346033             0.00589552148            0.000606043936           
       0.346712              0.0055360222            0.000591022827           
       0.347391             0.00588228839              0.0006129983           
       0.348070             0.00669880463            0.000644871132           
       0.348750             0.00639430768            0.000639148055           
       0.349429             0.00577689056            0.000599664876           
       0.350108             0.00649622935            0.000643557101           
       0.350787             0.00636749946            0.000626324373           
       0.351466             0.00619098339            0.000628958664           
       0.352145             0.00594679766            0.000616941671           
       0.352825             0.00614856538            0.000624478948           
       0.353504             0.00576971645            0.000604785849           
       0.354183             0.00617974953            0.000618695877           
       0.354862             0.00596005697            0.000621717896           
       0.355541             0.00543016483            0.000585665134           
       0.356220             0.00575608518            0.000604123924           
       0.356900             0.00561494537            0.000602338803           
       0.357579             0.00598418823            0.000614203806           
       0.358258             0.00486675232            0.000561562744           
       0.358937             0.00548321344            0.000584862283           
       0.359616             0.00582737497            0.000611357416           
       0.360295             0.00455798205            0.000541136284           
       0.360975             0.00516448155            0.000573551418           
       0.361654             0.00514992439            0.000575695284           
       0.362333             0.00433313571             0.00052538718           
       0.363012             0.00575619469            0.000613335624           
       0.363691             0.00628128529            0.000628059555           
       0.364370             0.00630257999            0.000636927891           
       0.365050             0.00540153828              0.0005864887           
       0.365729             0.00616592871            0.000632588888           
       0.366408             0.00436220121            0.000533255947           
       0.367087              0.0056519412            0.000597254819           
       0.367766             0.00454589983            0.000546797726           
       0.368445             0.00564239558            0.000598368262           
       0.369124              0.0057994881            0.000611406392           
       0.369804             0.00520830073            0.000578479132           
       0.370483             0.00421711798            0.000522809672           
       0.371162             0.00484811849            0.000563810275           
       0.371841             0.00328231857            0.000455824633           
       0.372520             0.00448628512            0.000543588213           
       0.373199             0.00450035446            0.000537935291           
       0.373879             0.00499928936            0.000573535265           
       0.374558             0.00459692741            0.000541945663           
       0.375237             0.00519450879            0.000577039456           
       0.375916             0.00512729907            0.000584277062           
       0.376595             0.00467836865             0.00054720443           
       0.377274             0.00304757309            0.000448720729           
       0.377954             0.00486933595            0.000558286907           
       0.378633             0.00499216408            0.000572428044           
       0.379312              0.0040089191            0.000512838323           
       0.379991             0.00459996547            0.000546500355           
       0.380670             0.00504209164            0.000582274169           
       0.381349             0.00425592248            0.000527276075           
       0.382029              0.0040452767            0.000521427405           
       0.382708             0.00424429526            0.000522436608           
       0.383387             0.00466057749            0.000559864479           
       0.384066             0.00410553231            0.000520648425           
       0.384745             0.00347390183            0.000480808892           
       0.385424             0.00430517747            0.000537071117           
       0.386104             0.00446299484            0.000540783402           
       0.386783             0.00487494787            0.000577415896           
       0.387462             0.00475025788            0.000555804151           
       0.388141             0.00410441922            0.000524892847           
       0.388820             0.00444023541            0.000541997164           
       0.389499             0.00489811198            0.000572461631           
       0.390178             0.00372592784            0.000501274102           
       0.390858             0.00405572033            0.000518756531           
       0.391537             0.00360515691             0.00049408752           
       0.392216             0.00370990423            0.000494931639           
       0.392895             0.00372888104            0.000497867483           
       0.393574              0.0034470073            0.000477493816           
       0.394253              0.0041487069            0.000526201908           
       0.394933             0.00411206884            0.000529859681           
       0.395612             0.00431219578             0.00052683902           
       0.396291             0.00536342262            0.000599518478           
       0.396970             0.00454271332             0.00054685762           
       0.397649              0.0049055149            0.000570025098           
       0.398328             0.00374295022            0.000495730389           
       0.399008             0.00353945905            0.000481018845           
       0.399687             0.00442663545            0.000540027909           
       0.400366             0.00477932107             0.00055898243           
       0.401045             0.00345996477            0.000474710667           
       0.401724             0.00379822704            0.000498204826           
       0.402403             0.00279865464            0.000430986755           
       0.403083             0.00419707954            0.000520181514           
       0.403762             0.00332337498            0.000465165289           
       0.404441             0.00330051986            0.000466515486           
       0.405120             0.00386716791            0.000503320828           
       0.405799             0.00375923338            0.000494091306           
       0.406478             0.00331355771            0.000463890785           
       0.407158             0.00290022018            0.000433179729           
       0.407837             0.00362089941            0.000488289403           
       0.408516             0.00346873556            0.000473761782           
       0.409195             0.00436270885            0.000537342787           
       0.409874             0.00340813274            0.000481539976           
       0.410553             0.00377436999            0.000512203162           
       0.411233             0.00310015687             0.00046180186           
       0.411912             0.00285825385            0.000449701805           
       0.412591             0.00345488253            0.000497686305           
       0.413270             0.00259720761            0.000429461485           
       0.413949             0.00365895463            0.000515308216           
       0.414628             0.00358223653            0.000508961851           
       0.415307             0.00278754046             0.00045396556           
       0.415987             0.00344541854            0.000500540997           
       0.416666             0.00347845023            0.000499908712           
       0.417345             0.00397638926            0.000543418924           
       0.418024             0.00285955724            0.000460840642           
       0.418703               0.002859265             0.00045997052           
       0.419382             0.00325230046            0.000488162804           
       0.420062              0.0032741145             0.00049116949           
       0.420741             0.00257768638            0.000438129972           
       0.421420             0.00349965637            0.000512441831           
       0.422099             0.00342284365            0.000506800099           
       0.422778             0.00314666345            0.000488555382           
       0.423457             0.00266764203            0.000452587479           
       0.424137             0.00316806245            0.000485176511           
       0.424816             0.00361648475            0.000529211306           
       0.425495             0.00284444653            0.000468892881           
       0.426174             0.00314434899            0.000493164905           
       0.426853             0.00227610382            0.000417039092           
       0.427532             0.00333228267            0.000508871406           
       0.428212             0.00235683526            0.000430783628           
       0.428891             0.00257942781            0.000449642482           
       0.429570             0.00242135452            0.000435944982           
       0.430249             0.00162286911            0.000355045105           
       0.430928             0.00179371046            0.000381427922           
       0.431607             0.00265048493            0.000455692538           
       0.432287             0.00310216749            0.000496604948           
       0.432966             0.00290748983            0.000484999047           
       0.433645             0.00251200576            0.000451279275           
       0.434324             0.00247144259            0.000444922655           
       0.435003             0.00256807236            0.000454311793           
       0.435682             0.00139895629            0.000338064714           
       0.436361             0.00275770332            0.000474012628           
       0.437041             0.00130859947            0.000326091547           
       0.437720             0.00252724248             0.00045535422           
       0.438399             0.00250169533            0.000455410984           
       0.439078             0.00247822919            0.000466414016           
       0.439757             0.00279393268             0.00049218129           
       0.440436             0.00284705862            0.000508035652           
       0.441116             0.00210079023            0.000443538647           
       0.441795             0.00285865115            0.000518016536           
       0.442474             0.00298439516            0.000530762857           
       0.443153             0.00253748458            0.000500829162           
       0.443832             0.00185513121            0.000428949968           
       0.444511              0.0024224451            0.000487960898           
       0.445191             0.00204270023            0.000458983823           
       0.445870             0.00215146295            0.000471057428           
       0.446549              0.0029530481            0.000557696446           
       0.447228             0.00124036575            0.000359398709           
       0.447907             0.00254592761            0.000521080578           
       0.448586             0.00168906778            0.000434641564           
       0.449266             0.00219800744            0.000491257359           
       0.449945             0.00151702733            0.000406458449           
       0.450624             0.00287697932             0.00056863082           
       0.451303             0.00199054356            0.000479116739           
       0.451982             0.00308978357            0.000593234544           
       0.452661             0.00285685387            0.000581062588           
       0.453341             0.00241018473            0.000535578781           
       0.454020              0.0018267271            0.000466977923           
       0.454699             0.00281950088            0.000585455841           
       0.455378             0.00210613633            0.000506272416           
       0.456057             0.00245118941            0.000555885444           
       0.456736             0.00167249151            0.000457743764           
       0.457416             0.00242228762            0.000550890981           
       0.458095             0.00291080674            0.000612631849           
       0.458774             0.00245254765            0.000569775196           
       0.459453              0.0016701634            0.000472562384           
       0.460132             0.00210111691            0.000518588599           
       0.460811             0.00131622463            0.000425766273           
       0.461490             0.00171053322            0.000480432541           
       0.462170             0.00189986004            0.000514224143           
       0.462849             0.00193671323            0.000522555012           
       0.463528             0.00248732454            0.000590822888           
       0.464207             0.00184494599            0.000518362954           
       0.464886             0.00153609638            0.000469306348           
       0.465565            0.000414063867             0.00024633472           
       0.466245            0.000860057504            0.000356124033           
       0.466924             0.00106810926              0.0004062421           
       0.467603             0.00116114735            0.000414581489           
       0.468282             0.00153017064            0.000487208032           
       0.468961             0.00172052755            0.000520018742           
       0.469640             0.00174128455            0.000525233176           
       0.470320             0.00126911542            0.000448712229           
       0.470999             0.00111717509            0.000424966806           
       0.471678            0.000338493793            0.000236169751           
       0.472357              0.0013379377            0.000470844608           
       0.473036             0.00201291278            0.000581172198           
       0.473715            0.000512075464            0.000295422477           
       0.474395             0.00124378814            0.000466779707           
       0.475074             0.00107056191            0.000433069206           
       0.475753              0.0017374329            0.000546942607           
       0.476432            0.000764245034            0.000375953342           
       0.477111            0.000947990115            0.000413652515           
       0.477790            0.000576379447            0.000324266628           
       0.478470            0.000593854158            0.000333498221           
       0.479149            0.000625582447            0.000345831736           
       0.479828            0.000428688621            0.000285607743           
       0.480507             0.00102186515            0.000444511648           
       0.481186            0.000882375945             0.00042237138           
       0.481865            0.000258969944            0.000225985603           
       0.482545             0.00126774519             0.00050587556           
       0.483224           -0.000320312851                         0           
       0.483903            8.38757315e-05            0.000133073288           
       0.484582            -0.00011082016                         0           
       0.485261            0.000294450715            0.000246967454           
       0.485940            0.000778226822            0.000417697672           
       0.486619            0.000769226743            0.000410707193           
       0.487299            0.000110306382            0.000158006248           
       0.487978           -0.000106952954                         0           
       0.488657            0.000372245454             0.00029915936           
       0.489336            0.000590481111            0.000370176581           
       0.490015            0.000152454095            0.000189572421           
       0.490694           -0.000320524872                         0           
       0.491374           -9.63697657e-05                         0           
       0.492053           -0.000320563714                         0           
       0.492732           -0.000320583099                         0           
       0.493411           -0.000320602736                         0           
       0.494090           -5.91234198e-05                         0           
       0.494769           -0.000320641887                         0           
       0.495449           -5.52269456e-05                         0           
       0.496128            0.000218127557            0.000242582152           
       0.496807           -0.000320700762                         0           
       0.497486           -5.24504735e-05                         0           
       0.498165           -3.85082133e-05                         0           
       0.498844            -3.9359212e-05                         0           
       0.499524           -0.000320779826                         0           
       0.500203            0.000548781028            0.000398510158           
       0.500882            0.000278421794            0.000289859337           
       0.501561           -0.000320839307                         0           
       0.502240           -0.000320859306                         0           
       0.502919           -3.39170569e-06                         0           
       0.503599           -0.000320899208                         0           
       0.504278            0.000612923932            0.000441369399           
       0.504957            0.000320131414            0.000321120562           
       0.505636           -0.000320959418                         0           
       0.506315           -0.000320979651                         0           
       0.506994           -0.000320999522                         0           
       0.507673           -0.000321019353                         0           
       0.508353           -0.000321039602                         0           
       0.509032           -0.000321059765                         0           
       0.509711           -0.000321079935                         0           
       0.510390            3.83945967e-05            0.000117905277           
       0.511069           -0.000321120842                         0           
       0.511748           -0.000321141179                         0           
       0.512428           -0.000321161662                         0           
       0.513107           -0.000321181829                         0           
       0.513786            -0.00032120206                         0           
       0.514465           -0.000321222635                         0           
       0.515144           -0.000321243197                         0           
       0.515823           -0.000321263571                         0           
       0.516503           -0.000321284136                         0           
       0.517182             -0.0003213047                         0           
       0.517861           -0.000321325213                         0           
       0.518540           -0.000321345842                         0           
       0.519219           -0.000321366352                         0           
       0.519898           -0.000321387069                         0           
       0.520578            -0.00032140791                         0           
       0.521257           -0.000321428483                         0           
       0.521936            0.000145159046            0.000258704927           
       0.522615           -0.000321469973                         0           
       0.523294            -0.00032149092                         0           
       0.523973           -0.000321511576                         0           
       0.524653            0.000714859163             0.00061032787           
       0.525332            0.000162389408            0.000277965943           
       0.526011           -0.000321574071                         0           
       0.526690           -0.000321595211                         0           
       0.527369           -0.000321616177                         0           
       0.528048            0.000189409623            0.000310210744           
       0.528728           -0.000321658382                         0           
       0.529407            0.000201238228            0.000331144467           
       0.530086           -0.000321700258                         0           
       0.530765           -0.000321721172                         0           
       0.531444           -0.000321742311                         0           
       0.532123           -0.000321763824                         0           
       0.532802           -0.000321785163                         0           
       0.533482           -0.000321806427                         0           
       0.534161            0.000243345199            0.000372759468           
       0.534840            0.000259035274            0.000391144418           
       0.535519           -0.000321870351                         0           
       0.536198            0.000858869913            0.000714031402           
       0.536877           -0.000321912627                         0           
       0.537557            -0.00032193398                         0           
       0.538236           -0.000321955525                         0           
       0.538915           -0.000321977063                         0           
       0.539594           -0.000321998571                         0           
       0.540273           -0.000322020415                         0           
       0.540952           -0.000322042017                         0           
       0.541632           -0.000322063223                         0           
       0.542311           -0.000322084624                         0           
       0.542990           -0.000322106264                         0           
       0.543669           -0.000322128085                         0           
       0.544348           -0.000322149881                         0           
       0.545027            -0.00032217163                         0           
       0.545707           -0.000322193444                         0           
       0.546386           -0.000322215319                         0           
       0.547065           -0.000322236932                         0           
       0.547744           -0.000322258643                         0           
       0.548423           -0.000322280594                         0           
       0.549102           -0.000322302566                         0           
       0.549782           -0.000322324428                         0           
       0.550461            -0.00032234655                         0           
       0.551140           -0.000322368804                         0           
       0.551819           -0.000322390796                         0           
       0.552498           -0.000322412976                         0           
       0.553177           -0.000322434775                         0           
       0.553856           -0.000322456652                         0           
       0.554536           -0.000322478601                         0           
       0.555215           -0.000322500884                         0           
       0.555894            0.000523843714            0.000667396477           
       0.556573           -0.000322545479                         0           
       0.557252           -0.000322567824                         0           
       0.557931           -0.000322590067                         0           
       0.558611            -0.00032261283                         0           
       0.559290           -0.000322635015                         0           
       0.559969           -0.000322656654                         0           
       0.560648            0.000592624013            0.000736435488           
       0.561327           -0.000322701574                         0           
       0.562006           -0.000322724176                         0           
       0.562686           -0.000322746791                         0           
       0.563365            0.000696213949            0.000840796524           
       0.564044           -0.000322792073                         0           
       0.564723           -0.000322814607                         0           
       0.565402           -0.000322836721                         0           
       0.566081           -0.000322858982                         0           
       0.566761           -0.000322881483                         0           
       0.567440           -0.000322904441                         0           
       0.568119           -0.000322927217                         0           
       0.568798           -0.000322950314                         0           
       0.569477           -0.000322973262                         0           
       0.570156           -0.000322996322                         0           
       0.570836           -0.000323019295                         0           
       0.571515             0.00117551173             0.00133304444           
       0.572194           -0.000323064921                         0           
       0.572873           -0.000323087531                         0           
       0.573552           -0.000323110008                         0           
       0.574231            -0.00032313294                         0           
       0.574911           -0.000323156451                         0           
       0.575590           -0.000323179509                         0           
       0.576269           -0.000323202496                         0           
       0.576948           -0.000323225926                         0           
       0.577627            -0.00032324864                         0           
       0.578306           -0.000323271676                         0           
       0.578985             0.00163957904             0.00180363014           
       0.579665           -0.000323318006                         0           
       0.580344           -0.000323341454                         0           
       0.581023           -0.000323364876                         0           
       0.581702           -0.000323388082                         0           
       0.582381           -0.000323411077                         0           
       0.583060           -0.000323434758                         0           
       0.583740           -0.000323458067                         0           
       0.584419           -0.000323481454                         0           
       0.585098           -0.000323504812                         0           
       0.585777           -0.000323528353                         0           
       0.586456           -0.000323552276                         0           
       0.587135           -0.000323575564                         0           
       0.587815             -0.0003235986                         0           
       0.588494           -0.000323622354                         0           
       0.589173           -0.000323646653                         0           
       0.589852           -0.000323669661                         0           
       0.590531           -0.000323693537                         0           
       0.591210           -0.000323716861                         0           
       0.591890           -0.000323740636                         0           
       0.592569           -0.000323763616                         0           
       0.593248            -0.00032378874                         0           
       0.593927           -0.000323812627                         0           
       0.594606           -0.000323837005                         0           
       0.595285            -0.00032385993                         0           
       0.595965           -0.000323881324                         0           
       0.596644           -0.000323903338                         0           
