################################################################################
# EDF_DataBlockID                     0.Image.Psd
# EDF_BinarySize                      2105344
# EDF_HeaderSize                      2560
# ByteOrder                           LowByteFirst
# DataType                            FloatValue
# Dim_1                               512
# Dim_2                               1028
# Image                               0
# HeaderID                            EH:000000:000000:000000
# Size                                2105344
# Center_1                            304.9000
# Center_2                            588.7000
# Comment                             Xenocs_Cell_Window - 20251028_20perc_iodine_1.23mg
# DDummy                              0.6
# Date                                2025-10-29T18:38:22
# Delta                               21.910000
# Dummy                               -1.5
# ExposureTime                        360
# Gamma                               15.360000
# Intensity1                          8.45825e-10
# PSize_1                             7.5e-05
# PSize_2                             7.5e-05
# Pressure                            0.0326614
# SampleDistance                      0.115750
# SampleEnvKind                       large
# SampleEnvPN                         ElectroChemical cell
# SampleEnvSN                         1141
# Thickness                           0
# Wavelength                          1.541891e-10
# Wavelength                          1.54189e-10
# aux                                 0
# aux_dial                            0.002375
# beamx                               588.434
# beamx_dial                          588.434
# beamz                               657.808
# beamz_dial                          657.808
# det0x                               0
# det0x_dial                          6.36945
# det0xvd                             0
# det0xvd_dial                        0
# det0y                               450.002
# det0y_dial                          481.635
# det0z                               0
# det0z_dial                          1.23302
# det0zvd                             0
# det0zvd_dial                        0
# mag                                 1.818
# mag_dial                            1.818
# om                                  0.2499
# om_dial                             -0.610199
# phi                                 -0.0120535
# phi_dial                            0
# ry                                  0.599993
# ry_dial                             0.599993
# s1bot                               0.8
# s1bot_dial                          -1.66094
# s1hl                                0.8
# s1hl_dial                           -0.608437
# s1hr                                0.8
# s1hr_dial                           0.970938
# s1top                               0.8
# s1top_dial                          -0.461562
# s2bot                               0.45
# s2bot_dial                          1.36109
# s2hl                                0.45
# s2hl_dial                           -0.83375
# s2hr                                0.45
# s2hr_dial                           -0.118594
# s2top                               0.45
# s2top_dial                          1.44734
# w2theta                             32
# w2theta_dial                        32
# waxsch                              19.2605
# waxsch_dial                         -32.7355
# waxsh                               137.085
# waxsh_dial                          -43.5338
# waxsth                              26.0607
# waxsth_dial                         -19.4086
# waxsz                               67.0407
# waxsz_dial                          -23.7954
# wind                                65.9854
# wind_dial                           66.0041
# wpsi                                124
# wpsi_dial                           124
# wstod                               115
# wstod_dial                          115
# x                                   0
# x_dial                              1.00969
# z                                   0
# z_dial                              13.3172
# CountCutoff                         6807993
# DetectorModel                       Dectris EIGER2 Si 500K, S/N E-01-0554
# ThresholdSetting                    4023.88989258
# Saturation                          0
# FlatField                           Corrected
# BackgroundReductionExtra            0.02
# BackgroundCorrectionConstant        0.0026712
# Detector                            0
# Monitor                             0
# Pil_Roi0                            0
# SumForIntensity1                    3.04497e+08
# TransmittedFlux                     845825
# det                                 0
# mon                                 0
# pilai0                              3.04497e+08
# pilai1                              768446
# pilct0                              5.27693e+08
# pilct1                              768446
# pilroi0                             0
# pilroi1                             0
# sec                                 1
# title                               20251028_20perc_iodine_1.23mg_1_00257.edf
# usaxs0                              0
# Operation                           Azimuthal average I(q)
# Error_model                         ErrorModel.poisson
# Geometrical_correction              True
# Transmission_correction             True
# Thickness_correction                False
# Binning mode                        Uniform
# Binning factor                      1.0
# Psi                                 0.0
# Omega                               0.2499
# MaskInvalidPixels                   True
# DetectorEdge                        3
# MaskFiles                           ['WAXS_corrected.edf']
################################################################################
    q(A⁻¹)                Intensity(a.u.)            Sigma_I(a.u.)            
       0.693100             0.00417114214             0.00432913675           
       0.695741             0.00281656245             0.00290296113           
       0.698381             0.00421751309             0.00435133586           
       0.701021            -2.3966221e-05                         0           
       0.703662              0.0144102696             0.00656329745           
       0.706302             0.00167848878             0.00173421289           
       0.708942             0.00570216936             0.00412557322           
       0.711583              0.0110557112             0.00497443063           
       0.714223              0.0058474163             0.00417668732           
       0.716864             0.00764801495             0.00312532441           
       0.719504             0.00298966447             0.00210862728           
       0.722144             0.00376584217             0.00219162614           
       0.724785              0.0104628845             0.00291402003           
       0.727425              0.0133673386             0.00445583746           
       0.730065             0.00814656052             0.00246056718           
       0.732706             0.00772884186              0.0020125841           
       0.735346             0.00528286392             0.00216898051           
       0.737987             0.00792071599             0.00187672323           
       0.740627             0.00582365771             0.00240105668           
       0.743267             0.00791798031             0.00187522706           
       0.745908             0.00628033133             0.00181195186           
       0.748548             0.00619389855             0.00165863892           
       0.751189             0.00649556787             0.00228873178           
       0.753829             0.00884377488             0.00245488009           
       0.756469             0.00660166084             0.00171029646           
       0.759110             0.00589918299             0.00170377115           
       0.761750             0.00807896547             0.00176300631           
       0.764390              0.0130281245              0.0023432704           
       0.767031             0.00882559251             0.00167013875           
       0.769671             0.00691303829             0.00184386762           
       0.772312             0.00907815031             0.00160858973           
       0.774952             0.00468543262             0.00156056252           
       0.777592             0.00548175565             0.00122948533           
       0.780233             0.00642274809             0.00160563834           
       0.782873             0.00770219272             0.00168165579           
       0.785513              0.0100777254             0.00205643484           
       0.788154             0.00702792518             0.00143658433           
       0.790794             0.00459986708              0.0013894702           
       0.793435             0.00636722655             0.00146859473           
       0.796075             0.00594735142             0.00136727155           
       0.798715             0.00436712931             0.00138453439           
       0.801356             0.00640562612             0.00144318641           
       0.803996             0.00505925461             0.00130760816           
       0.806637             0.00662073145              0.0011904182           
       0.809277             0.00728187218              0.0013512927           
       0.811917             0.00678782997             0.00121963824           
       0.814558             0.00656935789             0.00124702992           
       0.817198             0.00706866826             0.00122893595           
       0.819838             0.00674854123             0.00121528354           
       0.822479             0.00694257859             0.00144744532           
       0.825119             0.00980813556             0.00146429546           
       0.827760             0.00763338459             0.00130853967           
       0.830400             0.00773050953             0.00123938885           
       0.833040             0.00740851713             0.00127116765           
       0.835681             0.00786136276              0.0014886109           
       0.838321             0.00654206739             0.00113978648           
       0.840961              0.0063631804             0.00122475466           
       0.843602             0.00705381442             0.00118253139           
       0.846242             0.00592438327             0.00108357121           
       0.848883             0.00912510988              0.0013762005           
       0.851523             0.00724270964             0.00121083417           
       0.854163             0.00896240624             0.00143240429           
       0.856804              0.0086921574             0.00126836144           
       0.859444             0.00760547131             0.00116247266           
       0.862085             0.00695699541             0.00115878422           
       0.864725             0.00545587552             0.00105019028           
       0.867365             0.00554230797            0.000981515115           
       0.870006             0.00677477658              0.0010340869           
       0.872646             0.00937912091             0.00127589921           
       0.875286             0.00706673136             0.00106548564           
       0.877927             0.00640536919            0.000978851301           
       0.880567              0.0043344848            0.000834222028           
       0.883208             0.00834678858              0.0011467316           
       0.885848             0.00709523002              0.0010977629           
       0.888488             0.00832737975             0.00111545936           
       0.891129             0.00770495325             0.00110170864           
       0.893769             0.00721162457             0.00102005138           
       0.896410             0.00574557644            0.000848890085           
       0.899050             0.00681547978             0.00101675943           
       0.901690             0.00808082041             0.00120598377           
       0.904331             0.00607362379             0.00092692243           
       0.906971             0.00931096918             0.00122093145           
       0.909611             0.00768677039             0.00100985706           
       0.912252             0.00677096548            0.000978970076           
       0.914892             0.00676400298             0.00106925543           
       0.917533             0.00903886636             0.00116930017           
       0.920173             0.00794030288             0.00101681869           
       0.922813             0.00714332234             0.00101207089           
       0.925454             0.00802097227            0.000965705593           
       0.928094             0.00753792916            0.000999446269           
       0.930734             0.00597473981            0.000957969256           
       0.933375             0.00661479758             0.00099806733           
       0.936015             0.00768288269            0.000976903788           
       0.938656             0.00802101545              0.0010708002           
       0.941296             0.00668523138            0.000885956016           
       0.943936             0.00903110244              0.0010098121           
       0.946577             0.00611591634            0.000825505995           
       0.949217             0.00855402148            0.000897778499           
       0.951858             0.00722923869            0.000863961128           
       0.954498             0.00788268582             0.00104423778           
       0.957138             0.00769479838            0.000977411394           
       0.959779             0.00748212368            0.000950118101           
       0.962419             0.00797088129             0.00097413666           
       0.965059              0.0078963256             0.00101973412           
       0.967700             0.00662086706            0.000956348038           
       0.970340              0.0104833225             0.00106488501           
       0.972981             0.00797956976            0.000846461273           
       0.975621             0.00732742882            0.000862907907           
       0.978261             0.00844057542            0.000879991874           
       0.980902             0.00798811068             0.00102425777           
       0.983542             0.00710590673            0.000855495066           
       0.986182             0.00764941486            0.000871449402           
       0.988823             0.00776383659            0.000852484059           
       0.991463             0.00787442103            0.000915965972           
       0.994104             0.00821591328            0.000912708461           
       0.996744             0.00750946393            0.000890031522           
       0.999384             0.00801505991            0.000822345463           
       1.002025             0.00873594679             0.00095823385           
       1.004665             0.00844684674            0.000861095316           
       1.007306             0.00668636619            0.000762202433           
       1.009946             0.00805278831            0.000853078491           
       1.012586             0.00682875735            0.000765102089           
       1.015227             0.00640731504            0.000796191332           
       1.017867             0.00767425559            0.000837437056           
       1.020507             0.00859595182            0.000858502553           
       1.023148              0.0100839445             0.00100332649           
       1.025788             0.00785918913            0.000812171812           
       1.028429             0.00774369056            0.000844608115           
       1.031069             0.00717880092            0.000765269798           
       1.033709             0.00699825952            0.000803189296           
       1.036350             0.00788296602            0.000765614526           
       1.038990              0.0094029148            0.000851539714           
       1.041630             0.00948872627             0.00089220804           
       1.044271             0.00756134579            0.000749037826           
       1.046911             0.00656959999            0.000734404868           
       1.049552             0.00899018483            0.000902607423           
       1.052192             0.00779490798            0.000767451887           
       1.054832             0.00815937327            0.000792331486           
       1.057473              0.0085362507            0.000798906595           
       1.060113             0.00746676788            0.000728709568           
       1.062754             0.00673857935            0.000706790271           
       1.065394             0.00803575981            0.000816020461           
       1.068034             0.00926025482            0.000797030591           
       1.070675             0.00694940637            0.000720232705           
       1.073315             0.00820959734            0.000794037037           
       1.075955             0.00923734618            0.000795154893           
       1.078596             0.00842060257            0.000806866928           
       1.081236             0.00836375924            0.000770015511           
       1.083877             0.00835312475            0.000762622687           
       1.086517             0.00775294907            0.000787829123           
       1.089157             0.00888058881               0.000874892           
       1.091798              0.0090648188             0.00077494753           
       1.094438             0.00820976417            0.000735112988           
       1.097078             0.00879954465            0.000729936327           
       1.099719             0.00836079658            0.000769602771           
       1.102359             0.00769796953            0.000691582852           
       1.105000             0.00808169681            0.000792364298           
       1.107640             0.00888364783            0.000794330148           
       1.110280             0.00951256162            0.000749981746           
       1.112921             0.00818846175            0.000747471815           
       1.115561              0.0098205022            0.000777990641           
       1.118202             0.00901578577            0.000746136602           
       1.120842             0.00867122355            0.000769063387           
       1.123482              0.0102779147            0.000833630239           
       1.126123             0.00975428141            0.000778956263           
       1.128763             0.00895806863            0.000751605803           
       1.131403             0.00859615646             0.00070945591           
       1.134044             0.00924412753            0.000757046616           
       1.136684             0.00866486316            0.000781444886           
       1.139325              0.0101193948            0.000777943699           
       1.141965             0.00962998921            0.000763915672           
       1.144605             0.00870750329            0.000692630142           
       1.147246             0.00968871714            0.000747719736           
       1.149886             0.00924182439            0.000727679427           
       1.152527               0.010545616            0.000788619021           
       1.155167             0.00853407255            0.000674775808           
       1.157807             0.00858800012            0.000725762156           
       1.160448             0.00808725603            0.000687753054           
       1.163088             0.00977660415            0.000721285708           
       1.165728              0.0103284102            0.000761169903           
       1.168369             0.00952984717            0.000737907091           
       1.171009             0.00918615875            0.000703087036           
       1.173650             0.00990942651            0.000749401663           
       1.176290             0.00827901744            0.000669382046           
       1.178930             0.00941937866            0.000699781102           
       1.181571             0.00930962367            0.000709488044           
       1.184211             0.00870192673            0.000688373005           
       1.186851             0.00863871531            0.000670563506           
       1.189492             0.00916039224            0.000685868364           
       1.192132             0.00982425074            0.000702316903           
       1.194773             0.00918710317            0.000682128367           
       1.197413              0.0100584028            0.000683866001           
       1.200053             0.00993701089            0.000696997604           
       1.202694             0.00865871439            0.000618706237           
       1.205334               0.010878147            0.000747356639           
       1.207975             0.00924088764            0.000657500437           
       1.210615              0.0106814639            0.000779824715           
       1.213255              0.0100802387             0.00067837751           
       1.215896             0.00927122335            0.000662373721           
       1.218536             0.00973345264            0.000652584345           
       1.221176              0.0089006136            0.000678460665           
       1.223817              0.0104386704            0.000689718634           
       1.226457             0.00824700078            0.000625402822           
       1.229098             0.00962128503            0.000675471766           
       1.231738              0.0102384005            0.000700227102           
       1.234378             0.00961741632            0.000637702797           
       1.237019             0.00937898853            0.000648949829           
       1.239659             0.00956047136            0.000649490877           
       1.242299              0.0103112488            0.000665941247           
       1.244940              0.0103997594            0.000650443437           
       1.247580             0.00950395721            0.000640814871           
       1.250221             0.00940959698            0.000633691382           
       1.252861              0.0100613548            0.000623820528           
       1.255501              0.0105354121            0.000693123427           
       1.258142              0.0106214254             0.00065396714           
       1.260782             0.00966751896            0.000637409841           
       1.263423              0.0116153303            0.000671350476           
       1.266063              0.0118154749            0.000694018154           
       1.268703             0.00990872608            0.000630282597           
       1.271344             0.00882034547            0.000614814132           
       1.273984               0.010292186            0.000641421162           
       1.276624             0.00985125131            0.000615741848           
       1.279265             0.00976807033            0.000623318864           
       1.281905              0.0102552803            0.000641509141           
       1.284546             0.00997032287            0.000611401217           
       1.287186             0.00991392051            0.000598150382           
       1.289826             0.00997646825            0.000632387028           
       1.292467             0.00977377506            0.000612143296           
       1.295107             0.00987598383            0.000609223204           
       1.297747               0.010382155            0.000597728895           
       1.300388               0.010037061            0.000640679122           
       1.303028             0.00991537163            0.000607911729           
       1.305669              0.0104609432            0.000639280124           
       1.308309              0.0106719106            0.000639335607           
       1.310949              0.0114054289            0.000660278175           
       1.313590               0.011539424            0.000643385003           
       1.316230              0.0106809873            0.000660549703           
       1.318871              0.0105667896            0.000643459668           
       1.321511              0.0111209096            0.000647880114           
       1.324151             0.00980138662            0.000590198784           
       1.326792              0.0115128826            0.000643610773           
       1.329432              0.0104717119            0.000609487093           
       1.332072              0.0110418578            0.000616532132           
       1.334713               0.011013318            0.000635499467           
       1.337353             0.00978276855            0.000574400262           
       1.339994              0.0111911046            0.000644705591           
       1.342634              0.0121790097             0.00064494267           
       1.345274                0.01118898            0.000639751462           
       1.347915              0.0104650243            0.000601623047           
       1.350555              0.0109136993            0.000625144859           
       1.353195              0.0117638797            0.000652225498           
       1.355836              0.0105085795            0.000606832921           
       1.358476              0.0113032943            0.000611204824           
       1.361117              0.0105296682            0.000590727667           
       1.363757              0.0100114293            0.000593595457           
       1.366397              0.0106162436            0.000592765242           
       1.369038               0.010657101            0.000599818442           
       1.371678              0.0116259362            0.000620966971           
       1.374319              0.0105571164             0.00058663956           
       1.376959              0.0108941271            0.000589936546           
       1.379599             0.00955754435            0.000592180809           
       1.382240              0.0107779421            0.000591027358           
       1.384880              0.0104153759            0.000615412437           
       1.387520              0.0103753274            0.000583351402           
       1.390161              0.0112343868            0.000576524544           
       1.392801              0.0120043437            0.000620925709           
       1.395442              0.0115884494            0.000618407038           
       1.398082               0.010900936            0.000561670001           
       1.400722              0.0112055443            0.000596499829           
       1.403363              0.0113523272            0.000631987562           
       1.406003              0.0109579361             0.00058109078           
       1.408644              0.0110775665            0.000612044185           
       1.411284              0.0110451795            0.000578703716           
       1.413924              0.0112942048            0.000583021641           
       1.416565              0.0119268273            0.000596774136           
       1.419205              0.0107191721              0.0005901724           
       1.421845              0.0105707848            0.000585729105           
       1.424486              0.0112113626            0.000579828614           
       1.427126              0.0109926805            0.000596426529           
       1.429767              0.0110149617            0.000561733293           
       1.432407              0.0112555284            0.000594251846           
       1.435047              0.0112005845            0.000556737264           
       1.437688              0.0111545372             0.00056389874           
       1.440328              0.0106807835            0.000563167621           
       1.442968              0.0107585139             0.00057787708           
       1.445609              0.0115441069             0.00057961452           
       1.448249              0.0102707276            0.000560555781           
       1.450890              0.0119485021            0.000600663231           
       1.453530              0.0105581449            0.000590722225           
       1.456170              0.0110462463            0.000586412069           
       1.458811              0.0112434315            0.000565722401           
       1.461451              0.0107139523            0.000553689848           
       1.464092              0.0109301042            0.000562903507           
       1.466732               0.010402238            0.000544423756           
       1.469372              0.0102459732            0.000527673929           
       1.472013              0.0114600963            0.000601882007           
       1.474653              0.0107682183            0.000574430374           
       1.477293              0.0110769743            0.000594886886           
       1.479934              0.0110802017            0.000567729055           
       1.482574              0.0110147803            0.000547565456           
       1.485215             0.00949971288            0.000517985724           
       1.487855              0.0127238292            0.000607383609           
       1.490495              0.0117942794            0.000582622748           
       1.493136              0.0118302471            0.000575512343           
       1.495776              0.0114369928            0.000563289501           
       1.498416              0.0107944498            0.000565141734           
       1.501057              0.0102069285            0.000537435575           
       1.503697              0.0104540182            0.000531750771           
       1.506338              0.0105023078            0.000542716863           
       1.508978              0.0112904486            0.000557178593           
       1.511618             0.00953573665            0.000545335243           
       1.514259             0.00991588872            0.000536887719           
       1.516899              0.0101160722            0.000528000983           
       1.519540              0.0095898596            0.000522374959           
       1.522180                 0.0104439            0.000549928179           
       1.524820              0.0106171516            0.000551359897           
       1.527461              0.0095055974            0.000524280203           
       1.530101             0.00994054881            0.000530778907           
       1.532741              0.0102853934            0.000536773681           
       1.535382              0.0105373745            0.000552055695           
       1.538022              0.0104159395            0.000517060331           
       1.540663               0.010119912            0.000548170568           
       1.543303              0.0101583103            0.000509950031           
       1.545943              0.0102187166            0.000541346868           
       1.548584              0.0100691332            0.000547016221           
       1.551224              0.0101510729            0.000507821921           
       1.553864              0.0105510968            0.000547079677           
       1.556505             0.00987718369             0.00051133687           
       1.559145              0.0102071314            0.000526174914           
       1.561786              0.0110648521            0.000548258583           
       1.564426              0.0105247739            0.000518079163           
       1.567066              0.0105359475             0.00054313557           
       1.569707              0.0102861483            0.000527018214           
       1.572347              0.0112468145            0.000569319884           
       1.574988              0.0102745557            0.000517944906           
       1.577628             0.00941680193            0.000517053384           
       1.580268             0.00997595108            0.000515628442           
       1.582909             0.00939376099             0.00053035789           
       1.585549             0.00976997465            0.000525171238           
       1.588189             0.00909347907            0.000495604956           
       1.590830             0.00927974855            0.000500026798           
       1.593470             0.00962485432            0.000529403503           
       1.596111             0.00945439577            0.000512264955           
       1.598751              0.0084888434            0.000470338763           
       1.601391             0.00957494059            0.000510542757           
       1.604032             0.00901095599            0.000505632418           
       1.606672             0.00966770916            0.000508857883           
       1.609312             0.00880045026            0.000506802805           
       1.611953             0.00907816367            0.000503702451           
       1.614593             0.00938455832            0.000502361008           
       1.617234             0.00884614238             0.00050547959           
       1.619874             0.00919832472            0.000513407322           
       1.622514             0.00953379561            0.000515555486           
       1.625155             0.00986543563             0.00052754398           
       1.627795             0.00946856095            0.000504160717           
       1.630436             0.00870783015            0.000480959276           
       1.633076             0.00885397276            0.000491339114           
       1.635716             0.00946597156            0.000500131804           
       1.638357             0.00891685025            0.000486688224           
       1.640997             0.00905402988            0.000505273363           
       1.643637             0.00952956913             0.00050443501           
       1.646278             0.00861388712            0.000494656552           
       1.648918             0.00899942934            0.000506984613           
       1.651559             0.00870011419            0.000502351292           
       1.654199             0.00934117379            0.000506261158           
       1.656839             0.00977600226            0.000518091061           
       1.659480             0.00848633011            0.000500835646           
       1.662120             0.00938917494            0.000496162494           
       1.664761             0.00913619008            0.000508394008           
       1.667401             0.00899278769            0.000482087246           
       1.670041             0.00846887179            0.000474966833           
       1.672682             0.00926714123            0.000494805698           
       1.675322             0.00887446212            0.000481095263           
       1.677962             0.00880004678            0.000473789144           
       1.680603             0.00844609024            0.000465591297           
       1.683243             0.00941522806             0.00051286994           
       1.685884             0.00901226822            0.000505480263           
       1.688524             0.00905397931             0.00049685507           
       1.691164             0.00916823991            0.000500093862           
       1.693805             0.00839659997            0.000483843769           
       1.696445              0.0091909467            0.000509149692           
       1.699085             0.00788169589            0.000455694105           
       1.701726             0.00860629796             0.00045871695           
       1.704366             0.00817228275            0.000470903079           
       1.707007             0.00871271196            0.000475385678           
       1.709647             0.00883082972            0.000484002058           
       1.712287             0.00782718125              0.0004596349           
       1.714928             0.00848751105            0.000482489623           
       1.717568             0.00831601983            0.000449892021           
       1.720209             0.00854293136            0.000477616437           
       1.722849             0.00830051641            0.000468370843           
       1.725489             0.00904923305            0.000489449289           
       1.728130             0.00889606519            0.000515726627           
       1.730770             0.00897257446            0.000491903415           
       1.733410             0.00814956603            0.000461431918           
       1.736051             0.00920740679            0.000493880037           
       1.738691             0.00836299101             0.00046114707           
       1.741332             0.00856637568            0.000480368067           
       1.743972             0.00804840795            0.000480830543           
       1.746612             0.00849271708            0.000474293236           
       1.749253             0.00886676368            0.000494195967           
       1.751893             0.00822240636            0.000472407236           
       1.754533             0.00885452801            0.000489772067           
       1.757174             0.00831536845            0.000470181942           
       1.759814             0.00889479179            0.000478916306           
       1.762455             0.00803575966            0.000463561581           
       1.765095             0.00843662598            0.000454379299           
       1.767735             0.00934661119            0.000493011098           
       1.770376             0.00901046958            0.000485340723           
       1.773016             0.00876299511            0.000475423338           
       1.775657             0.00901650006            0.000475312143           
       1.778297             0.00935002456            0.000479855463           
       1.780937              0.0090575011            0.000498501367           
       1.783578             0.00823731125            0.000463508414           
       1.786218             0.00909813804            0.000508369082           
       1.788858             0.00866115385            0.000471090158           
       1.791499             0.00858178236            0.000463660156           
       1.794139             0.00926359003            0.000477818333           
       1.796780             0.00944297117            0.000480096701           
       1.799420             0.00822122223            0.000445482741           
       1.802060             0.00880076109            0.000464640049           
       1.804701             0.00957658435            0.000465128206           
       1.807341             0.00925856326             0.00048056483           
       1.809981             0.00951894852            0.000488900207           
       1.812622             0.00878969888            0.000461341778           
       1.815262              0.0091949661            0.000481880829           
       1.817903             0.00863471259            0.000460050483           
       1.820543             0.00855794445            0.000465137531           
       1.823183             0.00901575993            0.000477154476           
       1.825824             0.00885871653             0.00045186641           
       1.828464             0.00881168577            0.000469838099           
       1.831105             0.00904625458            0.000462888834           
       1.833745             0.00886279121            0.000467956106           
       1.836385              0.0093503721            0.000494373104           
       1.839026             0.00911704192            0.000486623481           
       1.841666             0.00811179487            0.000457384929           
       1.844306             0.00858628467            0.000457732139           
       1.846947             0.00870281867            0.000464867361           
       1.849587             0.00957592986            0.000538460676           
       1.852228             0.00833708922             0.00045431618           
       1.854868             0.00845142223            0.000483197391           
       1.857508             0.00932876446            0.000502679534           
       1.860149             0.00881890286            0.000497629486           
       1.862789             0.00824258915            0.000464367731           
       1.865429             0.00868776851            0.000497646752           
       1.868070             0.00805110671            0.000472680342           
       1.870710             0.00817099747            0.000465208443           
       1.873351             0.00935004889            0.000503793949           
       1.875991             0.00871469847            0.000494313816           
       1.878631             0.00843539671            0.000477013797           
       1.881272             0.00868399362            0.000480748841           
       1.883912             0.00899449275            0.000509185711           
       1.886553             0.00811350532            0.000478199775           
       1.889193             0.00862051968            0.000492072541           
       1.891833              0.0088063795            0.000516516161           
       1.894474             0.00939436089             0.00052883477           
       1.897114             0.00768262104             0.00046277774           
       1.899754             0.00865102031             0.00049313378           
       1.902395             0.00829064736            0.000473314957           
       1.905035             0.00820545992            0.000498737657           
       1.907676             0.00887836955            0.000488956272           
       1.910316             0.00853395641            0.000492106896           
       1.912956             0.00849336323            0.000480134475           
       1.915597             0.00874554684            0.000489933326           
       1.918237             0.00783900303            0.000479040163           
       1.920878             0.00886050265            0.000507211618           
       1.923518              0.0091299631            0.000515084824           
       1.926158             0.00874738256             0.00049763487           
       1.928799             0.00911985428            0.000502237681           
       1.931439             0.00823703053            0.000489829521           
       1.934079             0.00955154036            0.000549872676           
       1.936720             0.00807035528            0.000468307161           
       1.939360               0.008651609            0.000517297729           
       1.942001             0.00778771455            0.000449835669           
       1.944641             0.00798963462            0.000464604915           
       1.947281             0.00872405592            0.000481014191           
       1.949922              0.0083873724            0.000487163525           
       1.952562             0.00806319807            0.000492628683           
       1.955202              0.0087901595            0.000513729725           
       1.957843             0.00773879369            0.000469528368           
       1.960483             0.00804894768            0.000500631571           
       1.963124             0.00752410506            0.000474104097           
       1.965764             0.00803899809             0.00046213817           
       1.968404             0.00861651801            0.000473929657           
       1.971045             0.00832004334            0.000474810604           
       1.973685             0.00790795071             0.00048555024           
       1.976326             0.00735286535            0.000461764222           
       1.978966             0.00886197749            0.000511389694           
       1.981606             0.00833512172            0.000506298869           
       1.984247             0.00785482422            0.000488263789           
       1.986887             0.00832200819            0.000496554131           
       1.989527             0.00770165861            0.000472543953           
       1.992168             0.00804627767            0.000501153961           
       1.994808             0.00782913695             0.00049222647           
       1.997449             0.00917547024            0.000521927799           
       2.000089             0.00760821786            0.000473382802           
       2.002729             0.00789411309            0.000482484063           
       2.005370              0.0086299015            0.000499040766           
       2.008010             0.00775503862            0.000493715991           
       2.010650             0.00886771609            0.000531887403           
       2.013291             0.00739587413             0.00046604569           
       2.015931             0.00773936971            0.000473375364           
       2.018572             0.00881510726            0.000540363299           
       2.021212             0.00794504825             0.00050378649           
       2.023852             0.00778076571            0.000471854846           
       2.026493             0.00802537765             0.00050062485           
       2.029133              0.0078198767            0.000484228918           
       2.031774              0.0075653187            0.000499847622           
       2.034414             0.00711057791             0.00044589219           
       2.037054             0.00802400104            0.000485672652           
       2.039695             0.00773277896            0.000473176834           
       2.042335             0.00799892741            0.000500125333           
       2.044975             0.00742135393            0.000475888871           
       2.047616             0.00771382748            0.000483970377           
       2.050256             0.00782267693            0.000491985342           
       2.052897             0.00711967133            0.000478011123           
       2.055537             0.00752174556            0.000474845278           
       2.058177             0.00807397966            0.000481769082           
       2.060818             0.00763519828            0.000490785138           
       2.063458             0.00729144599            0.000499801083           
       2.066098             0.00853292314            0.000510041153           
       2.068739             0.00691164278            0.000466171462           
       2.071379             0.00827802208            0.000523479513           
       2.074020             0.00776392755             0.00049594628           
       2.076660             0.00759468343            0.000494476253           
       2.079300             0.00789154835             0.00051639797           
       2.081941             0.00745114969            0.000459438564           
       2.084581             0.00775689489            0.000494791248           
       2.087222             0.00741460745            0.000466531885           
       2.089862             0.00685293262            0.000488499595           
       2.092502             0.00755225964            0.000497105184           
       2.095143             0.00648502151            0.000475683965           
       2.097783             0.00837185302            0.000523268349           
       2.100423             0.00786652115              0.0004887629           
       2.103064             0.00745194446             0.00049361237           
       2.105704             0.00753569186             0.00049391962           
       2.108345             0.00782318429            0.000483491698           
       2.110985             0.00739799753            0.000502174909           
       2.113625             0.00795282866            0.000525208977           
       2.116266             0.00764735467            0.000522330346           
       2.118906             0.00802688605            0.000498715648           
       2.121546             0.00708194133             0.00045949777           
       2.124187              0.0076147069            0.000500144365           
       2.126827             0.00694977963            0.000483141676           
       2.129468             0.00787124865            0.000515488191           
       2.132108             0.00744508073             0.00048776483           
       2.134748             0.00709622343            0.000474352476           
       2.137389             0.00824512385            0.000533425592           
       2.140029              0.0078416336            0.000465723562           
       2.142670             0.00777510141            0.000495612823           
       2.145310             0.00742392353            0.000471368943           
       2.147950             0.00862199173            0.000522851545           
       2.150591             0.00755494289            0.000484483344           
       2.153231             0.00721589894            0.000487381724           
       2.155871             0.00767828184            0.000485694368           
       2.158512             0.00769374349            0.000507297631           
       2.161152             0.00753669497            0.000486358925           
       2.163793             0.00762946619            0.000487140159           
       2.166433             0.00798122193            0.000511643479           
       2.169073              0.0080395829             0.00050207822           
       2.171714             0.00768861395            0.000487326353           
       2.174354              0.0076875329            0.000509175224           
       2.176995             0.00806523886            0.000519339224           
       2.179635             0.00714573933            0.000516563884           
       2.182275              0.0074090876            0.000496624119           
       2.184916             0.00752117431              0.0004832891           
       2.187556              0.0078865536            0.000489928804           
       2.190196             0.00788037941            0.000511768557           
       2.192837             0.00726366595            0.000488662034           
       2.195477             0.00821388904            0.000495417883           
       2.198118             0.00694658919             0.00046727339           
       2.200758             0.00777824091            0.000507279841           
       2.203398             0.00784332523            0.000512656546           
       2.206039             0.00807650694            0.000492345476           
       2.208679             0.00757745163            0.000487990283           
       2.211319             0.00670443439            0.000461665698           
       2.213960             0.00711543673            0.000481978315           
       2.216600             0.00754546078            0.000513441224           
       2.219241             0.00811652276            0.000508941632           
       2.221881              0.0073447362            0.000485135541           
       2.224521               0.006725682            0.000469929373           
       2.227162             0.00817022224            0.000507571864           
       2.229802             0.00674527961            0.000475627849           
       2.232443             0.00807135673            0.000512077724           
       2.235083             0.00709486708            0.000494265096           
       2.237723             0.00739372938             0.00048420612           
       2.240364             0.00636300494            0.000460255654           
       2.243004             0.00728157137            0.000488427252           
       2.245644             0.00688858029            0.000479819201           
       2.248285             0.00665708498            0.000462238676           
       2.250925             0.00768025557            0.000499507773           
       2.253566             0.00685979299            0.000504683056           
       2.256206             0.00767303997            0.000523088545           
       2.258846             0.00772191003            0.000499184014           
       2.261487             0.00719073584            0.000505598523           
       2.264127             0.00673731066            0.000472653088           
       2.266767             0.00727319973            0.000504175003           
       2.269408             0.00781237575            0.000524668425           
       2.272048             0.00776862325            0.000520074155           
       2.274689             0.00629147472            0.000474192307           
       2.277329             0.00712837857            0.000475251728           
       2.279969              0.0063937879            0.000479103938           
       2.282610             0.00712670871            0.000491750787           
       2.285250             0.00718272407            0.000472518429           
       2.287891             0.00650110823             0.00048197422           
       2.290531             0.00705494776            0.000508834097           
       2.293171             0.00624424983            0.000466303542           
       2.295812             0.00746502754            0.000507802754           
       2.298452             0.00695688737            0.000512634894           
       2.301092             0.00724667832            0.000486119813           
       2.303733             0.00652978123            0.000480067536           
       2.306373             0.00692150291            0.000502041268           
       2.309014             0.00748945466            0.000512045414           
       2.311654               0.006789372            0.000508756991           
       2.314294             0.00660274235            0.000462232602           
       2.316935             0.00707613541            0.000480492954           
       2.319575             0.00723907589            0.000509208774           
       2.322215              0.0068062114             0.00051457076           
       2.324856             0.00684463945             0.00047442812           
       2.327496             0.00781851751            0.000539161508           
       2.330137             0.00735249251            0.000500324714           
       2.332777             0.00766986651            0.000526904777           
       2.335417             0.00757136675            0.000507883435           
       2.338058             0.00755899654            0.000522627561           
       2.340698             0.00686122569            0.000494008867           
       2.343339             0.00776838429            0.000537220602           
       2.345979             0.00678546169            0.000475012086           
       2.348619             0.00715203304            0.000505500361           
       2.351260             0.00652764472            0.000480117198           
       2.353900             0.00784128664            0.000524547396           
       2.356540             0.00743288567            0.000509979674           
       2.359181             0.00686957382              0.0004834008           
       2.361821             0.00647768207            0.000453437492           
       2.364462             0.00765785314            0.000515633186           
       2.367102             0.00751981514            0.000525097998           
       2.369742             0.00716441539            0.000539482998           
       2.372383             0.00754219354            0.000501214345           
       2.375023              0.0075160438            0.000525970704           
       2.377663             0.00642354944            0.000464920858           
       2.380304             0.00781520817            0.000521366836           
       2.382944             0.00735865225            0.000481862157           
       2.385585             0.00749339632            0.000518598086           
       2.388225             0.00729885126            0.000509416813           
       2.390865             0.00762914097            0.000515465488           
       2.393506             0.00686582217            0.000479773547           
       2.396146             0.00697729032            0.000522946886           
       2.398787             0.00766411642            0.000505099737           
       2.401427             0.00706949344            0.000468243006           
       2.404067             0.00732714831            0.000487332507           
       2.406708             0.00760403878             0.00049050188           
       2.409348             0.00739943445            0.000513225889           
       2.411988              0.0072090564            0.000496336866           
       2.414629             0.00672450132            0.000494295454           
       2.417269             0.00683212364            0.000504052261           
       2.419910             0.00662009831            0.000497320682           
       2.422550             0.00702200488            0.000490036065           
       2.425190             0.00716043111            0.000521615757           
       2.427831             0.00743554824            0.000528554051           
       2.430471             0.00682548905            0.000482450592           
       2.433112             0.00663313366            0.000463124749           
       2.435752             0.00720697284             0.00051089172           
       2.438392             0.00633053211            0.000462159408           
       2.441033             0.00719668921            0.000522229702           
       2.443673             0.00663600734            0.000501859757           
       2.446313              0.0071681895            0.000522055202           
       2.448954             0.00668063343            0.000479867373           
       2.451594             0.00733015952            0.000540470471           
       2.454235             0.00751799602            0.000513555445           
       2.456875             0.00791149375            0.000551246708           
       2.459515             0.00746495786             0.00054932595           
       2.462156             0.00832014151            0.000547542524           
       2.464796             0.00749145172             0.00051285656           
       2.467436             0.00711798084            0.000516965064           
       2.470077             0.00832692193            0.000529968691           
       2.472717             0.00721504036            0.000495455391           
       2.475358             0.00710391536            0.000496751326           
       2.477998             0.00695036483            0.000483069863           
       2.480638             0.00792291265            0.000524925688           
       2.483279             0.00831728313            0.000562119526           
       2.485919             0.00711680542            0.000501112502           
       2.488560              0.0067726792            0.000487481075           
       2.491200             0.00711370813            0.000514459637           
       2.493840              0.0072029978            0.000547771392           
       2.496481             0.00615062851            0.000497897103           
       2.499121             0.00700137819            0.000516692961           
       2.501761             0.00617622592            0.000491721007           
       2.504402             0.00619978043             0.00048546006           
       2.507042             0.00749564556            0.000529835039           
       2.509683             0.00674274036              0.0004948409           
       2.512323             0.00717354444            0.000536051246           
       2.514963             0.00660033465            0.000507836012           
       2.517604             0.00735697354            0.000556342951           
       2.520244             0.00690822099            0.000505415117           
       2.522884             0.00714892665            0.000521497664           
       2.525525             0.00769215574            0.000547088448           
       2.528165             0.00776663198            0.000541161521           
       2.530806             0.00709808045            0.000526363352           
       2.533446             0.00765667616            0.000535014115           
       2.536086             0.00634737493               0.000482767           
       2.538727              0.0077466519            0.000511650842           
       2.541367             0.00670621906            0.000480742607           
       2.544008             0.00771414316            0.000532494683           
       2.546648             0.00688472598            0.000511682908           
       2.549288             0.00637329621            0.000502342354           
       2.551929             0.00702193363            0.000518880815           
       2.554569             0.00782099899            0.000527575184           
       2.557209             0.00728576167            0.000513879135           
       2.559850              0.0072168499            0.000513085472           
       2.562490             0.00622492791            0.000492511174           
       2.565131             0.00691086458            0.000538057842           
       2.567771              0.0073152492            0.000533730482           
       2.570411             0.00739300284            0.000530753988           
       2.573052             0.00608605846             0.00048762512           
       2.575692             0.00651461109            0.000501446257           
       2.578332             0.00704192401             0.00052350162           
       2.580973             0.00783814286            0.000547049968           
       2.583613             0.00720099075            0.000511859152           
       2.586254             0.00642393723            0.000482781928           
       2.588894             0.00704995991            0.000525206659           
       2.591534             0.00768802417            0.000567758116           
       2.594175             0.00705226491            0.000533514963           
       2.596815             0.00698404999            0.000534058895           
       2.599456             0.00757385339            0.000527396877           
       2.602096             0.00686013765            0.000505752605           
       2.604736             0.00683656661            0.000516854869           
       2.607377             0.00699878056            0.000509169272           
       2.610017             0.00710943017            0.000504197992           
       2.612657             0.00759903312            0.000554449441           
       2.615298             0.00686207224            0.000514399104           
       2.617938             0.00666560082            0.000542340765           
       2.620579             0.00743013257            0.000549689615           
       2.623219              0.0080758406             0.00057226028           
       2.625859             0.00677698774            0.000509694158           
       2.628500             0.00681268356            0.000507685097           
       2.631140             0.00740798276            0.000537558825           
       2.633780             0.00739774687            0.000536720326           
       2.636421              0.0068632749            0.000529681653           
       2.639061             0.00724505419            0.000512315333           
       2.641702             0.00718509242            0.000522002141           
       2.644342             0.00703718789            0.000518802743           
       2.646982             0.00712610423            0.000514265219           
       2.649623             0.00664085866            0.000520256876           
       2.652263             0.00698614026            0.000528255732           
       2.654904             0.00604564042            0.000491907471           
       2.657544             0.00797722577            0.000532220113           
       2.660184             0.00711997109            0.000532120073           
       2.662825             0.00781692551            0.000570491234           
       2.665465             0.00724123506            0.000531052861           
       2.668105             0.00674375084            0.000540180117           
       2.670746             0.00763105494            0.000530825595           
       2.673386              0.0116213628            0.000675102747           
       2.676027              0.0136268625            0.000719304252           
       2.678667             0.00912713947            0.000574408159           
       2.681307             0.00983257362            0.000585793515           
       2.683948              0.0141565342            0.000722190324           
       2.686588              0.0118748693             0.00065046669           
       2.689229               0.010071353            0.000585355404           
       2.691869              0.0105418276            0.000632947672           
       2.694509              0.0101763471            0.000622220594           
       2.697150             0.00780886492            0.000536214562           
       2.699790             0.00735574946            0.000545590801           
       2.702430             0.00631958649            0.000483393922           
       2.705071             0.00757020509              0.0005466909           
       2.707711             0.00674612897             0.00050089237           
       2.710352             0.00747301424            0.000557039444           
       2.712992             0.00692674268            0.000546209627           
       2.715632             0.00693921669            0.000507230274           
       2.718273             0.00683967412            0.000521891903           
       2.720913             0.00656964087            0.000510030559           
       2.723553              0.0078733394             0.00056209412           
       2.726194             0.00710715313            0.000558252463           
       2.728834             0.00736251157            0.000568459484           
       2.731475             0.00798703748            0.000546436654           
       2.734115             0.00772795249            0.000554182456           
       2.736755               0.008043361            0.000570032075           
       2.739396             0.00748794001            0.000546812127           
       2.742036             0.00676774893            0.000544057323           
       2.744677             0.00674847713            0.000527133443           
       2.747317             0.00644793872            0.000511587822           
       2.749957             0.00752051386            0.000556378917           
       2.752598             0.00772745012            0.000570102341           
       2.755238             0.00800780035            0.000590828462           
       2.757878             0.00767110342            0.000573218067           
       2.760519             0.00770963828            0.000568562799           
       2.763159             0.00751077332            0.000555574016           
       2.765800             0.00611544311            0.000477748526           
       2.768440             0.00692053965            0.000511968266           
       2.771080             0.00943119161            0.000602651721           
       2.773721             0.00809815478            0.000572845156           
       2.776361             0.00723617307            0.000548970807           
       2.779001             0.00704806468            0.000561076804           
       2.781642             0.00611592205            0.000518807154           
       2.784282             0.00772728803            0.000592750553           
       2.786923             0.00638314098            0.000543479003           
       2.789563             0.00689664983            0.000544081417           
       2.792203             0.00801476736            0.000560303684           
       2.794844             0.00803810947            0.000614977261           
       2.797484             0.00639414997            0.000517646456           
       2.800125             0.00681350861            0.000561871059           
       2.802765             0.00652159399            0.000540246287           
       2.805405             0.00684108634            0.000555194153           
       2.808046              0.0062985415            0.000542089138           
       2.810686             0.00791591923             0.00055842125           
       2.813326             0.00710105834            0.000549380161           
       2.815967             0.00705124356            0.000563015362           
       2.818607             0.00752619002             0.00055507048           
       2.821248             0.00697124408            0.000523123723           
       2.823888             0.00781621017            0.000574983448           
       2.826528             0.00665291229            0.000513736705           
       2.829169             0.00770733593            0.000579185437           
       2.831809             0.00643766127            0.000536533799           
       2.834449             0.00678494288            0.000554296453           
       2.837090              0.0070108843            0.000544203361           
       2.839730             0.00718889791            0.000548378436           
       2.842371             0.00628662764            0.000513551996           
       2.845011             0.00788104917            0.000579582953           
       2.847651             0.00757714183            0.000568996173           
       2.850292             0.00758524736            0.000574887621           
       2.852932             0.00736653467            0.000578885632           
       2.855573              0.0065932499            0.000531245517           
       2.858213             0.00694875973            0.000572715077           
       2.860853             0.00610740694            0.000499463339           
       2.863494             0.00668186696            0.000540898381           
       2.866134             0.00647428416            0.000553395152           
       2.868774             0.00639370128            0.000540478709           
       2.871415             0.00574055212            0.000520106014           
       2.874055             0.00732266363            0.000561501585           
       2.876696             0.00736174968            0.000578226458           
       2.879336             0.00701437604            0.000543991818           
       2.881976             0.00708711828            0.000563991932           
       2.884617             0.00778725185            0.000582511609           
       2.887257             0.00835978619            0.000606660797           
       2.889897             0.00674915862            0.000533877595           
       2.892538             0.00689699395             0.00059123567           
       2.895178             0.00637017542            0.000513336952           
       2.897819             0.00718780413            0.000556244599           
       2.900459             0.00641324506            0.000515198929           
       2.903099             0.00708324465            0.000535899992           
       2.905740             0.00682635596            0.000539703659           
       2.908380             0.00663501442            0.000538131731           
       2.911021             0.00712607602            0.000566757183           
       2.913661             0.00638882489            0.000536478311           
       2.916301             0.00581765235            0.000512424071           
       2.918942             0.00750679287            0.000556774063           
       2.921582             0.00683674929            0.000555939959           
       2.924222             0.00703700901            0.000546430192           
       2.926863             0.00747185011            0.000586492025           
       2.929503              0.0069281507             0.00057144144           
       2.932144              0.0062572207            0.000521311579           
       2.934784             0.00660050879            0.000526641558           
       2.937424             0.00686654425            0.000542664754           
       2.940065             0.00683830215            0.000516585258           
       2.942705             0.00737017962             0.00053562606           
       2.945346             0.00696733285            0.000552681471           
       2.947986             0.00619950945            0.000531585456           
       2.950626             0.00717155607            0.000568524236           
       2.953267             0.00689580389            0.000548479489           
       2.955907             0.00699381523            0.000573001278           
       2.958547             0.00681719913            0.000534068668           
       2.961188             0.00747457789            0.000583428982           
       2.963828             0.00793445011            0.000587995519           
       2.966469             0.00789808822            0.000575498326           
       2.969109             0.00819904322            0.000595048266           
       2.971749             0.00669211673            0.000534237779           
       2.974390             0.00680452864            0.000529377291           
       2.977030             0.00745859448            0.000566622253           
       2.979670             0.00810099184            0.000574393893           
       2.982311              0.0084386981            0.000607612451           
       2.984951             0.00697670487            0.000525454127           
       2.987592             0.00655669192            0.000519594582           
       2.990232             0.00717100655            0.000565120582           
       2.992872             0.00891751853            0.000593605509           
       2.995513             0.00880691697            0.000577128948           
       2.998153              0.0129748218            0.000712274981           
       3.000794               0.011556763            0.000651119617           
       3.003434             0.00879896737            0.000569001967           
       3.006074               0.033498704             0.00109466647           
       3.008715               0.105813202             0.00187804569           
       3.011355               0.229901016             0.00266949561           
       3.013995               0.132260411             0.00203026956           
       3.016636              0.0805663694             0.00155168459           
       3.019276               0.141957892             0.00202465416           
       3.021917                0.51075868             0.00369275205           
       3.024557                 1.3968658             0.00600412315           
       3.027197                1.13059029             0.00526630543           
       3.029838               0.572394743             0.00380030309           
       3.032478               0.255621696             0.00254220536           
       3.035118              0.0667871961             0.00131687989           
       3.037759              0.0801870071              0.0014410892           
       3.040399               0.108798238             0.00173152812           
       3.043040               0.463218516             0.00361661699           
       3.045680               0.397808746              0.0031533406           
       3.048320               0.110470162             0.00169786588           
       3.050961               0.118097001             0.00178643021           
       3.053601               0.103960953             0.00161429427           
       3.056242              0.0878477312             0.00157773083           
       3.058882              0.0895177885             0.00170844826           
       3.061522              0.0701485376             0.00148380985           
       3.064163              0.0872098973             0.00163360966           
       3.066803               0.163879203              0.0023575824           
       3.069443              0.0975533915             0.00190311126           
       3.072084              0.0374887568             0.00114877094           
       3.074724               0.046900236             0.00143494355           
       3.077365              0.0397441072              0.0013674053           
       3.080005             0.00998559297            0.000689289708           
       3.082645              0.0157549244            0.000909554535           
       3.085286              0.0141047312            0.000867393126           
       3.087926              0.0128764409             0.00082237774           
       3.090566              0.0106216983            0.000731831238           
       3.093207              0.0111304594            0.000779571194           
       3.095847             0.00836996752            0.000647957162           
       3.098488             0.00823569734            0.000712687454           
       3.101128             0.00937010307            0.000765077006           
       3.103768             0.00975495851            0.000765944361           
       3.106409             0.00992667198            0.000822314129           
       3.109049             0.00927741653            0.000762891065           
       3.111690             0.00913688731            0.000744094212           
       3.114330             0.00786370153            0.000704992143           
       3.116970             0.00768660408            0.000702359442           
       3.119611              0.0112432044             0.00090418225           
       3.122251              0.0181560123              0.0012018957           
       3.124891              0.0341256878             0.00166312104           
       3.127532              0.0258955142             0.00141730565           
       3.130172              0.0147658806             0.00108873246           
       3.132813             0.00985399985            0.000875584927           
       3.135453             0.00756276902            0.000760746979           
       3.138093             0.00654872199            0.000767045618           
       3.140734             0.00719888486            0.000741955992           
       3.143374             0.00795010263            0.000824575136           
       3.146014             0.00742801189            0.000858049995           
       3.148655             0.00718584068            0.000784526732           
       3.151295              0.0064268177            0.000790649694           
       3.153936              0.0055325707            0.000708619617           
       3.156576             0.00607950459            0.000732716458           
       3.159216             0.00605299268            0.000734773973           
       3.161857             0.00537342081            0.000689482149           
       3.164497             0.00741573348            0.000851056297           
       3.167138             0.00988970154             0.00101549021           
       3.169778             0.00672811902            0.000823776079           
       3.172418             0.00692030447            0.000826960654           
       3.175059              0.0062878411            0.000698831549           
       3.177699              0.0059059062            0.000717193174           
       3.180339             0.00689258397            0.000830127217           
       3.182980             0.00521474695            0.000746531431           
       3.185620             0.00687653813            0.000873054065           
       3.188261             0.00597711708            0.000828483569           
       3.190901             0.00563167158            0.000739618011           
       3.193541             0.00524153129            0.000749757741           
       3.196182             0.00581441084            0.000822947686           
       3.198822             0.00580029103            0.000822223345           
       3.201463             0.00569935533            0.000800995895           
       3.204103             0.00757558914            0.000917857497           
       3.206743             0.00600446101            0.000817077596           
       3.209384             0.00622167455            0.000898608214           
       3.212024              0.0062230755            0.000837879007           
       3.214664             0.00582804707            0.000922051508           
       3.217305             0.00694646431            0.000956883883           
       3.219945             0.00573465503            0.000894860384           
       3.222586             0.00607439388            0.000877224024           
       3.225226              0.0057562158            0.000947313892           
       3.227866             0.00610776889            0.000891883423           
       3.230507             0.00573570483            0.000895932423           
       3.233147             0.00624008377            0.000942041096           
       3.235787             0.00355039019            0.000727189344           
       3.238428             0.00624162656              0.0010404728           
       3.241068              0.0055886941            0.000920601546           
       3.243709             0.00615598609             0.00099823424           
       3.246349             0.00687537511            0.000961685218           
       3.248989             0.00486180345            0.000954885813           
       3.251630             0.00590828905             0.00101367234           
       3.254270             0.00471645349             0.00080943183           
       3.256911              0.0046366839            0.000875679473           
       3.259551             0.00669597454             0.00113291763           
       3.262191             0.00579225236             0.00107629745           
       3.264832             0.00609365068             0.00115345691           
       3.267472             0.00554643557             0.00103233868           
       3.270112             0.00534235372             0.00111967993           
       3.272753             0.00528086406             0.00101895465           
       3.275393              0.0063466402             0.00113978457           
       3.278034             0.00388071657            0.000891766674           
       3.280674             0.00602752212             0.00120600746           
       3.283314             0.00792155605             0.00123650379           
       3.285955             0.00660881567             0.00116530419           
       3.288595             0.00277194832            0.000839623699           
       3.291235             0.00616469646             0.00128717464           
       3.293876             0.00441763557             0.00110528157           
       3.296516             0.00559908935             0.00119458777           
       3.299157             0.00797818506             0.00140805582           
       3.301797             0.00612018025             0.00140674565           
       3.304437             0.00362017833             0.00093736199           
       3.307078             0.00470039175             0.00117657109           
       3.309718              0.0034424212             0.00103929407           
       3.312359             0.00407026985              0.0011303715           
       3.314999             0.00699533871             0.00145903529           
       3.317639             0.00361871634             0.00100361667           
       3.320280              0.0047274373             0.00121961022           
       3.322920             0.00486912341             0.00125858434           
       3.325560             0.00742770391              0.0015555328           
       3.328201             0.00660048188             0.00132063118           
       3.330841             0.00550743942             0.00146818734           
       3.333482             0.00418401807             0.00120959697           
       3.336122             0.00592297199             0.00143983704           
       3.338762             0.00744814719             0.00186512457           
       3.341403             0.00593264445             0.00159058454           
       3.344043             0.00547793839             0.00146740403           
       3.346683             0.00531978818             0.00147631615           
       3.349324             0.00519134723             0.00163970478           
       3.351964             0.00689558567             0.00199837165           
       3.354605             0.00454161851             0.00185477066           
       3.357245             0.00491404892             0.00174045335           
       3.359885             0.00156297298            0.000785604494           
       3.362526             0.00735387746             0.00213100589           
       3.365166              0.0120010132             0.00256765249           
       3.367807             0.00805465268             0.00269210318           
       3.370447              0.0062052198             0.00196006512           
       3.373087              0.0049255618             0.00186744172           
       3.375728               0.010736536             0.00311164822           
       3.378368             0.00396270321             0.00280558915           
       3.381008             0.00665382267             0.00271045404           
       3.383649             0.00422095357             0.00173179381           
       3.386289             0.00396474304             0.00198645604           
       3.388930             0.00249269853              0.0024914354           
       3.391570             0.00368161777             0.00214188716           
       3.394210              0.0060388369             0.00347155346           
       3.396851             0.00734789338             0.00428353606           
       3.399491             0.00729685788             0.00426983447           
       3.402131             0.00486544871             0.00493288548           
       3.404772           -2.67316117e-05                         0           
       3.407412                       nan                       nan           
       3.410053             0.00936392654             0.00969220382           
       3.412693                       nan                       nan           
       3.415333             0.00909709812             0.00956223796           
