################################################################################
# EDF_DataBlockID                     0.Image.Psd
# EDF_BinarySize                      4366944
# EDF_HeaderSize                      2560
# ByteOrder                           LowByteFirst
# DataType                            FloatValue
# Dim_1                               1028
# Dim_2                               1062
# Image                               0
# HeaderID                            EH:000000:000000:000000
# Size                                4366944
# Center_1                            607.5200
# Center_2                            651.5500
# Comment                             Xenocs_Cell_Window - 20251028_20perc_iodine_1.23mg
# DDummy                              0.6
# Date                                2025-11-01T03:17:31
# Delta                               0
# Dummy                               -1.5
# ExposureTime                        360
# Gamma                               0
# Intensity1                          8.5786e-10
# PSize_1                             7.5e-05
# PSize_2                             7.5e-05
# Pressure                            0.0327845
# SampleDistance                      0.450002
# SampleEnvKind                       large
# SampleEnvPN                         ElectroChemical cell
# SampleEnvSN                         1141
# Thickness                           0
# Wavelength                          1.541891e-10
# Wavelength                          1.54189e-10
# aux                                 0
# aux_dial                            0.002375
# beamx                               588.434
# beamx_dial                          588.434
# beamz                               657.808
# beamz_dial                          657.808
# det0x                               0
# det0x_dial                          6.36945
# det0xvd                             0
# det0xvd_dial                        0
# det0y                               450.002
# det0y_dial                          481.635
# det0z                               0
# det0z_dial                          1.23302
# det0zvd                             0
# det0zvd_dial                        0
# mag                                 1.818
# mag_dial                            1.818
# om                                  0.2499
# om_dial                             -0.610199
# phi                                 -0.0120535
# phi_dial                            0
# ry                                  0.599993
# ry_dial                             0.599993
# s1bot                               0.8
# s1bot_dial                          -1.66094
# s1hl                                0.8
# s1hl_dial                           -0.608437
# s1hr                                0.8
# s1hr_dial                           0.970938
# s1top                               0.8
# s1top_dial                          -0.461562
# s2bot                               0.45
# s2bot_dial                          1.36109
# s2hl                                0.45
# s2hl_dial                           -0.83375
# s2hr                                0.45
# s2hr_dial                           -0.118594
# s2top                               0.45
# s2top_dial                          1.44734
# w2theta                             32
# w2theta_dial                        32
# waxsch                              19.2605
# waxsch_dial                         -32.7355
# waxsh                               137.085
# waxsh_dial                          -43.5338
# waxsth                              26.0607
# waxsth_dial                         -19.4086
# waxsz                               67.0407
# waxsz_dial                          -23.7954
# wind                                65.9854
# wind_dial                           66.0041
# wpsi                                124
# wpsi_dial                           124
# wstod                               115
# wstod_dial                          115
# x                                   0
# x_dial                              1.00969
# z                                   0
# z_dial                              13.3172
# CountCutoff                         15302352
# DetectorModel                       Dectris EIGER2 Si 1M, S/N E-02-0362
# ThresholdSetting                    4023.88989258
# Saturation                          0
# FlatField                           Corrected
# BackgroundReductionExtra            0.02
# BackgroundCorrectionConstant        0.0026712
# Detector                            0
# Monitor                             0
# Pil_Roi0                            0
# SumForIntensity1                    3.0883e+08
# TransmittedFlux                     857860
# det                                 0
# mon                                 0
# pilai0                              3.0883e+08
# pilai1                              789458
# pilct0                              5.33997e+08
# pilct1                              789458
# pilroi0                             0
# pilroi1                             0
# sec                                 1
# title                               20251028_20perc_iodine_1.23mg_0_00772.edf
# usaxs0                              0
# Operation                           Azimuthal average I(q)
# Error_model                         ErrorModel.poisson
# Geometrical_correction              True
# Transmission_correction             True
# Thickness_correction                False
# Binning mode                        Uniform
# Binning factor                      1.0
# Psi                                 0.0
# Omega                               0.2499
# MaskInvalidPixels                   True
# DetectorEdge                        3
# MaskFiles                           ['20251028_20perc_iodine_1.23mg_0_00012_mask.edf']
################################################################################
    q(A⁻¹)                Intensity(a.u.)            Sigma_I(a.u.)            
       0.000340                370702.312                120.017823           
       0.001019                 359181.88                 72.344573           
       0.001698                349603.246                50.4686297           
       0.002377                330801.809                43.9099322           
       0.003056                308001.409                35.8089209           
       0.003735                 253569.35                28.6543866           
       0.004415                205037.699                25.7667534           
       0.005094                152808.402                 19.264033           
       0.005773                 100689.22                14.4774421           
       0.006452                58502.4785                10.5734508           
       0.007131                32162.1184                7.59469533           
       0.007810                16161.9798                5.34281596           
       0.008490                8110.58459                3.35491526           
       0.009169                3920.23816                2.30516683           
       0.009848                1199.24369                1.23269441           
       0.010527                462.837308               0.765801385           
       0.011206                116.150909               0.366139668           
       0.011885                 53.328474               0.230506472           
       0.012564                24.8843344               0.161658419           
       0.013244                16.6276725               0.123540973           
       0.013923                12.2712293               0.107842261           
       0.014602                9.35187527              0.0873130637           
       0.015281                7.51102852              0.0796541585           
       0.015960                6.14169427              0.0715119752           
       0.016639                4.93695243              0.0605450677           
       0.017319                 4.1260947              0.0544893554           
       0.017998                3.47788637              0.0478598279           
       0.018677                2.90687252              0.0453180882           
       0.019356                2.56430068              0.0420573753           
       0.020035                2.12977596              0.0359598532           
       0.020714                1.89756263              0.0343021423           
       0.021394                1.59406629              0.0297472091           
       0.022073                 1.3970489              0.0289739831           
       0.022752                1.24073889              0.0261201773           
       0.023431                 1.1122089              0.0240052593           
       0.024110               0.985242088                0.02355545           
       0.024789               0.885131911              0.0207350041           
       0.025469               0.804690853              0.0203735508           
       0.026148                0.69996767              0.0178536132           
       0.026827               0.678390987              0.0178575562           
       0.027506               0.639532085              0.0175885966           
       0.028185               0.554234596              0.0156146821           
       0.028864               0.536449056              0.0152759027           
       0.029544               0.482869834               0.014054113           
       0.030223               0.456905186              0.0138670729           
       0.030902               0.416095651              0.0133544059           
       0.031581               0.372822429              0.0120165839           
       0.032260               0.344894747              0.0117546825           
       0.032939               0.317862097               0.010880834           
       0.033619               0.284287036              0.0104413728           
       0.034298                0.25872371             0.00969353921           
       0.034977               0.246705767             0.00927970402           
       0.035656               0.238094278             0.00935757888           
       0.036335               0.225483379             0.00883205785           
       0.037014               0.228527271              0.0089179939           
       0.037693               0.172804267             0.00746009762           
       0.038373               0.174237854             0.00756449028           
       0.039052                0.18635359             0.00785635616           
       0.039731               0.157810815             0.00706122167           
       0.040410               0.159073346             0.00704188011           
       0.041089               0.155491053             0.00685308099           
       0.041768               0.149603336             0.00675720156           
       0.042448               0.135209852             0.00637407749           
       0.043127                0.12922357             0.00608420493           
       0.043806               0.117099905             0.00583495378           
       0.044485               0.124652659             0.00589651145           
       0.045164               0.108417076             0.00560750296           
       0.045843               0.113949242             0.00551378608           
       0.046523               0.103145867             0.00526401604           
       0.047202              0.0991330795             0.00519666612           
       0.047881               0.100880672             0.00514117789           
       0.048560              0.0952525746             0.00504124226           
       0.049239              0.0988894749             0.00493204586           
       0.049918              0.0979873605             0.00500547365           
       0.050598              0.0821529265             0.00451446722           
       0.051277              0.0835068998             0.00453707413           
       0.051956               0.083695336             0.00451366695           
       0.052635               0.073844634             0.00414975557           
       0.053314              0.0849188295             0.00458015782           
       0.053993              0.0786935616             0.00428815208           
       0.054673              0.0714858053             0.00399601374           
       0.055352              0.0774501502             0.00422047131           
       0.056031              0.0709470898             0.00395452882           
       0.056710              0.0719248664             0.00407925674           
       0.057389              0.0739145447             0.00398771029           
       0.058068              0.0663055981             0.00381581825           
       0.058748              0.0643473116             0.00380593808           
       0.059427              0.0664813094             0.00380303519           
       0.060106              0.0628329389             0.00373220386           
       0.060785              0.0662238726             0.00371678597           
       0.061464              0.0581063205             0.00356546265           
       0.062143              0.0623401102             0.00365555878           
       0.062822               0.059301093             0.00352350468           
       0.063502              0.0522037283              0.0033000282           
       0.064181               0.055731632             0.00337370678           
       0.064860              0.0531926531             0.00334616354           
       0.065539              0.0567525773             0.00342252397           
       0.066218              0.0495389061             0.00312915363           
       0.066897              0.0492472896             0.00314401477           
       0.067577              0.0475962209             0.00312055679           
       0.068256              0.0502239791             0.00328428423           
       0.068935               0.048870029             0.00318732818           
       0.069614               0.043897977             0.00305091197           
       0.070293              0.0426021692             0.00303325975           
       0.070972              0.0424000757             0.00300390036           
       0.071652              0.0414959348             0.00297715088           
       0.072331              0.0430953891             0.00297991253           
       0.073010               0.042355866             0.00302173534           
       0.073689              0.0426042379             0.00301392854           
       0.074368               0.038080902             0.00284426204           
       0.075047              0.0412273699             0.00292762568           
       0.075727              0.0391410653             0.00283496922           
       0.076406              0.0359932516             0.00277282486           
       0.077085              0.0415278564             0.00292272854           
       0.077764              0.0396390546             0.00284548247           
       0.078443              0.0432394802              0.0029903023           
       0.079122              0.0315072769             0.00252806369           
       0.079802               0.033584667             0.00263775784           
       0.080481              0.0377545318             0.00270238134           
       0.081160                0.03770797             0.00275613324           
       0.081839              0.0353105921             0.00262438166           
       0.082518              0.0324444177             0.00251773544           
       0.083197              0.0350241763             0.00257527186           
       0.083876              0.0390610223              0.0026744459           
       0.084556              0.0323119402             0.00250009692           
       0.085235              0.0353600723             0.00256483267           
       0.085914              0.0317762851             0.00245500571           
       0.086593              0.0340986837             0.00252676918           
       0.087272              0.0338074781             0.00248039292           
       0.087951              0.0310910906             0.00243238983           
       0.088631              0.0340891102             0.00246021439           
       0.089310              0.0315078303             0.00241540061           
       0.089989              0.0300012748             0.00232939207           
       0.090668              0.0325597589             0.00245347081           
       0.091347              0.0282493762             0.00229810306           
       0.092026              0.0310816733             0.00230410186           
       0.092706              0.0313706533             0.00239880838           
       0.093385              0.0264684046             0.00216958547           
       0.094064              0.0318699372             0.00240840135           
       0.094743              0.0313331989             0.00235164314           
       0.095422              0.0286402644             0.00222324591           
       0.096101              0.0314433632             0.00237748095           
       0.096781              0.0300250699             0.00228997758           
       0.097460              0.0296699174             0.00221429686           
       0.098139              0.0261162711             0.00206147771           
       0.098818              0.0330759796             0.00229138435           
       0.099497              0.0270343098             0.00207582141           
       0.100176              0.0262558765             0.00199202671           
       0.100856              0.0275478941             0.00203914315           
       0.101535              0.0253234575             0.00195131151           
       0.102214              0.0254711258             0.00195700468           
       0.102893              0.0254746401             0.00193484044           
       0.103572              0.0270451327             0.00196413821           
       0.104251              0.0291925138             0.00204816368           
       0.104931              0.0260883521             0.00191858167           
       0.105610              0.0260263003             0.00192447293           
       0.106289              0.0226016797             0.00176354998           
       0.106968              0.0225146799             0.00176537627           
       0.107647              0.0213517158             0.00172020959           
       0.108326              0.0248634361             0.00183145562           
       0.109005               0.024192318             0.00179520263           
       0.109685              0.0258313419             0.00183421069           
       0.110364              0.0238936172             0.00178410979           
       0.111043              0.0220678912             0.00170779473           
       0.111722              0.0274506469             0.00188144082           
       0.112401              0.0228504259             0.00172134312           
       0.113080              0.0217960023              0.0016618935           
       0.113760              0.0227036901             0.00172447527           
       0.114439              0.0281177815             0.00189171836           
       0.115118              0.0244704173             0.00175145726           
       0.115797              0.0236610943              0.0017382054           
       0.116476              0.0230661523             0.00169052656           
       0.117155              0.0220776732             0.00166724634           
       0.117835              0.0227416759             0.00165849329           
       0.118514              0.0213700723             0.00162808655           
       0.119193              0.0216014158             0.00163688712           
       0.119872              0.0227160717             0.00165759548           
       0.120551              0.0226949355             0.00164578789           
       0.121230              0.0218898126             0.00160006574           
       0.121910              0.0235693108             0.00167636055           
       0.122589              0.0207568016             0.00157478583           
       0.123268              0.0205770532             0.00153757591           
       0.123947              0.0210684335             0.00156588836           
       0.124626              0.0224663269             0.00159723174           
       0.125305              0.0198318517             0.00150802843           
       0.125985              0.0187280378             0.00145408901           
       0.126664              0.0223328472             0.00157275202           
       0.127343              0.0199062773             0.00150206357           
       0.128022              0.0205319495             0.00151378607           
       0.128701              0.0208258743               0.001516641           
       0.129380              0.0211993332             0.00151101435           
       0.130059              0.0189192777             0.00143076129           
       0.130739              0.0206939928             0.00150688615           
       0.131418              0.0178602654             0.00139599746           
       0.132097              0.0216452791             0.00151710801           
       0.132776              0.0219849542             0.00152206272           
       0.133455              0.0196780838             0.00145118316           
       0.134134              0.0209153346             0.00149134454           
       0.134814              0.0177899787             0.00136124167           
       0.135493              0.0180412532             0.00137636903           
       0.136172              0.0188892504             0.00139771278           
       0.136851              0.0195469496             0.00143010712           
       0.137530              0.0180215002             0.00134054649           
       0.138209              0.0195733586             0.00141347531           
       0.138889              0.0198524033             0.00142979004           
       0.139568              0.0199325294             0.00143205333           
       0.140247              0.0185585556             0.00138000468           
       0.140926              0.0183503015             0.00133300367           
       0.141605              0.0200377726             0.00142833543           
       0.142284              0.0193607726             0.00138073387           
       0.142964              0.0157490572             0.00125006856           
       0.143643              0.0198853267             0.00140289105           
       0.144322              0.0167466077             0.00126048253           
       0.145001               0.018544893             0.00135366036           
       0.145680              0.0188790421             0.00133348854           
       0.146359              0.0187445362             0.00133359021           
       0.147039              0.0177881322             0.00130981837           
       0.147718              0.0178488371             0.00129040099           
       0.148397              0.0218943707             0.00145138527           
       0.149076              0.0168342973             0.00123318444           
       0.149755              0.0176210895             0.00128115432           
       0.150434              0.0171826826             0.00126563295           
       0.151114              0.0207054045             0.00138164146           
       0.151793              0.0209764555             0.00139066835           
       0.152472              0.0190502924             0.00130187219           
       0.153151              0.0170806443             0.00124465269           
       0.153830              0.0176225919             0.00125503311           
       0.154509                 0.0196181             0.00131866039           
       0.155188              0.0161270403             0.00119514686           
       0.155868              0.0194093613             0.00130181129           
       0.156547              0.0194050073             0.00131002655           
       0.157226              0.0208131146             0.00132358734           
       0.157905              0.0187513939             0.00126687423           
       0.158584              0.0176678504             0.00122749255           
       0.159263              0.0205384505              0.0013283297           
       0.159943              0.0188634918             0.00127396317           
       0.160622              0.0173931322              0.0011996969           
       0.161301              0.0181758412               0.001242797           
       0.161980              0.0180706757             0.00121812922           
       0.162659              0.0172113605              0.0012019902           
       0.163338              0.0177799966             0.00121172733           
       0.164018              0.0184623737             0.00122828007           
       0.164697              0.0199655111             0.00129370377           
       0.165376              0.0193163293             0.00124469498           
       0.166055              0.0199815424             0.00127429483           
       0.166734              0.0169121822             0.00116709291           
       0.167413               0.017556167             0.00118993824           
       0.168093              0.0176632657             0.00120485253           
       0.168772              0.0178904681             0.00117711508           
       0.169451              0.0169355611             0.00116634099           
       0.170130              0.0179078694             0.00118360949           
       0.170809              0.0155356391             0.00111558642           
       0.171488              0.0170436426             0.00115782425           
       0.172168              0.0178141504             0.00117233482           
       0.172847              0.0187802543             0.00121951621           
       0.173526              0.0169874383             0.00113772134           
       0.174205              0.0152799003             0.00108399624           
       0.174884               0.017086459             0.00114031393           
       0.175563              0.0166269188             0.00112967784           
       0.176243              0.0175273217             0.00117147003           
       0.176922              0.0158151438             0.00108378267           
       0.177601              0.0165249139             0.00112001025           
       0.178280               0.016252298             0.00109833452           
       0.178959              0.0165765328              0.0011181583           
       0.179638              0.0145342308             0.00104399888           
       0.180317              0.0165329011             0.00110535846           
       0.180997              0.0161232933             0.00109750464           
       0.181676              0.0178162115             0.00114136603           
       0.182355              0.0171376131              0.0011261415           
       0.183034              0.0168100773             0.00109742798           
       0.183713              0.0163427632             0.00109524433           
       0.184392              0.0184050399             0.00116194415           
       0.185072              0.0171771992             0.00110972441           
       0.185751              0.0183396576             0.00114984973           
       0.186430              0.0182242977              0.0011381994           
       0.187109              0.0152079899             0.00105132928           
       0.187788              0.0175385186              0.0011262305           
       0.188467              0.0152067574             0.00103628448           
       0.189147               0.017624106             0.00112691245           
       0.189826              0.0144827335             0.00100349044           
       0.190505              0.0142002874             0.00101001405           
       0.191184              0.0167075278             0.00107976743           
       0.191863               0.015945574             0.00105708075           
       0.192542              0.0163722161             0.00108123011           
       0.193222              0.0131111832            0.000945893005           
       0.193901              0.0149451922             0.00102342084           
       0.194580               0.015638112             0.00102856453           
       0.195259              0.0178085136             0.00111022906           
       0.195938              0.0177741105             0.00111180398           
       0.196617              0.0162429546              0.0010480016           
       0.197297              0.0168614547             0.00107212795           
       0.197976              0.0148119377            0.000989423762           
       0.198655              0.0157682751             0.00103201615           
       0.199334              0.0167288306             0.00105361098           
       0.200013              0.0149275208             0.00099471913           
       0.200692              0.0162614789             0.00104445828           
       0.201371              0.0159431694             0.00102253823           
       0.202051              0.0140052061            0.000961358628           
       0.202730              0.0160340579              0.0010183637           
       0.203409              0.0156642851             0.00101330941           
       0.204088              0.0164871564             0.00103843432           
       0.204767              0.0150124712            0.000985697455           
       0.205446                0.01580586             0.00101338491           
       0.206126              0.0157982911            0.000999377544           
       0.206805              0.0157406476             0.00101584027           
       0.207484              0.0165654176             0.00102337955           
       0.208163              0.0158002205             0.00100546977           
       0.208842              0.0145673317            0.000962828617           
       0.209521              0.0165299696             0.00101711642           
       0.210201              0.0171527763             0.00104766249           
       0.210880              0.0152967815            0.000969945455           
       0.211559              0.0137361238            0.000932724628           
       0.212238              0.0169713082             0.00103148627           
       0.212917              0.0150489215            0.000967702553           
       0.213596              0.0174768128             0.00104901255           
       0.214276              0.0148820412            0.000947845064           
       0.214955              0.0156162224             0.00099136207           
       0.215634              0.0149293366            0.000962367155           
       0.216313              0.0158186085            0.000988534349           
       0.216992              0.0153727153             0.00097425836           
       0.217671              0.0146183949            0.000943619631           
       0.218351              0.0152593274            0.000973512755           
       0.219030              0.0158518131             0.00097657032           
       0.219709              0.0136800494            0.000912869067           
       0.220388              0.0141330326            0.000926667762           
       0.221067              0.0135571365            0.000908310917           
       0.221746               0.014014937            0.000922573624           
       0.222426              0.0158810209            0.000967398022           
       0.223105               0.014815524            0.000947111617           
       0.223784              0.0159376309            0.000972579668           
       0.224463              0.0142751959            0.000927788991           
       0.225142              0.0146936984            0.000926397066           
       0.225821              0.0160483087            0.000972057795           
       0.226500               0.014182287            0.000919609067           
       0.227180              0.0151660482            0.000936318042           
       0.227859              0.0138571494            0.000899017368           
       0.228538              0.0145268068            0.000911240916           
       0.229217              0.0145378664            0.000918803407           
       0.229896              0.0162225291            0.000970113193           
       0.230575              0.0149558794            0.000916622231           
       0.231255              0.0154774984            0.000946430539           
       0.231934              0.0173733719            0.000995871155           
       0.232613              0.0153744182            0.000940285597           
       0.233292              0.0134993682             0.00087257079           
       0.233971              0.0149331774            0.000917312555           
       0.234650               0.014732612            0.000921848684           
       0.235330              0.0140708892            0.000893041169           
       0.236009              0.0144035211            0.000901587548           
       0.236688              0.0142610241            0.000893906142           
       0.237367              0.0150702349            0.000920252263           
       0.238046              0.0151773341            0.000930020287           
       0.238725              0.0140281122            0.000880322593           
       0.239405              0.0141032354            0.000888150049           
       0.240084              0.0162924433            0.000948518522           
       0.240763              0.0165369243            0.000964758891           
       0.241442              0.0170225423            0.000965029748           
       0.242121              0.0135105369            0.000861358207           
       0.242800              0.0131457269            0.000853671891           
       0.243480              0.0142171924            0.000883623652           
       0.244159              0.0143929823             0.00088949989           
       0.244838              0.0139782062            0.000862165446           
       0.245517              0.0145618445            0.000892638731           
       0.246196               0.016078462            0.000938424083           
       0.246875              0.0152179084            0.000900238964           
       0.247554              0.0141711895            0.000877556383           
       0.248234              0.0145303224            0.000875132484           
       0.248913              0.0140148219            0.000869109267           
       0.249592              0.0128425279            0.000824060843           
       0.250271              0.0137118614            0.000849022749           
       0.250950              0.0141016658            0.000866279826           
       0.251629              0.0144948204            0.000870807969           
       0.252309              0.0140735613             0.00085980213           
       0.252988               0.015052067            0.000873873335           
       0.253667              0.0136546839            0.000842046468           
       0.254346              0.0134236472            0.000834720571           
       0.255025               0.014142239            0.000854894557           
       0.255704              0.0134089215            0.000828622488           
       0.256384              0.0141268722            0.000847574219           
       0.257063               0.012751014            0.000809834299           
       0.257742                0.01413992            0.000846891277           
       0.258421               0.013624932            0.000829725799           
       0.259100              0.0124135002            0.000793361703           
       0.259779              0.0145473006            0.000858117984           
       0.260459              0.0127895854            0.000806187492           
       0.261138              0.0133183779            0.000806607639           
       0.261817              0.0135487139            0.000829974967           
       0.262496              0.0124828151            0.000788845626           
       0.263175              0.0155344183            0.000881891306           
       0.263854              0.0152473392            0.000869645381           
       0.264534              0.0126029686            0.000783892384           
       0.265213              0.0137125972            0.000830558991           
       0.265892               0.013750274            0.000821043698           
       0.266571              0.0127549331            0.000788970821           
       0.267250              0.0128010345            0.000791726841           
       0.267929              0.0129595613            0.000795797256           
       0.268609              0.0126219853            0.000789664342           
       0.269288              0.0124235449            0.000770417728           
       0.269967              0.0130107987            0.000796910703           
       0.270646              0.0113832548            0.000742180384           
       0.271325              0.0121600923             0.00076836827           
       0.272004              0.0121055148            0.000758999855           
       0.272683               0.012849388            0.000782938355           
       0.273363              0.0110379992            0.000730285387           
       0.274042              0.0126548835            0.000777332095           
       0.274721              0.0122129096            0.000763184489           
       0.275400              0.0118496068            0.000746770058           
       0.276079              0.0117896332            0.000749107455           
       0.276758              0.0117761149            0.000758125881           
       0.277438              0.0104100392            0.000704796742           
       0.278117              0.0117902722            0.000763705193           
       0.278796              0.0112476771            0.000738353762           
       0.279475              0.0120928771            0.000778240068           
       0.280154              0.0108604028            0.000726907843           
       0.280833              0.0109940162            0.000735813326           
       0.281513              0.0127153454            0.000803737346           
       0.282192              0.0120091688            0.000767774002           
       0.282871              0.0127369334            0.000796220899           
       0.283550              0.0121767831            0.000782687812           
       0.284229              0.0120799791            0.000791020318           
       0.284908              0.0109794655            0.000762082466           
       0.285588              0.0115414987            0.000772194746           
       0.286267              0.0106942654            0.000755213856           
       0.286946              0.0113995223            0.000774647863           
       0.287625              0.0108210003            0.000767586033           
       0.288304              0.0122837192            0.000806874892           
       0.288983              0.0111747642            0.000779337656           
       0.289663             0.00950634167            0.000723015549           
       0.290342               0.009780867            0.000729477021           
       0.291021              0.0112833059            0.000787724937           
       0.291700              0.0107701774            0.000759551137           
       0.292379              0.0109291118            0.000782653488           
       0.293058               0.010238673            0.000754666985           
       0.293738              0.0116915769            0.000799664302           
       0.294417              0.0105889139            0.000769866915           
       0.295096             0.00980128129            0.000732538754           
       0.295775             0.00949707568            0.000732093441           
       0.296454             0.00999939742            0.000741488618           
       0.297133             0.00939702374              0.0007222084           
       0.297812              0.0103579042            0.000762037031           
       0.298492              0.0105294762            0.000769806907           
       0.299171             0.00978186601            0.000740571259           
       0.299850             0.00963567459            0.000729997324           
       0.300529              0.0094025966            0.000729237273           
       0.301208              0.0106336402            0.000777394483           
       0.301887             0.00937386209            0.000729026582           
       0.302567             0.00855614601            0.000693014964           
       0.303246             0.00918475085            0.000722708924           
       0.303925             0.00941525609            0.000741116596           
       0.304604              0.0108508341            0.000778433723           
       0.305283             0.00966418917            0.000745532524           
       0.305962             0.00927719975            0.000726040324           
       0.306642              0.0103031891            0.000775526745           
       0.307321             0.00728172781            0.000649888959           
       0.308000             0.00924492534            0.000723594222           
       0.308679             0.00788662634            0.000682800043           
       0.309358             0.00969891658            0.000746955407           
       0.310037             0.00828274497            0.000691809889           
       0.310717              0.0100570214             0.00076158129           
       0.311396              0.0102557894            0.000774228333           
       0.312075             0.00915401639            0.000740735377           
       0.312754             0.00817280469            0.000685908878           
       0.313433             0.00852711291            0.000706712271           
       0.314112             0.00980059651            0.000757474783           
       0.314792             0.00893023445            0.000728164402           
       0.315471             0.00889060238            0.000717561902           
       0.316150              0.0101537049            0.000773939322           
       0.316829             0.00750490472            0.000669770014           
       0.317508             0.00926015209             0.00073563318           
       0.318187             0.00871092724            0.000722896359           
       0.318866             0.00901428569            0.000725469772           
       0.319546             0.00911566946            0.000740473615           
       0.320225             0.00786416525            0.000687780897           
       0.320904             0.00772929002            0.000671314529           
       0.321583             0.00868257059            0.000727186898           
       0.322262             0.00889569954            0.000724902175           
       0.322941             0.00784977362            0.000689678369           
       0.323621             0.00781544597            0.000683968979           
       0.324300             0.00824940331            0.000703252115           
       0.324979             0.00804360338            0.000695680046           
       0.325658              0.0081219686            0.000700328895           
       0.326337             0.00785382134            0.000689570067           
       0.327016             0.00709250118            0.000651135893           
       0.327696             0.00750699652             0.00067734276           
       0.328375             0.00821257887            0.000702481473           
       0.329054               0.007764562             0.00068675638           
       0.329733             0.00854736579            0.000723175169           
       0.330412             0.00809616185            0.000698061811           
       0.331091             0.00760512268            0.000688834151           
       0.331771             0.00765446746            0.000672957065           
       0.332450              0.0084681811            0.000721565972           
       0.333129             0.00736905136            0.000671374236           
       0.333808             0.00692010088             0.00065146145           
       0.334487             0.00685804967            0.000651609015           
       0.335166             0.00724438376             0.00065990968           
       0.335846             0.00733940328            0.000675895897           
       0.336525               0.007786575            0.000689308366           
       0.337204             0.00739910531            0.000673700687           
       0.337883             0.00718212787             0.00066462894           
       0.338562             0.00596228579            0.000608923109           
       0.339241             0.00605597573            0.000614838653           
       0.339921             0.00594583192            0.000599005179           
       0.340600             0.00700794677            0.000662658516           
       0.341279             0.00512811217            0.000560786439           
       0.341958             0.00660638086            0.000645483099           
       0.342637             0.00814680203            0.000706671465           
       0.343316             0.00613959758            0.000615246986           
       0.343995             0.00692172671             0.00066395765           
       0.344675             0.00710259535            0.000660216077           
       0.345354             0.00688126602            0.000654134467           
       0.346033             0.00760489054            0.000685876236           
       0.346712             0.00670386317             0.00064807339           
       0.347391             0.00570835875            0.000601724948           
       0.348070             0.00608276298            0.000612323605           
       0.348750             0.00697603561            0.000665220043           
       0.349429             0.00598771527             0.00060834282           
       0.350108             0.00576714824            0.000604217423           
       0.350787              0.0064445882            0.000627868528           
       0.351466             0.00671093982            0.000652514597           
       0.352145             0.00679153456            0.000656965793           
       0.352825             0.00553497692            0.000590398284           
       0.353504             0.00565750882            0.000596751171           
       0.354183             0.00620535998            0.000617776738           
       0.354862             0.00489107425            0.000561211506           
       0.355541             0.00600875882            0.000613891366           
       0.356220             0.00592339948            0.000610666667           
       0.356900               0.005261144            0.000580984362           
       0.357579             0.00606942629            0.000616367848           
       0.358258             0.00643402678             0.00064339306           
       0.358937             0.00642714027            0.000630959093           
       0.359616             0.00510043841            0.000569926344           
       0.360295             0.00591808824            0.000614422827           
       0.360975             0.00548921009            0.000589210116           
       0.361654             0.00535974054            0.000585221676           
       0.362333             0.00549889109            0.000589755717           
       0.363012             0.00635821534            0.000642324288           
       0.363691             0.00579407857            0.000601069972           
       0.364370             0.00511168878            0.000571570178           
       0.365050             0.00575334195            0.000603138829           
       0.365729             0.00452069666            0.000539735853           
       0.366408             0.00589626035            0.000617770921           
       0.367087             0.00487767323            0.000552870568           
       0.367766             0.00398854586             0.00051036436           
       0.368445             0.00440005487            0.000526528769           
       0.369124             0.00524697694            0.000579490067           
       0.369804             0.00523305872             0.00057779496           
       0.370483             0.00578936216            0.000610389946           
       0.371162             0.00521731692            0.000582809011           
       0.371841             0.00477036294            0.000547569705           
       0.372520             0.00438872501            0.000535737511           
       0.373199             0.00509744564            0.000570478462           
       0.373879             0.00504118784            0.000573890062           
       0.374558             0.00398020928            0.000502494314           
       0.375237             0.00546547708            0.000589798387           
       0.375916             0.00530171158             0.00059202335           
       0.376595             0.00444012839             0.00053119799           
       0.377274             0.00368373981            0.000491586351           
       0.377954             0.00456994554            0.000538932484           
       0.378633             0.00489866208            0.000565029982           
       0.379312              0.0054065283            0.000593447548           
       0.379991             0.00471278596            0.000551198841           
       0.380670             0.00436321353            0.000539736347           
       0.381349             0.00382851268            0.000498324834           
       0.382029             0.00501690358            0.000578620596           
       0.382708             0.00491535097            0.000560227403           
       0.383387             0.00429882267            0.000535789364           
       0.384066             0.00322127088            0.000459546772           
       0.384745             0.00396476616            0.000511833591           
       0.385424             0.00427181097             0.00053308757           
       0.386104             0.00469060604            0.000552434656           
       0.386783             0.00430154914            0.000540471088           
       0.387462              0.0051031024            0.000574032668           
       0.388141             0.00407926312              0.0005214251           
       0.388820             0.00355949055            0.000483553146           
       0.389499             0.00419241835            0.000527740726           
       0.390178             0.00463940023            0.000557372122           
       0.390858             0.00468808693            0.000555755386           
       0.391537             0.00438788599            0.000543157451           
       0.392216             0.00465095374            0.000552193326           
       0.392895             0.00483253113            0.000564765428           
       0.393574             0.00414199838            0.000521564335           
       0.394253             0.00286162432            0.000435470385           
       0.394933             0.00306764895            0.000456026195           
       0.395612             0.00505385222            0.000568324321           
       0.396291             0.00360422725            0.000489715581           
       0.396970             0.00365523372            0.000488799163           
       0.397649             0.00367701626            0.000491762863           
       0.398328             0.00417255906            0.000521550106           
       0.399008             0.00422367724            0.000523594748           
       0.399687             0.00406449972            0.000515631155           
       0.400366             0.00402586922            0.000511212142           
       0.401045             0.00465936107            0.000548924494           
       0.401724             0.00369860978            0.000489883714           
       0.402403             0.00330914258             0.00046698538           
       0.403083             0.00429302196            0.000524226709           
       0.403762             0.00343373007            0.000471147594           
       0.404441             0.00393400989            0.000507515006           
       0.405120             0.00410190922            0.000516532539           
       0.405799             0.00463791932            0.000546859093           
       0.406478             0.00309343704            0.000446627429           
       0.407158             0.00333787656            0.000463067233           
       0.407837             0.00404635711            0.000514348466           
       0.408516             0.00484726374            0.000558057601           
       0.409195             0.00380621157            0.000500122099           
       0.409874              0.0033086224            0.000472774424           
       0.410553             0.00367929209            0.000503916325           
       0.411233             0.00329793808            0.000474614899           
       0.411912             0.00353023342            0.000498003298           
       0.412591             0.00371962935            0.000514570821           
       0.413270             0.00285772859            0.000448887646           
       0.413949             0.00248359543            0.000423043723           
       0.414628             0.00262142314            0.000433843347           
       0.415307             0.00319048968              0.0004839464           
       0.415987              0.0025654757            0.000430386747           
       0.416666             0.00345327045             0.00049632869           
       0.417345             0.00349902282            0.000507948842           
       0.418024              0.0025583146            0.000434344799           
       0.418703             0.00393158799             0.00053745619           
       0.419382             0.00251680691             0.00042790817           
       0.420062             0.00216453062            0.000397944578           
       0.420741             0.00293876502            0.000466151012           
       0.421420             0.00325655627            0.000492569413           
       0.422099             0.00399219584            0.000545387718           
       0.422778             0.00336944973            0.000503760858           
       0.423457             0.00264592835            0.000449142419           
       0.424137             0.00211506554            0.000395021824           
       0.424816             0.00282383291            0.000465973873           
       0.425495             0.00274535297            0.000459018429           
       0.426174             0.00259598856            0.000446513357           
       0.426853             0.00279143318             0.00046020425           
       0.427532             0.00230475264            0.000421701908           
       0.428212             0.00227006837            0.000421279493           
       0.428891             0.00208406049            0.000402732876           
       0.429570             0.00263319532            0.000453002193           
       0.430249             0.00368409005            0.000533044143           
       0.430928             0.00184856772            0.000385842683           
       0.431607             0.00262857358            0.000452194829           
       0.432287             0.00291105798            0.000479358159           
       0.432966             0.00185086365            0.000385589564           
       0.433645              0.0020769426            0.000408887275           
       0.434324             0.00390329964            0.000557161986           
       0.435003             0.00215267646            0.000414472803           
       0.435682             0.00202514761            0.000405305396           
       0.436361             0.00243407803            0.000443751326           
       0.437041             0.00281987988            0.000476988327           
       0.437720             0.00195151446            0.000398720046           
       0.438399             0.00230490351            0.000435581014           
       0.439078             0.00176519754            0.000392241725           
       0.439757             0.00278189207            0.000489376989           
       0.440436             0.00273175552            0.000495876098           
       0.441116             0.00264081521             0.00049552481           
       0.441795             0.00322656779            0.000548390238           
       0.442474             0.00277375131            0.000509873446           
       0.443153             0.00282485934            0.000526553606           
       0.443832             0.00223276408            0.000468918123           
       0.444511             0.00250657978            0.000494601115           
       0.445191             0.00254915499            0.000510915945           
       0.445870             0.00264559249            0.000520504719           
       0.446549             0.00177054008            0.000430300423           
       0.447228             0.00257166611            0.000515662079           
       0.447907             0.00211654633            0.000473425913           
       0.448586             0.00168221115            0.000432219388           
       0.449266             0.00184915425            0.000448990689           
       0.449945             0.00260394106            0.000530629393           
       0.450624             0.00303468363            0.000581935714           
       0.451303             0.00186422789            0.000462020533           
       0.451982             0.00182696172             0.00045455182           
       0.452661             0.00319179744            0.000612001993           
       0.453341             0.00357502391            0.000649970952           
       0.454020             0.00274691694            0.000570608915           
       0.454699             0.00340493537            0.000641089608           
       0.455378             0.00233769629            0.000531485408           
       0.456057              0.0032979412            0.000642502165           
       0.456736             0.00166336878            0.000454873906           
       0.457416             0.00241590516            0.000548212612           
       0.458095             0.00209153889            0.000517466372           
       0.458774                0.00203452            0.000517108967           
       0.459453             0.00114774547            0.000390354092           
       0.460132             0.00146070744            0.000430859579           
       0.460811             0.00213053768               0.000539768           
       0.461490            0.000885217338            0.000344387904           
       0.462170             0.00257191876             0.00059617884           
       0.462849             0.00107243186            0.000387472145           
       0.463528             0.00162549655            0.000475927045           
       0.464207             0.00242918415            0.000592691395           
       0.464886             0.00110273178            0.000396221844           
       0.465565             0.00127732043            0.000431119995           
       0.466245             0.00114413182             0.00040929067           
       0.466924             0.00120404633            0.000429788668           
       0.467603             0.00144871186            0.000461438177           
       0.468282            0.000910317307            0.000374452885           
       0.468961             0.00200260295            0.000559038711           
       0.469640            0.000942369863            0.000385020849           
       0.470320             0.00188190363            0.000544467938           
       0.470999            0.000632183793            0.000318546136           
       0.471678             0.00131348318            0.000463572271           
       0.472357             0.00179921357            0.000544073144           
       0.473036             0.00232072717            0.000621814249           
       0.473715             0.00253413748             0.00065485917           
       0.474395            0.000725648919            0.000355269817           
       0.475074             0.00106036326            0.000429472164           
       0.475753             0.00105088716            0.000423859629           
       0.476432             0.00113213326            0.000455955739           
       0.477111            0.000927868903            0.000407786974           
       0.477790            0.000938392129            0.000412283986           
       0.478470            0.000424181189            0.000280857224           
       0.479149            0.000807570787            0.000391533695           
       0.479828            0.000435268994            0.000286770279           
       0.480507            6.41128697e-05            0.000110946916           
       0.481186            8.39578993e-05            0.000129823917           
       0.481865             0.00161106626            0.000561654272           
       0.482545            0.000670254569            0.000366525234           
       0.483224            0.000672151343            0.000369551504           
       0.483903            0.000702865605            0.000383853186           
       0.484582            0.000529155145            0.000338474645           
       0.485261            0.000496658966            0.000319608878           
       0.485940             0.00142879896            0.000563963237           
       0.486619           -0.000318138727                         0           
       0.487299           -0.000106104665                         0           
       0.487978            0.000743892741            0.000404704396           
       0.488657            0.000135352729            0.000179753633           
       0.489336            0.000137692261            0.000178121759           
       0.490015            0.000138764834            0.000180219423           
       0.490694           -0.000318254303                         0           
       0.491374           -7.79642732e-05                         0           
       0.492053            0.000159840649            0.000201734853           
       0.492732           -6.84360711e-05                         0           
       0.493411           -0.000318331617                         0           
       0.494090             0.00019493818            0.000224247459           
       0.494769            -0.00031837049                         0           
       0.495449           -5.86805059e-05                         0           
       0.496128            0.000221079986            0.000243351801           
       0.496807            0.000240320212            0.000259629326           
       0.497486            0.000219980244            0.000242488305           
       0.498165            0.000246712353            0.000264009239           
       0.498844           -3.74069838e-05                         0           
       0.499524           -0.000318507452                         0           
       0.500203           -3.22948887e-05                         0           
       0.500882           -1.40119006e-05                         0           
       0.501561           -0.000318566511                         0           
       0.502240           -0.000318586369                         0           
       0.502919           -0.000318606139                         0           
       0.503599           -0.000318625988                         0           
       0.504278           -0.000318646116                         0           
       0.504957           -0.000318666008                         0           
       0.505636           -0.000318685772                         0           
       0.506315           -0.000318705861                         0           
       0.506994           -0.000318725592                         0           
       0.507673           -0.000318745282                         0           
       0.508353            1.62572558e-05            7.33081716e-05           
       0.509032            4.47183349e-05            0.000127362293           
       0.509711             2.2478051e-05            8.76750982e-05           
       0.510390           -0.000318825777                         0           
       0.511069           -0.000318846052                         0           
       0.511748           -0.000318866245                         0           
       0.512428            6.40348815e-05            0.000156030103           
       0.513107           -0.000318906607                         0           
       0.513786           -0.000318926695                         0           
       0.514465           -0.000318947124                         0           
       0.515144            -0.00031896754                         0           
       0.515823            -0.00031898777                         0           
       0.516503            -0.00031900819                         0           
       0.517182           -0.000319028607                         0           
       0.517861           -0.000319048975                         0           
       0.518540           -0.000319069458                         0           
       0.519219           -0.000319089823                         0           
       0.519898           -0.000319110393                         0           
       0.520578           -0.000319131087                         0           
       0.521257            0.000678682174            0.000577664034           
       0.521936           -0.000319171989                         0           
       0.522615            -0.00031919271                         0           
       0.523294           -0.000319213508                         0           
       0.523973           -0.000319234018                         0           
       0.524653           -0.000319254381                         0           
       0.525332            -0.00031927504                         0           
       0.526011            -0.00031929607                         0           
       0.526690           -0.000319317061                         0           
       0.527369           -0.000319337878                         0           
       0.528048           -0.000319358843                         0           
       0.528728            0.000207403073            0.000330518038           
       0.529407            0.000768119984            0.000644663479           
       0.530086           -0.000319421364                         0           
       0.530765           -0.000319442129                         0           
       0.531444           -0.000319463119                         0           
       0.532123            -0.00031948448                         0           
       0.532802           -0.000319505667                         0           
       0.533482           -0.000319526781                         0           
       0.534161           -0.000319547929                         0           
       0.534840           -0.000319568896                         0           
       0.535519           -0.000319590251                         0           
       0.536198           -0.000319611385                         0           
       0.536877           -0.000319632228                         0           
       0.537557            -0.00031965343                         0           
       0.538236           -0.000319674822                         0           
       0.538915           -0.000319696207                         0           
       0.539594           -0.000319717563                         0           
       0.540273           -0.000319739253                         0           
       0.540952           -0.000319760701                         0           
       0.541632           -0.000319781757                         0           
       0.542311             0.00160933392             0.00101235357           
       0.542990           -0.000319824494                         0           
       0.543669            -0.00031984616                         0           
       0.544348           -0.000319867801                         0           
       0.545027           -0.000319889396                         0           
       0.545707           -0.000319911056                         0           
       0.546386           -0.000319932776                         0           
       0.547065           -0.000319954236                         0           
       0.547744           -0.000319975793                         0           
       0.548423           -0.000319997588                         0           
       0.549102           -0.000320019405                         0           
       0.549782           -0.000320041112                         0           
       0.550461           -0.000320063077                         0           
       0.551140           -0.000320085174                         0           
       0.551819            -0.00032010701                         0           
       0.552498             0.00131653009             0.00103955696           
       0.553177             0.00136707043             0.00107417558           
       0.553856           -0.000320172399                         0           
       0.554536           -0.000320194193                         0           
       0.555215           -0.000320216318                         0           
       0.555894           -0.000320238392                         0           
       0.556573           -0.000320260597                         0           
       0.557252           -0.000320282783                         0           
       0.557931           -0.000320304869                         0           
       0.558611             0.00159373877             0.00123159291           
       0.559290           -0.000320349499                         0           
       0.559969           -0.000320370984                         0           
       0.560648            -0.00032039304                         0           
       0.561327           -0.000320415586                         0           
       0.562006           -0.000320438028                         0           
       0.562686           -0.000320460483                         0           
       0.563365           -0.000320483021                         0           
       0.564044           -0.000320505444                         0           
       0.564723           -0.000320527819                         0           
       0.565402           -0.000320549776                         0           
       0.566081           -0.000320571879                         0           
       0.566761            -0.00032059422                         0           
       0.567440           -0.000320617016                         0           
       0.568119           -0.000320639631                         0           
       0.568798           -0.000320662564                         0           
       0.569477            -0.00032068535                         0           
       0.570156           -0.000320708246                         0           
       0.570836           -0.000320731056                         0           
       0.571515           -0.000320753384                         0           
       0.572194            -0.00032077636                         0           
       0.572873           -0.000320798809                         0           
       0.573552           -0.000320821126                         0           
       0.574231           -0.000320843897                         0           
       0.574911           -0.000320867241                         0           
       0.575590           -0.000320890136                         0           
       0.576269            -0.00032091296                         0           
       0.576948           -0.000320936224                         0           
       0.577627           -0.000320958777                         0           
       0.578306           -0.000320981649                         0           
       0.578985             0.00164161596             0.00179834645           
       0.579665           -0.000321027652                         0           
       0.580344           -0.000321050933                         0           
       0.581023            -0.00032107419                         0           
       0.581702           -0.000321097231                         0           
       0.582381           -0.000321120063                         0           
       0.583060           -0.000321143577                         0           
       0.583740           -0.000321166721                         0           
       0.584419           -0.000321189941                         0           
       0.585098           -0.000321213134                         0           
       0.585777           -0.000321236508                         0           
       0.586456           -0.000321260262                         0           
       0.587135           -0.000321283385                         0           
       0.587815           -0.000321306258                         0           
       0.588494           -0.000321329843                         0           
       0.589173            -0.00032135397                         0           
       0.589852           -0.000321376815                         0           
       0.590531           -0.000321400522                         0           
       0.591210           -0.000321423681                         0           
       0.591890           -0.000321447288                         0           
       0.592569           -0.000321470105                         0           
       0.593248           -0.000321495051                         0           
       0.593927           -0.000321518768                         0           
       0.594606           -0.000321542974                         0           
       0.595285           -0.000321565737                         0           
       0.595965           -0.000321586979                         0           
       0.596644           -0.000321608837                         0           
