################################################################################
# EDF_DataBlockID                     0.Image.Psd
# EDF_BinarySize                      4366944
# EDF_HeaderSize                      2560
# ByteOrder                           LowByteFirst
# DataType                            FloatValue
# Dim_1                               1028
# Dim_2                               1062
# Image                               0
# HeaderID                            EH:000000:000000:000000
# Size                                4366944
# Center_1                            607.5200
# Center_2                            651.5500
# Comment                             Xenocs_Cell_Window - 20251028_20perc_iodine_1.23mg
# DDummy                              0.6
# Date                                2025-11-01T17:42:51
# Delta                               0
# Dummy                               -1.5
# ExposureTime                        360
# Gamma                               0
# Intensity1                          8.67147e-10
# PSize_1                             7.5e-05
# PSize_2                             7.5e-05
# Pressure                            0.032609
# SampleDistance                      0.450002
# SampleEnvKind                       large
# SampleEnvPN                         ElectroChemical cell
# SampleEnvSN                         1141
# Thickness                           0
# Wavelength                          1.541891e-10
# Wavelength                          1.54189e-10
# aux                                 0
# aux_dial                            0.002375
# beamx                               588.434
# beamx_dial                          588.434
# beamz                               657.808
# beamz_dial                          657.808
# det0x                               0
# det0x_dial                          6.36945
# det0xvd                             0
# det0xvd_dial                        0
# det0y                               450.002
# det0y_dial                          481.635
# det0z                               0
# det0z_dial                          1.23302
# det0zvd                             0
# det0zvd_dial                        0
# mag                                 1.818
# mag_dial                            1.818
# om                                  0.2499
# om_dial                             -0.610199
# phi                                 -0.0120535
# phi_dial                            0
# ry                                  0.599993
# ry_dial                             0.599993
# s1bot                               0.8
# s1bot_dial                          -1.66094
# s1hl                                0.8
# s1hl_dial                           -0.608437
# s1hr                                0.8
# s1hr_dial                           0.970938
# s1top                               0.8
# s1top_dial                          -0.461562
# s2bot                               0.45
# s2bot_dial                          1.36109
# s2hl                                0.45
# s2hl_dial                           -0.83375
# s2hr                                0.45
# s2hr_dial                           -0.118594
# s2top                               0.45
# s2top_dial                          1.44734
# w2theta                             32
# w2theta_dial                        32
# waxsch                              19.2605
# waxsch_dial                         -32.7355
# waxsh                               137.085
# waxsh_dial                          -43.5338
# waxsth                              26.0607
# waxsth_dial                         -19.4086
# waxsz                               67.0407
# waxsz_dial                          -23.7954
# wind                                65.9854
# wind_dial                           66.0041
# wpsi                                124
# wpsi_dial                           124
# wstod                               115
# wstod_dial                          115
# x                                   0
# x_dial                              1.00969
# z                                   0
# z_dial                              13.3172
# CountCutoff                         15302352
# DetectorModel                       Dectris EIGER2 Si 1M, S/N E-02-0362
# ThresholdSetting                    4023.88989258
# Saturation                          0
# FlatField                           Corrected
# BackgroundReductionExtra            0.02
# BackgroundCorrectionConstant        0.0026712
# Detector                            0
# Monitor                             0
# Pil_Roi0                            0
# SumForIntensity1                    3.12173e+08
# TransmittedFlux                     867147
# det                                 0
# mon                                 0
# pilai0                              3.12173e+08
# pilai1                              788914
# pilct0                              5.40132e+08
# pilct1                              788914
# pilroi0                             0
# pilroi1                             0
# sec                                 1
# title                               20251028_20perc_iodine_1.23mg_0_00903.edf
# usaxs0                              0
# Operation                           Azimuthal average I(q)
# Error_model                         ErrorModel.poisson
# Geometrical_correction              True
# Transmission_correction             True
# Thickness_correction                False
# Binning mode                        Uniform
# Binning factor                      1.0
# Psi                                 0.0
# Omega                               0.2499
# MaskInvalidPixels                   True
# DetectorEdge                        3
# MaskFiles                           ['20251028_20perc_iodine_1.23mg_0_00012_mask.edf']
################################################################################
    q(A⁻¹)                Intensity(a.u.)            Sigma_I(a.u.)            
       0.000340                371426.044                119.489879           
       0.001019                358982.069                71.9361138           
       0.001698                349425.345                50.1848733           
       0.002377                330700.922                 43.667505           
       0.003056                308205.684                  35.62846           
       0.003735                253567.239                28.5004131           
       0.004415                204822.402                25.6149442           
       0.005094                  152900.9                19.1663962           
       0.005773                100965.099                14.4194214           
       0.006452                58784.3557                10.5419838           
       0.007131                 32270.314                7.56661217           
       0.007810                16205.0563                5.32120576           
       0.008490                 8120.3943                3.33891898           
       0.009169                 3917.6027                2.29201881           
       0.009848                1197.60665                1.22523855           
       0.010527                460.280623               0.759582867           
       0.011206                115.226052                0.36272097           
       0.011885                 53.102014               0.228781492           
       0.012564                24.4864124               0.159499652           
       0.013244                 17.050668               0.124430783           
       0.013923                 12.398632               0.107818598           
       0.014602                9.28225755              0.0865204019           
       0.015281                 7.3693279              0.0784755802           
       0.015960                5.85978847              0.0694764297           
       0.016639                4.95236125              0.0603138848           
       0.017319                4.10684506               0.054070213           
       0.017998                3.34837742              0.0467081307           
       0.018677                2.85111514              0.0446403727           
       0.019356                2.43526793              0.0407655131           
       0.020035                2.13784902              0.0358344969           
       0.020714                1.84191962              0.0336140133           
       0.021394                1.57918252              0.0294490337           
       0.022073                1.36095162              0.0284436672           
       0.022752                1.20030805              0.0255531314           
       0.023431                1.12418131               0.024004532           
       0.024110               0.972436124              0.0232762126           
       0.024789               0.886782146              0.0206428873           
       0.025469               0.823358623              0.0204978618           
       0.026148                0.71878171              0.0179948191           
       0.026827               0.682037694              0.0178093483           
       0.027506               0.628914746              0.0173483332           
       0.028185               0.578086599              0.0158615136           
       0.028864               0.499360758               0.014659248           
       0.029544               0.438435758              0.0133199696           
       0.030223               0.432640815              0.0134213853           
       0.030902               0.403555833               0.013081021           
       0.031581               0.381224125              0.0120859848           
       0.032260               0.336923104              0.0115556627           
       0.032939                0.32334936              0.0109154252           
       0.033619               0.308198813              0.0108132539           
       0.034298               0.270947925             0.00986663396           
       0.034977               0.268131136             0.00962232328           
       0.035656               0.244926745             0.00943993424           
       0.036335               0.226428576             0.00880302837           
       0.037014               0.195391031             0.00820185925           
       0.037693               0.207237716             0.00812575127           
       0.038373               0.178767242             0.00762103977           
       0.039052               0.170845115             0.00748196048           
       0.039731                0.16293987             0.00713652832           
       0.040410               0.162934639             0.00708856745           
       0.041089               0.142239154             0.00651935436           
       0.041768               0.144344705             0.00660174141           
       0.042448               0.147627624             0.00662458735           
       0.043127               0.126376007             0.00598448973           
       0.043806               0.123310408             0.00595553612           
       0.044485               0.112862772             0.00558060876           
       0.045164               0.110464588             0.00562981405           
       0.045843               0.111642919             0.00542839734           
       0.046523               0.108920406             0.00538031571           
       0.047202               0.105433407               0.005330482           
       0.047881              0.0970892595              0.0050165609           
       0.048560               0.103419939             0.00522472205           
       0.049239              0.0946587466             0.00479948117           
       0.049918              0.0917984992             0.00481880982           
       0.050598              0.0812098731             0.00446438095           
       0.051277              0.0891753118              0.0046633591           
       0.051956              0.0794263737             0.00437343922           
       0.052635              0.0832445083             0.00438230588           
       0.053314              0.0793350271             0.00440324425           
       0.053993                0.08068379             0.00431872519           
       0.054673              0.0744188914             0.00405527686           
       0.055352              0.0770674474             0.00418742608           
       0.056031              0.0742509954             0.00402383755           
       0.056710              0.0736003781             0.00410434044           
       0.057389              0.0697546005             0.00385307019           
       0.058068              0.0677459462             0.00383633112           
       0.058748              0.0688162135             0.00391474743           
       0.059427              0.0673059713             0.00380600369           
       0.060106              0.0760050398              0.0040827681           
       0.060785              0.0639128255             0.00363175147           
       0.061464              0.0596353799             0.00359267594           
       0.062143              0.0606341666             0.00358583698           
       0.062822              0.0511767067             0.00325567854           
       0.063502              0.0579848235             0.00345928152           
       0.064181              0.0567773307              0.0033869266           
       0.064860              0.0566739749             0.00343538187           
       0.065539              0.0502397082             0.00320286847           
       0.066218              0.0490167021             0.00309590461           
       0.066897              0.0545882447             0.00329234108           
       0.067577              0.0516172118              0.0032322502           
       0.068256              0.0478235988             0.00318763179           
       0.068935              0.0483754959             0.00315413331           
       0.069614              0.0505615525             0.00325671287           
       0.070293              0.0449195209             0.00309794105           
       0.070972              0.0498161717             0.00323853972           
       0.071652                0.04018246             0.00291392369           
       0.072331              0.0435682135             0.00298012743           
       0.073010              0.0460740555              0.0031346547           
       0.073689              0.0451370637             0.00308556748           
       0.074368              0.0460305718             0.00311029099           
       0.075047              0.0411928452             0.00291068678           
       0.075727              0.0396935068             0.00283957673           
       0.076406              0.0404333562             0.00292309978           
       0.077085              0.0415489672             0.00290777424           
       0.077764              0.0392773703             0.00281726252           
       0.078443              0.0366107415             0.00273678683           
       0.079122              0.0397529002              0.0028244171           
       0.079802              0.0377082568             0.00277999793           
       0.080481               0.035636226             0.00261137828           
       0.081160              0.0442544265             0.00296977698           
       0.081839              0.0410820489             0.00281554445           
       0.082518              0.0355967017             0.00262305155           
       0.083197              0.0361622087             0.00260272592           
       0.083876              0.0359153171             0.00255072544           
       0.084556              0.0337585193             0.00254172679           
       0.085235              0.0375402567             0.00262852995           
       0.085914              0.0354683672             0.00257978426           
       0.086593              0.0359490618             0.00258049124           
       0.087272              0.0333073131             0.00244875729           
       0.087951              0.0324262221             0.00247072963           
       0.088631              0.0340702513             0.00244632771           
       0.089310              0.0331665245             0.00246485713           
       0.089989              0.0325597857             0.00241365589           
       0.090668              0.0360664054              0.0025683463           
       0.091347              0.0322081131             0.00244067278           
       0.092026              0.0317176417             0.00231505743           
       0.092706              0.0314063225             0.00238728443           
       0.093385              0.0326795592             0.00239779926           
       0.094064              0.0311691196             0.00236898533           
       0.094743               0.030748573             0.00231709254           
       0.095422              0.0322731937              0.0023473714           
       0.096101               0.027410017             0.00220784738           
       0.096781              0.0290484213             0.00224033173           
       0.097460              0.0293027818             0.00218873885           
       0.098139                0.03242366             0.00228463026           
       0.098818              0.0278482153             0.00209123151           
       0.099497              0.0293866578              0.0021526295           
       0.100176              0.0314483386             0.00216841596           
       0.100856              0.0284229516             0.00206015523           
       0.101535              0.0271100041             0.00200812962           
       0.102214              0.0280324664             0.00204202143           
       0.102893              0.0270765163             0.00198403517           
       0.103572              0.0276068746             0.00197377641           
       0.104251              0.0276306593              0.0019819212           
       0.104931               0.026127444             0.00190970936           
       0.105610              0.0226989562             0.00178760013           
       0.106289              0.0287044428             0.00197675944           
       0.106968              0.0248237338             0.00184374049           
       0.107647               0.025265408             0.00186118686           
       0.108326              0.0224800213             0.00173211224           
       0.109005              0.0273716922             0.00189927305           
       0.109685              0.0266832217             0.00185420059           
       0.110364              0.0283768997             0.00193385962           
       0.111043              0.0253781085              0.0018215736           
       0.111722              0.0243840059             0.00176371596           
       0.112401              0.0296180587             0.00194921811           
       0.113080              0.0247034097             0.00175976657           
       0.113760               0.023227151              0.0017348765           
       0.114439              0.0262149001             0.00181677817           
       0.115118               0.025325091             0.00177221419           
       0.115797              0.0252695318             0.00178666909           
       0.116476              0.0236726178             0.00170341085           
       0.117155              0.0212232666             0.00162588972           
       0.117835              0.0229587563             0.00165744265           
       0.118514              0.0228573146             0.00167474597           
       0.119193              0.0219848152             0.00164248299           
       0.119872              0.0249919904             0.00172931539           
       0.120551              0.0227190862             0.00163782186           
       0.121230              0.0230146886             0.00163185364           
       0.121910              0.0241707886             0.00168850071           
       0.122589              0.0223356963             0.00162481109           
       0.123268              0.0218982386             0.00157765273           
       0.123947              0.0226484565             0.00161482633           
       0.124626              0.0233390363             0.00161921754           
       0.125305              0.0222161456             0.00158753788           
       0.125985              0.0230714715             0.00160525617           
       0.126664               0.025410268             0.00166860935           
       0.127343               0.021595376             0.00155609289           
       0.128022              0.0230717188             0.00159606742           
       0.128701              0.0218451437             0.00154497149           
       0.129380              0.0243374831             0.00161030139           
       0.130059              0.0200782888             0.00146602069           
       0.130739              0.0218882685             0.00154143723           
       0.131418              0.0238437914             0.00160431697           
       0.132097              0.0221531066             0.00152656068           
       0.132776               0.020290986             0.00145439773           
       0.133455              0.0215701325             0.00151119003           
       0.134134              0.0211230406             0.00149068418           
       0.134814              0.0209743373             0.00147012238           
       0.135493              0.0226200375             0.00153288667           
       0.136172              0.0209361694             0.00146359539           
       0.136851              0.0235987288             0.00156291451           
       0.137530              0.0191827645             0.00137563701           
       0.138209                0.02117262               0.001462193           
       0.138889              0.0210537404             0.00146450953           
       0.139568              0.0202110343             0.00143428052           
       0.140247              0.0201697421             0.00143093693           
       0.140926              0.0202476025             0.00139270262           
       0.141605              0.0195365388             0.00140278511           
       0.142284              0.0182992794             0.00133514206           
       0.142964              0.0188966356             0.00136194836           
       0.143643              0.0163377703             0.00126478242           
       0.144322              0.0174073825             0.00127820935           
       0.145001              0.0225729389             0.00148543428           
       0.145680              0.0198490074             0.00135997383           
       0.146359              0.0172098584             0.00127097071           
       0.147039              0.0175074667             0.00129246683           
       0.147718              0.0192344841             0.00133236078           
       0.148397              0.0167222962             0.00126161336           
       0.149076              0.0206852748             0.00135963718           
       0.149755              0.0194601544             0.00133912172           
       0.150434              0.0212445884             0.00139974297           
       0.151114               0.019917916             0.00134783674           
       0.151793              0.0184680402             0.00129786575           
       0.152472              0.0166431429             0.00121031118           
       0.153151              0.0188883485             0.00130183187           
       0.153830              0.0194810017             0.00131246515           
       0.154509              0.0194792425             0.00130693012           
       0.155188              0.0171067651              0.0012243053           
       0.155868              0.0193808549             0.00129387023           
       0.156547              0.0191060238             0.00129291566           
       0.157226              0.0197412326             0.00128213291           
       0.157905              0.0191430853             0.00127316454           
       0.158584              0.0194269317             0.00128023873           
       0.159263              0.0195613211             0.00128938609           
       0.159943              0.0206138736             0.00132460832           
       0.160622              0.0167882233             0.00117232183           
       0.161301              0.0163939701              0.0011739696           
       0.161980              0.0168176528             0.00116882825           
       0.162659              0.0175287636              0.0012065097           
       0.163338              0.0201140206             0.00128188881           
       0.164018              0.0204659328             0.00128626738           
       0.164697              0.0192629478             0.00126391494           
       0.165376              0.0180029723              0.0011951835           
       0.166055              0.0187061264              0.0012263352           
       0.166734              0.0180727697             0.00119999603           
       0.167413              0.0188753714              0.0012272108           
       0.168093              0.0173314021             0.00118707207           
       0.168772                0.01729577             0.00115117107           
       0.169451              0.0159606274             0.00112619234           
       0.170130              0.0188467508             0.00120772086           
       0.170809              0.0163860774             0.00113956212           
       0.171488              0.0167098914             0.00114027629           
       0.172168              0.0167580603              0.0011309485           
       0.172847              0.0170546961             0.00115590111           
       0.173526              0.0172979882             0.00114190928           
       0.174205               0.015588646             0.00108901425           
       0.174884              0.0149518978             0.00106098294           
       0.175563               0.018882279             0.00119739591           
       0.176243              0.0160943205             0.00111653302           
       0.176922              0.0172186843             0.00112477967           
       0.177601              0.0165687682             0.00111547375           
       0.178280              0.0184052667             0.00116254601           
       0.178959              0.0176615258             0.00114797492           
       0.179638               0.017417246             0.00113672548           
       0.180317              0.0185953684             0.00116598468           
       0.180997              0.0185251266             0.00117009717           
       0.181676              0.0168412837              0.0011037398           
       0.182355              0.0163119682             0.00109278022           
       0.183034              0.0138576355            0.000991054615           
       0.183713              0.0153826911             0.00105688145           
       0.184392              0.0161537898             0.00108271944           
       0.185072              0.0166376185             0.00108629152           
       0.185751              0.0155263765             0.00105230681           
       0.186430              0.0172578342             0.00110166092           
       0.187109              0.0199490256             0.00119763793           
       0.187788              0.0187091699             0.00115696424           
       0.188467              0.0181222648             0.00112519752           
       0.189147              0.0175649774             0.00111897987           
       0.189826              0.0177778613             0.00110583307           
       0.190505              0.0166585543             0.00108807629           
       0.191184              0.0165150775             0.00106776647           
       0.191863              0.0176262055             0.00110542516           
       0.192542               0.015717755             0.00105371097           
       0.193222              0.0162170771             0.00104633128           
       0.193901              0.0164619454             0.00106833125           
       0.194580              0.0168891177             0.00106317489           
       0.195259              0.0159771033             0.00104594686           
       0.195938              0.0168802971             0.00107767095           
       0.196617               0.018075268             0.00109959726           
       0.197297              0.0163920366             0.00105142283           
       0.197976              0.0157778353             0.00101569182           
       0.198655              0.0160405378             0.00103529879           
       0.199334              0.0166895526             0.00104672281           
       0.200013              0.0158778679             0.00102038617           
       0.200692              0.0164874516             0.00104604336           
       0.201371              0.0159569006             0.00101748576           
       0.202051              0.0170521971             0.00105509774           
       0.202730               0.015740123             0.00100356867           
       0.203409              0.0155677947             0.00100475964           
       0.204088              0.0173965938             0.00106096269           
       0.204767              0.0167164578             0.00103455007           
       0.205446              0.0158758613             0.00101017324           
       0.206126              0.0159401654            0.000998464871           
       0.206805              0.0163546768              0.0010299045           
       0.207484              0.0153221829             0.00097894368           
       0.208163              0.0180406167             0.00106862414           
       0.208842              0.0169174359             0.00103201997           
       0.209521              0.0163417246             0.00100587828           
       0.210201              0.0157022582            0.000997004432           
       0.210880              0.0162553371            0.000994505336           
       0.211559              0.0157224878            0.000992530417           
       0.212238              0.0156998332            0.000986768228           
       0.212917              0.0166749519             0.00101317238           
       0.213596              0.0171106677             0.00103239262           
       0.214276              0.0187347742             0.00105777227           
       0.214955              0.0148202219            0.000960579924           
       0.215634               0.015581182            0.000977873288           
       0.216313              0.0153192684            0.000967583568           
       0.216992              0.0142838747            0.000934079221           
       0.217671              0.0144358717            0.000932675299           
       0.218351               0.015343313            0.000970946652           
       0.219030              0.0152014525            0.000951192548           
       0.219709               0.016190593            0.000987774665           
       0.220388                0.01567109            0.000970549796           
       0.221067              0.0160449959            0.000982838592           
       0.221746              0.0140508741            0.000918795747           
       0.222426              0.0146753262            0.000924957366           
       0.223105              0.0164419752             0.00099238798           
       0.223784              0.0160586889            0.000971024511           
       0.224463              0.0164497535            0.000990603185           
       0.225142              0.0142426923             0.00090717172           
       0.225821              0.0169769088             0.00099441715           
       0.226500              0.0137208048            0.000899666911           
       0.227180              0.0162732806             0.00096468734           
       0.227859              0.0145871947             0.00091744253           
       0.228538              0.0155117117            0.000936569131           
       0.229217              0.0146882158            0.000918583474           
       0.229896              0.0145989337            0.000915346538           
       0.230575              0.0159572484            0.000941727511           
       0.231255              0.0163904411            0.000968713896           
       0.231934              0.0148757954            0.000916564517           
       0.232613              0.0160033478            0.000954174281           
       0.233292              0.0149218095            0.000912465683           
       0.233971              0.0166340656            0.000962946763           
       0.234650              0.0150286285            0.000926064603           
       0.235330              0.0151548749            0.000921825531           
       0.236009              0.0134875632            0.000867765061           
       0.236688              0.0153208691            0.000921552562           
       0.237367              0.0139106775            0.000879392726           
       0.238046              0.0161341092            0.000953737845           
       0.238725              0.0134938345            0.000858759924           
       0.239405              0.0152684075            0.000919148504           
       0.240084              0.0136999234            0.000865114561           
       0.240763              0.0141382728            0.000887261107           
       0.241442              0.0158562804            0.000926383892           
       0.242121              0.0148805763            0.000899123219           
       0.242800              0.0139233823            0.000873841969           
       0.243480              0.0151029226            0.000905842632           
       0.244159              0.0174392075            0.000973858191           
       0.244838              0.0139859019            0.000857772218           
       0.245517              0.0137498123            0.000862735687           
       0.246196              0.0142832635            0.000879736198           
       0.246875              0.0129544298            0.000826135569           
       0.247554              0.0140451372            0.000868953856           
       0.248234                0.01506056            0.000886173147           
       0.248913              0.0140817634            0.000866504768           
       0.249592              0.0155845167            0.000902905992           
       0.250271              0.0127935651            0.000815696799           
       0.250950               0.013842946            0.000853687849           
       0.251629              0.0141565724            0.000855966717           
       0.252309              0.0156888242            0.000902928905           
       0.252988              0.0119811307            0.000775463151           
       0.253667               0.014036817            0.000849163654           
       0.254346              0.0129340196            0.000814956553           
       0.255025              0.0141933573            0.000851839708           
       0.255704              0.0137596786            0.000834883316           
       0.256384              0.0121163427            0.000780732665           
       0.257063              0.0134131921            0.000826136336           
       0.257742              0.0132727643            0.000816106281           
       0.258421              0.0135803857            0.000823920521           
       0.259100              0.0121042414            0.000779210397           
       0.259779              0.0141425523            0.000841553133           
       0.260459               0.013799216            0.000832907696           
       0.261138              0.0127347928            0.000784502716           
       0.261817              0.0138592323            0.000834924857           
       0.262496              0.0130510294            0.000802268948           
       0.263175              0.0124499406            0.000785259228           
       0.263854              0.0130184238            0.000799256565           
       0.264534              0.0130309985            0.000792812905           
       0.265213              0.0140447714            0.000836045295           
       0.265892              0.0129612669            0.000792859381           
       0.266571              0.0137317253            0.000814228406           
       0.267250              0.0127255154            0.000785149522           
       0.267929              0.0118285469            0.000756196796           
       0.268609              0.0118604617            0.000761362247           
       0.269288              0.0135244277            0.000799511648           
       0.269967              0.0131960218            0.000798253884           
       0.270646              0.0131318685            0.000792868843           
       0.271325              0.0142187786            0.000826406982           
       0.272004              0.0133234818            0.000791991963           
       0.272683              0.0119534572            0.000751095152           
       0.273363              0.0122934623            0.000766560404           
       0.274042              0.0123278482            0.000763102734           
       0.274721              0.0123124585            0.000762174126           
       0.275400              0.0113535302            0.000727046575           
       0.276079              0.0124998145            0.000767198251           
       0.276758              0.0134732797            0.000806563961           
       0.277438              0.0120835324            0.000755260039           
       0.278117              0.0116909596            0.000756398666           
       0.278796              0.0113624075            0.000738125311           
       0.279475              0.0106216571            0.000725448777           
       0.280154              0.0118489856            0.000755194504           
       0.280833              0.0110590924            0.000734025339           
       0.281513              0.0129039165            0.000805327788           
       0.282192              0.0113157855            0.000741278029           
       0.282871              0.0119436139            0.000766886085           
       0.283550              0.0124927242             0.00078851999           
       0.284229                0.01165362             0.00077276389           
       0.284908              0.0117105099             0.00078281857           
       0.285588              0.0112201358            0.000757280269           
       0.286267              0.0114393494            0.000776885432           
       0.286946             0.00951222916            0.000703823882           
       0.287625              0.0109735681            0.000768827905           
       0.288304              0.0111088118            0.000763197451           
       0.288983              0.0091803504            0.000702583511           
       0.289663              0.0104899897            0.000755423176           
       0.290342              0.0107513075            0.000760703523           
       0.291021             0.00891335078            0.000696367924           
       0.291700             0.00995510751             0.00072632403           
       0.292379              0.0103701509             0.00075828327           
       0.293058              0.0103499239             0.00075468191           
       0.293738              0.0100544858            0.000737586472           
       0.294417             0.00998053329            0.000743410461           
       0.295096               0.011489099             0.00078884924           
       0.295775              0.0100678949            0.000749726304           
       0.296454             0.00874991728            0.000689892452           
       0.297133             0.00923369508            0.000712060646           
       0.297812             0.00810769516            0.000670580134           
       0.298492              0.0114799692            0.000799485567           
       0.299171              0.0107232722            0.000771225728           
       0.299850              0.0113399674            0.000787676621           
       0.300529             0.00975785108            0.000738896986           
       0.301208             0.00923963938            0.000720758593           
       0.301887             0.00982889923            0.000742503271           
       0.302567             0.00906101037            0.000709338739           
       0.303246             0.00987566524            0.000745374882           
       0.303925              0.0086256532            0.000705550839           
       0.304604             0.00868303298            0.000692608237           
       0.305283              0.0100161792            0.000754912771           
       0.305962             0.00962190321            0.000735435561           
       0.306642             0.00817321591            0.000687019836           
       0.307321             0.00993717844            0.000755118879           
       0.308000             0.00886764518            0.000704870583           
       0.308679              0.0101396463            0.000770053957           
       0.309358              0.0103811777            0.000768631579           
       0.310037             0.00738804115            0.000649869447           
       0.310717              0.0101686497            0.000761684414           
       0.311396             0.00858712504            0.000704644804           
       0.312075             0.00879834354            0.000722303215           
       0.312754              0.0100470944            0.000756419912           
       0.313433             0.00883597323            0.000715534647           
       0.314112              0.0101486048            0.000766667302           
       0.314792             0.00978262703            0.000758032119           
       0.315471             0.00815700574            0.000683629836           
       0.316150               0.010417971            0.000779736857           
       0.316829             0.00842500438            0.000705829852           
       0.317508             0.00870625939            0.000709463238           
       0.318187             0.00934212446            0.000744609401           
       0.318866             0.00890659341            0.000717251263           
       0.319546             0.00865357285             0.00071758752           
       0.320225             0.00901190643            0.000732308335           
       0.320904             0.00923473233            0.000729844344           
       0.321583             0.00883458072            0.000729586352           
       0.322262             0.00797885549            0.000682843997           
       0.322941             0.00866945693            0.000720901338           
       0.323621             0.00737163306            0.000660698352           
       0.324300             0.00743964929            0.000664259626           
       0.324979             0.00830913039            0.000703272857           
       0.325658             0.00851436458            0.000713196757           
       0.326337             0.00717273212            0.000655453738           
       0.327016             0.00730591651            0.000657311342           
       0.327696              0.0100067232             0.00077782729           
       0.328375             0.00906268534            0.000733981976           
       0.329054             0.00737973477            0.000665926725           
       0.329733             0.00967277205            0.000765181892           
       0.330412             0.00724423481             0.00065676862           
       0.331091             0.00746042844            0.000678586615           
       0.331771             0.00710523746            0.000644883123           
       0.332450             0.00697203873            0.000651212483           
       0.333129             0.00651967102            0.000628106903           
       0.333808             0.00822822053            0.000706557184           
       0.334487             0.00751630435            0.000678501475           
       0.335166             0.00765113222             0.00067454119           
       0.335846             0.00651693727            0.000633480208           
       0.336525             0.00831558613            0.000708514256           
       0.337204             0.00641549923            0.000623956712           
       0.337883             0.00606402629            0.000607428361           
       0.338562             0.00846549597            0.000721679072           
       0.339241              0.0072738083            0.000670211493           
       0.339921             0.00571453376            0.000584085615           
       0.340600             0.00829739047            0.000717178062           
       0.341279              0.0069628919             0.00064994322           
       0.341958              0.0067376713            0.000648365396           
       0.342637             0.00575332885            0.000590670687           
       0.343316             0.00668944169            0.000638757959           
       0.343995             0.00622488378            0.000626268582           
       0.344675             0.00665972162            0.000635868693           
       0.345354             0.00502950512            0.000556233746           
       0.346033              0.0058635614            0.000599020737           
       0.346712             0.00694315338            0.000655996986           
       0.347391             0.00576419816            0.000601414211           
       0.348070             0.00766011906            0.000683455371           
       0.348750             0.00632397841            0.000629967315           
       0.349429             0.00585038146             0.00059809718           
       0.350108             0.00663938948            0.000644820158           
       0.350787             0.00710632355            0.000655775917           
       0.351466             0.00745703673            0.000684137737           
       0.352145             0.00648360081            0.000638452776           
       0.352825              0.0066527409            0.000643797566           
       0.353504             0.00566453547            0.000593915496           
       0.354183             0.00588838778            0.000598560575           
       0.354862             0.00548509074            0.000591123456           
       0.355541             0.00576291507            0.000597973715           
       0.356220             0.00579181218            0.000600603397           
       0.356900             0.00514127651            0.000571244032           
       0.357579             0.00500726709            0.000556837378           
       0.358258             0.00577405766            0.000606229889           
       0.358937             0.00513824041            0.000561127264           
       0.359616             0.00478695078            0.000549169368           
       0.360295             0.00692643347            0.000661139803           
       0.360975             0.00587413309            0.000606246166           
       0.361654             0.00587324189            0.000609325439           
       0.362333             0.00538889585            0.000580692668           
       0.363012             0.00507415334            0.000570729561           
       0.363691             0.00474866677            0.000541228348           
       0.364370             0.00646218698            0.000639203236           
       0.365050             0.00581387004            0.000603047749           
       0.365729             0.00536134307            0.000584624794           
       0.366408             0.00454106733            0.000539237334           
       0.367087             0.00656072447            0.000637756458           
       0.367766             0.00516774825            0.000577810679           
       0.368445             0.00604535184            0.000613854857           
       0.369124             0.00600220223            0.000616465216           
       0.369804             0.00586085866            0.000608188796           
       0.370483              0.0045872383            0.000540417631           
       0.371162             0.00503264403            0.000569328076           
       0.371841             0.00502947262            0.000559225248           
       0.372520             0.00459792123            0.000545412994           
       0.373199               0.004288368            0.000520440182           
       0.373879             0.00549138934            0.000595751615           
       0.374558             0.00552185294            0.000588684311           
       0.375237             0.00534917971            0.000580356673           
       0.375916             0.00516136946            0.000580998628           
       0.376595             0.00408611964            0.000506846025           
       0.377274             0.00462073877            0.000547611925           
       0.377954               0.004588687            0.000537136806           
       0.378633             0.00540952218             0.00059057363           
       0.379312             0.00555259646            0.000598181533           
       0.379991             0.00395747661            0.000502389394           
       0.380670             0.00516423438            0.000584040884           
       0.381349             0.00442269688            0.000532724806           
       0.382029               0.004566176            0.000549052889           
       0.382708             0.00403617376            0.000504933116           
       0.383387             0.00424798982            0.000529752363           
       0.384066             0.00506023449            0.000572879477           
       0.384745             0.00400066066            0.000511384663           
       0.385424             0.00551619934             0.00060252402           
       0.386104             0.00477456761            0.000554364366           
       0.386783             0.00417673626            0.000529712712           
       0.387462             0.00383100845            0.000494695396           
       0.388141             0.00389280249            0.000506633734           
       0.388820             0.00404129881            0.000512474923           
       0.389499             0.00349459786            0.000479235248           
       0.390178             0.00478824084            0.000563201966           
       0.390858             0.00425365359            0.000526536834           
       0.391537             0.00394146875            0.000512022403           
       0.392216             0.00350717747             0.00047693683           
       0.392895             0.00504370873            0.000573875413           
       0.393574             0.00592631948            0.000620522167           
       0.394253             0.00335581865            0.000469043805           
       0.394933             0.00524968886            0.000593356342           
       0.395612             0.00341493843            0.000464663177           
       0.396291             0.00435449416            0.000535387887           
       0.396970             0.00395543863            0.000505745526           
       0.397649             0.00450021247            0.000541110932           
       0.398328             0.00361780074            0.000483035399           
       0.399008             0.00417528991              0.0005177917           
       0.399687             0.00408558187            0.000514190923           
       0.400366             0.00328120002             0.00045903894           
       0.401045             0.00453098156            0.000538402937           
       0.401724             0.00392354878            0.000501851376           
       0.402403             0.00482989059            0.000561146214           
       0.403083             0.00430503924            0.000522141235           
       0.403762             0.00435359967            0.000527667071           
       0.404441             0.00383648798            0.000498493996           
       0.405120             0.00566360384            0.000603688555           
       0.405799               0.004587996            0.000540987468           
       0.406478             0.00362671395            0.000480997975           
       0.407158             0.00456815285            0.000538816734           
       0.407837             0.00321999585            0.000456367645           
       0.408516             0.00405433653            0.000507636038           
       0.409195             0.00458953822            0.000546230472           
       0.409874             0.00288807659            0.000439335776           
       0.410553             0.00376895448             0.00050728099           
       0.411233             0.00265855596            0.000423842856           
       0.411912             0.00308225458            0.000462835441           
       0.412591             0.00376311076            0.000514790672           
       0.413270             0.00357104167            0.000499098734           
       0.413949             0.00374608423              0.0005167678           
       0.414628             0.00329925311            0.000484098838           
       0.415307              0.0026510895            0.000438775765           
       0.415987             0.00360530271            0.000507466817           
       0.416666             0.00327107281            0.000480464202           
       0.417345             0.00258737738             0.00043444852           
       0.418024             0.00295288182            0.000464133088           
       0.418703             0.00345829359            0.000501362498           
       0.419382             0.00270827959            0.000441503575           
       0.420062             0.00257349862            0.000431583211           
       0.420741             0.00349031048            0.000505286945           
       0.421420               0.003876118            0.000534500959           
       0.422099             0.00225921816            0.000408075354           
       0.422778              0.0023638951            0.000419682514           
       0.423457             0.00261779734            0.000444349701           
       0.424137             0.00216485322            0.000397498276           
       0.424816             0.00265381019             0.00044930251           
       0.425495             0.00286601946            0.000466479368           
       0.426174             0.00240488014            0.000427456211           
       0.426853             0.00284074629            0.000461758689           
       0.427532             0.00220340242            0.000410111703           
       0.428212             0.00247322586            0.000437365564           
       0.428891             0.00206524739            0.000398758369           
       0.429570             0.00236799244            0.000427278233           
       0.430249             0.00288874789            0.000469477436           
       0.430928             0.00279445558            0.000471848999           
       0.431607             0.00244414185            0.000433701148           
       0.432287             0.00210305721            0.000405249125           
       0.432966             0.00199172565            0.000397845695           
       0.433645             0.00270836809            0.000464415855           
       0.434324             0.00251362721             0.00044471094           
       0.435003             0.00260345008            0.000453359928           
       0.435682             0.00160396658            0.000358767874           
       0.436361             0.00247230544            0.000444821043           
       0.437041             0.00191979389            0.000391454775           
       0.437720             0.00177823444            0.000378563326           
       0.438399              0.0030180244            0.000495753497           
       0.439078             0.00253182545             0.00046723553           
       0.439757             0.00232482995             0.00044497012           
       0.440436             0.00198748966             0.00042069422           
       0.441116             0.00298267181            0.000523794553           
       0.441795             0.00262017043            0.000491525366           
       0.442474             0.00385256606            0.000597675602           
       0.443153             0.00259977014            0.000502427613           
       0.443832             0.00231867853            0.000475288948           
       0.444511             0.00210865737            0.000451210482           
       0.445191             0.00282469384            0.000534932363           
       0.445870             0.00180706604            0.000427870215           
       0.446549             0.00256999209            0.000515640037           
       0.447228             0.00263417412            0.000519089196           
       0.447907             0.00239410115            0.000500807968           
       0.448586             0.00176667603             0.00044055922           
       0.449266             0.00194770684            0.000458325906           
       0.449945             0.00138911267            0.000385483959           
       0.450624             0.00282080889            0.000558042118           
       0.451303              0.0025160634            0.000533868642           
       0.451982             0.00304210937            0.000583402029           
       0.452661             0.00339620789            0.000627905309           
       0.453341             0.00294805623             0.00058706231           
       0.454020             0.00226826607            0.000515732657           
       0.454699             0.00241236557            0.000536719911           
       0.455378            0.000521927458            0.000249783772           
       0.456057             0.00239614514            0.000544717776           
       0.456736             0.00164836247            0.000450386076           
       0.457416            0.000924635808            0.000337331022           
       0.458095             0.00209018155            0.000514520889           
       0.458774             0.00227348645            0.000543699731           
       0.459453             0.00256775361            0.000580730268           
       0.460132             0.00181662564            0.000477912839           
       0.460811              0.0031938167             0.00065732381           
       0.461490             0.00206838234            0.000523600666           
       0.462170            0.000918688281            0.000354400127           
       0.462849             0.00270476182            0.000612043082           
       0.463528             0.00133486907            0.000428971599           
       0.464207             0.00183188077             0.00051192796           
       0.464886             0.00164894109            0.000481912162           
       0.465565             0.00183303288            0.000513683021           
       0.466245             0.00171388696            0.000498249357           
       0.466924              0.0010390784            0.000397117812           
       0.467603             0.00214892755            0.000558978685           
       0.468282             0.00118942746            0.000425727405           
       0.468961             0.00168287692            0.000509720944           
       0.469640              0.0012245836            0.000436545602           
       0.470320             0.00138051528            0.000463827053           
       0.470999             0.00143357861            0.000477115213           
       0.471678             0.00227467966            0.000606774276           
       0.472357             0.00146189772            0.000487793793           
       0.473036            0.000833696137            0.000370692985           
       0.473715            0.000856291349            0.000378621657           
       0.474395             0.00123165532            0.000460364127           
       0.475074            0.000716046449            0.000351026682           
       0.475753             0.00068386443            0.000340087652           
       0.476432             0.00164631492             0.00054688022           
       0.477111             0.00128112314            0.000476592631           
       0.477790            0.000399174462            0.000267453021           
       0.478470             0.00168487612            0.000556744235           
       0.479149            0.000998511716            0.000433029289           
       0.479828             0.00135296347            0.000502875127           
       0.480507            0.000625908949            0.000344794281           
       0.481186            0.000866227779            0.000414764738           
       0.481865            0.000843455134             0.00040420828           
       0.482545            0.000671949359            0.000365017853           
       0.483224            0.000881453197            0.000420923249           
       0.483903            0.000301966463            0.000250247764           
       0.484582            0.000326647009            0.000264506178           
       0.485261            9.66309714e-05            0.000140219919           
       0.485940           -0.000102043466                         0           
       0.486619            0.000112014927            0.000155332092           
       0.487299            0.000115786145            0.000160442847           
       0.487978            0.000544929265            0.000344520186           
       0.488657           -8.29962851e-05                         0           
       0.489336           -9.12685935e-05                         0           
       0.490015            0.000346610892            0.000283298864           
       0.490694           -6.99297146e-05                         0           
       0.491374           -9.44906491e-05                         0           
       0.492053           -0.000314884007                         0           
       0.492732           -0.000314903049                         0           
       0.493411           -0.000314922338                         0           
       0.494090           -6.29434303e-05                         0           
       0.494769           -0.000314960795                         0           
       0.495449           -5.58438741e-05                         0           
       0.496128           -0.000314999471                         0           
       0.496807           -0.000315018627                         0           
       0.497486           -0.000315037959                         0           
       0.498165            0.000241221467            0.000259653094           
       0.498844           -0.000315076884                         0           
       0.499524            -0.00031509629                         0           
       0.500203           -0.000315116004                         0           
       0.500882            -0.00031513533                         0           
       0.501561           -0.000315154717                         0           
       0.502240           -0.000315174362                         0           
       0.502919            -0.00031519392                         0           
       0.503599            0.000573477129            0.000412868769           
       0.504278           -0.000315233469                         0           
       0.504957             4.9044994e-06            3.93930342e-05           
       0.505636             -0.0003152727                         0           
       0.506315           -0.000315292575                         0           
       0.506994           -0.000315312094                         0           
       0.507673           -0.000315331573                         0           
       0.508353           -0.000315351463                         0           
       0.509032           -0.000315371269                         0           
       0.509711            0.000357769159            0.000347904648           
       0.510390            3.78671911e-05            0.000116050724           
       0.511069            0.000397997554             0.00037738305           
       0.511748           -0.000315451241                         0           
       0.512428           -0.000315471361                         0           
       0.513107            6.46881494e-05            0.000155739036           
       0.513786            0.000477023938            0.000434826523           
       0.514465            0.000430267785            0.000399782553           
       0.515144           -0.000315551451                         0           
       0.515823           -0.000315571464                         0           
       0.516503           -0.000315591665                         0           
       0.517182            9.80624708e-05            0.000202339955           
       0.517861           -0.000315632014                         0           
       0.518540           -0.000315652277                         0           
       0.519219           -0.000315672424                         0           
       0.519898            0.000148394594            0.000261229121           
       0.520578           -0.000315713246                         0           
       0.521257           -0.000315733454                         0           
       0.521936            0.000135410436            0.000247643445           
       0.522615           -0.000315774209                         0           
       0.523294           -0.000315794785                         0           
       0.523973           -0.000315815075                         0           
       0.524653            0.000191128953            0.000312776647           
       0.525332           -0.000315855657                         0           
       0.526011           -0.000315876463                         0           
       0.526690            0.000173691827            0.000289551852           
       0.527369            0.000213977822            0.000334629339           
       0.528048           -0.000315938563                         0           
       0.528728           -0.000315959279                         0           
       0.529407            0.000219580849            0.000342829047           
       0.530086           -0.000316000414                         0           
       0.530765           -0.000316020957                         0           
       0.531444           -0.000316041722                         0           
       0.532123           -0.000316062854                         0           
       0.532802           -0.000316083814                         0           
       0.533482            0.000255827734            0.000383356181           
       0.534161           -0.000316125624                         0           
       0.534840            0.000253261164            0.000383318785           
       0.535519           -0.000316167493                         0           
       0.536198           -0.000316188401                         0           
       0.536877            -0.00031620902                         0           
       0.537557           -0.000316229995                         0           
       0.538236           -0.000316251158                         0           
       0.538915            0.000294569361            0.000417595843           
       0.539594           -0.000316293441                         0           
       0.540273           -0.000316314899                         0           
       0.540952           -0.000316336117                         0           
       0.541632           -0.000316356948                         0           
       0.542311           -0.000316377969                         0           
       0.542990           -0.000316399227                         0           
       0.543669             0.00031323054            0.000444255007           
       0.544348           -0.000316442071                         0           
       0.545027           -0.000316463434                         0           
       0.545707           -0.000316484861                         0           
       0.546386           -0.000316506349                         0           
       0.547065            0.000415601505            0.000551357919           
       0.547744           -0.000316548906                         0           
       0.548423           -0.000316570467                         0           
       0.549102           -0.000316592051                         0           
       0.549782           -0.000316613525                         0           
       0.550461           -0.000316635254                         0           
       0.551140           -0.000316657115                         0           
       0.551819           -0.000316678717                         0           
       0.552498           -0.000316700504                         0           
       0.553177           -0.000316721916                         0           
       0.553856           -0.000316743406                         0           
       0.554536           -0.000316764966                         0           
       0.555215           -0.000316786855                         0           
       0.555894           -0.000316808692                         0           
       0.556573           -0.000316830659                         0           
       0.557252           -0.000316852608                         0           
       0.557931           -0.000316874457                         0           
       0.558611           -0.000316896817                         0           
       0.559290           -0.000316918609                         0           
       0.559969           -0.000316939864                         0           
       0.560648           -0.000316961684                         0           
       0.561327           -0.000316983989                         0           
       0.562006            -0.00031700619                         0           
       0.562686           -0.000317028405                         0           
       0.563365           -0.000317050701                         0           
       0.564044           -0.000317072884                         0           
       0.564723           -0.000317095019                         0           
       0.565402           -0.000317116741                         0           
       0.566081            0.000949979463             0.00110125269           
       0.566761            -0.00031716071                         0           
       0.567440           -0.000317183261                         0           
       0.568119           -0.000317205634                         0           
       0.568798           -0.000317228321                         0           
       0.569477           -0.000317250863                         0           
       0.570156           -0.000317273514                         0           
       0.570836            -0.00031729608                         0           
       0.571515           -0.000317318169                         0           
       0.572194           -0.000317340898                         0           
       0.572873           -0.000317363107                         0           
       0.573552           -0.000317385186                         0           
       0.574231           -0.000317407712                         0           
       0.574911           -0.000317430806                         0           
       0.575590           -0.000317453456                         0           
       0.576269             0.00150537868             0.00165908435           
       0.576948            -0.00031749905                         0           
       0.577627           -0.000317521362                         0           
       0.578306           -0.000317543989                         0           
       0.578985            -0.00031756681                         0           
       0.579665           -0.000317589499                         0           
       0.580344           -0.000317612531                         0           
       0.581023           -0.000317635539                         0           
       0.581702           -0.000317658333                         0           
       0.582381           -0.000317680921                         0           
       0.583060           -0.000317704182                         0           
       0.583740           -0.000317727078                         0           
       0.584419            -0.00031775005                         0           
       0.585098           -0.000317772995                         0           
       0.585777           -0.000317796119                         0           
       0.586456           -0.000317819618                         0           
       0.587135           -0.000317842493                         0           
       0.587815           -0.000317865121                         0           
       0.588494           -0.000317888454                         0           
       0.589173           -0.000317912323                         0           
       0.589852           -0.000317934923                         0           
       0.590531           -0.000317958376                         0           
       0.591210           -0.000317981287                         0           
       0.591890           -0.000318004641                         0           
       0.592569           -0.000318027214                         0           
       0.593248           -0.000318051892                         0           
       0.593927           -0.000318075356                         0           
       0.594606           -0.000318099302                         0           
       0.595285           -0.000318121821                         0           
       0.595965           -0.000318142836                         0           
       0.596644            -0.00031816446                         0           
