################################################################################
# EDF_DataBlockID                     0.Image.Psd
# EDF_BinarySize                      2105344
# EDF_HeaderSize                      2560
# ByteOrder                           LowByteFirst
# DataType                            FloatValue
# Dim_1                               512
# Dim_2                               1028
# Image                               0
# HeaderID                            EH:000000:000000:000000
# Size                                2105344
# Center_1                            304.9000
# Center_2                            588.7000
# Comment                             Xenocs_Cell_Window - 20251028_20perc_iodine_1.23mg
# DDummy                              0.6
# Date                                2025-10-28T21:20:07
# Delta                               21.910000
# Dummy                               -1.5
# ExposureTime                        360
# Gamma                               15.360000
# Intensity1                          8.54518e-10
# PSize_1                             7.5e-05
# PSize_2                             7.5e-05
# Pressure                            0.034339
# SampleDistance                      0.115750
# SampleEnvKind                       large
# SampleEnvPN                         ElectroChemical cell
# SampleEnvSN                         1141
# Thickness                           0
# Wavelength                          1.541891e-10
# Wavelength                          1.54189e-10
# aux                                 0
# aux_dial                            0.002375
# beamx                               588.434
# beamx_dial                          588.434
# beamz                               657.808
# beamz_dial                          657.808
# det0x                               0
# det0x_dial                          6.36945
# det0xvd                             0
# det0xvd_dial                        0
# det0y                               450.002
# det0y_dial                          481.635
# det0z                               0
# det0z_dial                          1.23302
# det0zvd                             0
# det0zvd_dial                        0
# mag                                 1.818
# mag_dial                            1.818
# om                                  0.2499
# om_dial                             -0.610199
# phi                                 -0.0120535
# phi_dial                            0
# ry                                  0.599993
# ry_dial                             0.599993
# s1bot                               0.8
# s1bot_dial                          -1.66094
# s1hl                                0.8
# s1hl_dial                           -0.608437
# s1hr                                0.8
# s1hr_dial                           0.970938
# s1top                               0.8
# s1top_dial                          -0.461562
# s2bot                               0.45
# s2bot_dial                          1.36109
# s2hl                                0.45
# s2hl_dial                           -0.83375
# s2hr                                0.45
# s2hr_dial                           -0.118594
# s2top                               0.45
# s2top_dial                          1.44734
# w2theta                             32
# w2theta_dial                        32
# waxsch                              19.2605
# waxsch_dial                         -32.7355
# waxsh                               137.085
# waxsh_dial                          -43.5338
# waxsth                              26.0607
# waxsth_dial                         -19.4086
# waxsz                               67.0407
# waxsz_dial                          -23.7954
# wind                                65.9854
# wind_dial                           66.0041
# wpsi                                124
# wpsi_dial                           124
# wstod                               115
# wstod_dial                          115
# x                                   0
# x_dial                              1.00969
# z                                   0
# z_dial                              13.3172
# CountCutoff                         6807993
# DetectorModel                       Dectris EIGER2 Si 500K, S/N E-01-0554
# ThresholdSetting                    4023.88989258
# Saturation                          0
# FlatField                           Corrected
# BackgroundReductionExtra            0.02
# BackgroundCorrectionConstant        0.0026712
# Detector                            0
# Monitor                             0
# Pil_Roi0                            0
# SumForIntensity1                    3.07626e+08
# TransmittedFlux                     854518
# det                                 0
# mon                                 0
# pilai0                              3.07626e+08
# pilai1                              786417
# pilct0                              5.32259e+08
# pilct1                              786417
# pilroi0                             0
# pilroi1                             0
# sec                                 1
# title                               20251028_20perc_iodine_1.23mg_1_00063.edf
# usaxs0                              0
# Operation                           Azimuthal average I(q)
# Error_model                         ErrorModel.poisson
# Geometrical_correction              True
# Transmission_correction             True
# Thickness_correction                False
# Binning mode                        Uniform
# Binning factor                      1.0
# Psi                                 0.0
# Omega                               0.2499
# MaskInvalidPixels                   True
# DetectorEdge                        3
# MaskFiles                           ['WAXS_corrected.edf']
################################################################################
    q(A⁻¹)                Intensity(a.u.)            Sigma_I(a.u.)            
       0.693100             0.00412140366             0.00428130371           
       0.695741             0.00274861583             0.00285310793           
       0.698381              0.0127697395              0.0075329495           
       0.701021              0.0265109914              0.0153440218           
       0.703662             0.00569851039             0.00410625917           
       0.706302             0.00347738925              0.0024834161           
       0.708942              0.0143212273             0.00650480097           
       0.711583             0.00437580345             0.00311356969           
       0.714223             0.00877677342             0.00509092912           
       0.716864             0.00496965946              0.0025064769           
       0.719504             0.00586496779             0.00293833334           
       0.722144             0.00501973535             0.00251741882           
       0.724785             0.00472637389              0.0019485453           
       0.727425             0.00292017219             0.00207200475           
       0.730065             0.00288048477             0.00145566193           
       0.732706              0.0071864904             0.00193078938           
       0.735346             0.00793479993             0.00264465228           
       0.737987              0.0070453534             0.00176095822           
       0.740627              0.0107004256             0.00323805834           
       0.743267             0.00565978819             0.00157734391           
       0.745908             0.00568500738             0.00171514382           
       0.748548             0.00303492401             0.00115511007           
       0.751189               0.003996292             0.00178605404           
       0.753829             0.00607411054             0.00202410222           
       0.756469             0.00609769267             0.00163533679           
       0.759110              0.0121979689             0.00243746696           
       0.761750             0.00797121785             0.00174228012           
       0.764390             0.00870449286             0.00190560482           
       0.767031              0.0078286176             0.00156495844           
       0.769671             0.00930283384             0.00212805349           
       0.772312              0.0078842595             0.00149144318           
       0.774952             0.00720660766             0.00192553499           
       0.777592              0.0106240181             0.00170289381           
       0.780233             0.00476921485              0.0013765449           
       0.782873             0.00616657003             0.00149703309           
       0.785513             0.00785822171             0.00180665606           
       0.788154             0.00492786563             0.00119681395           
       0.790794             0.00454249986             0.00137373736           
       0.793435             0.00437271254             0.00121082653           
       0.796075             0.00838469437             0.00161516259           
       0.798715             0.00648577098             0.00167867328           
       0.801356             0.00766597578             0.00157074255           
       0.803996             0.00602278394             0.00141942564           
       0.806637             0.00631545841             0.00115672111           
       0.809277             0.00720637085             0.00133741399           
       0.811917             0.00498354533             0.00103971524           
       0.814558             0.00863065514             0.00142205681           
       0.817198             0.00677888832              0.0011973451           
       0.819838             0.00650240589             0.00118683229           
       0.822479             0.00897313111             0.00163716865           
       0.825119             0.00559038714             0.00109985663           
       0.827760             0.00686540081             0.00123464164           
       0.830400             0.00897620188              0.0013287078           
       0.833040              0.0100986246              0.0014765493           
       0.835681             0.00446885394             0.00111663184           
       0.838321             0.00747363177             0.00121202476           
       0.840961             0.00861143673             0.00141752081           
       0.843602             0.00702648693              0.0011742199           
       0.846242             0.00760339087              0.0012212911           
       0.848883             0.00801092152             0.00128287265           
       0.851523             0.00821708144             0.00128313566           
       0.854163             0.00789974482             0.00133794877           
       0.856804             0.00751146436             0.00117306262           
       0.859444             0.00613097301             0.00103839846           
       0.862085             0.00533871699             0.00100992661           
       0.864725             0.00781515452             0.00125050146           
       0.867365             0.00619295477             0.00103223901           
       0.870006             0.00652533562             0.00100969598           
       0.872646             0.00531860613            0.000955903094           
       0.875286             0.00538670893            0.000925507014           
       0.877927             0.00651121898            0.000981873278           
       0.880567             0.00651700642             0.00101769265           
       0.883208             0.00855832974             0.00115525068           
       0.885848             0.00722518284             0.00110212126           
       0.888488             0.00737403507             0.00104431573           
       0.891129             0.00746486041             0.00107887778           
       0.893769             0.00643139293            0.000958379832           
       0.896410             0.00778130022            0.000982857134           
       0.899050              0.0084061081             0.00112343287           
       0.901690              0.0105275763             0.00136948597           
       0.904331             0.00658100709            0.000959942629           
       0.906971             0.00743306062              0.0010853188           
       0.909611              0.0073172996            0.000980263928           
       0.912252             0.00714106756             0.00100024258           
       0.914892             0.00583114527            0.000987725241           
       0.917533             0.00742515022             0.00105439006           
       0.920173             0.00747084916            0.000981272486           
       0.922813             0.00707713654             0.00100223427           
       0.925454              0.0095434959             0.00104800809           
       0.928094             0.00850173505             0.00105600715           
       0.930734             0.00483532726            0.000857402332           
       0.933375             0.00609896814            0.000953475183           
       0.936015             0.00760722141            0.000967124471           
       0.938656             0.00624271118            0.000939853231           
       0.941296             0.00802707627            0.000965855786           
       0.943936             0.00645496495            0.000849369738           
       0.946577             0.00638502994            0.000839171226           
       0.949217             0.00764004455            0.000844134457           
       0.951858             0.00858224581            0.000936543699           
       0.954498             0.00781293686             0.00103430614           
       0.957138             0.00577085563            0.000842128821           
       0.959779              0.0095391694             0.00106733336           
       0.962419              0.0080033601            0.000971141575           
       0.965059             0.00780703853              0.0010087818           
       0.967700             0.00681825721            0.000965550245           
       0.970340             0.00781258832            0.000914598237           
       0.972981             0.00753002695             0.00081807905           
       0.975621             0.00685163433            0.000830166843           
       0.978261             0.00697800268            0.000796045426           
       0.980902             0.00582220609            0.000869982805           
       0.983542             0.00938163768            0.000977972713           
       0.986182             0.00758680265             0.00086344984           
       0.988823             0.00834575966             0.00087934776           
       0.991463             0.00779717048            0.000906813945           
       0.994104              0.0076281298            0.000874969353           
       0.996744             0.00742371655            0.000880422762           
       0.999384             0.00751833596            0.000792394459           
       1.002025             0.00644491979            0.000818851083           
       1.004665             0.00808585747            0.000838197983           
       1.007306             0.00755198782            0.000805908142           
       1.009946             0.00680278871             0.00078007973           
       1.012586               0.008135788            0.000830860304           
       1.015227             0.00890552611            0.000933875211           
       1.017867             0.00961479154            0.000932574706           
       1.020507             0.00714844079            0.000778896797           
       1.023148             0.00790479376            0.000883795889           
       1.025788             0.00786632833            0.000808397065           
       1.028429             0.00847244106            0.000878952052           
       1.031069             0.00849617701            0.000828285476           
       1.033709             0.00837225457            0.000874024796           
       1.036350             0.00728008939            0.000732003815           
       1.038990             0.00816972845            0.000789690873           
       1.041630             0.00772520599            0.000800934237           
       1.044271             0.00843067295            0.000786891715           
       1.046911             0.00919370677             0.00086435283           
       1.049552             0.00898352874             0.00089767209           
       1.052192             0.00739778315            0.000743834147           
       1.054832             0.00669325183            0.000713964712           
       1.057473             0.00881960179            0.000807916663           
       1.060113             0.00759579975            0.000731230927           
       1.062754             0.00858313913            0.000793613627           
       1.065394             0.00942309993            0.000879152315           
       1.068034             0.00775138718            0.000725492434           
       1.070675             0.00894925478            0.000813152631           
       1.073315             0.00965376553            0.000856658751           
       1.075955             0.00785821084            0.000729658448           
       1.078596             0.00855658747            0.000809208205           
       1.081236             0.00741592731            0.000721375014           
       1.083877             0.00819863497            0.000751684619           
       1.086517             0.00821345219            0.000806753918           
       1.089157             0.00939103358            0.000895096609           
       1.091798             0.00777558515            0.000714066941           
       1.094438              0.0104859457            0.000826555857           
       1.097078             0.00838613976            0.000708949952           
       1.099719              0.0105123306             0.00085856257           
       1.102359             0.00934639487            0.000758154708           
       1.105000             0.00791721976            0.000780260502           
       1.107640             0.00780387101            0.000740696123           
       1.110280             0.00836319203            0.000699628732           
       1.112921             0.00918479091            0.000787604062           
       1.115561             0.00702863834            0.000654821263           
       1.118202              0.0092415858            0.000751570031           
       1.120842             0.00837621559            0.000752013296           
       1.123482             0.00884164215            0.000769249237           
       1.126123               0.010575652             0.00080695378           
       1.128763             0.00829871155            0.000719727203           
       1.131403             0.00873702057            0.000711597781           
       1.134044             0.00853069455            0.000723538266           
       1.136684             0.00803288314            0.000748570787           
       1.139325             0.00774063035            0.000676922131           
       1.141965             0.00928317063             0.00074620875           
       1.144605             0.00866828981            0.000687544681           
       1.147246              0.0087323358            0.000706237169           
       1.149886             0.00788561275            0.000668742023           
       1.152527              0.0075167114            0.000662406921           
       1.155167             0.00912903787            0.000694342093           
       1.157807              0.0101343007            0.000784376986           
       1.160448             0.00916096866            0.000728252998           
       1.163088             0.00842026102            0.000665971646           
       1.165728             0.00966572264            0.000732591178           
       1.168369             0.00819166886            0.000680651116           
       1.171009             0.00872361192            0.000681663337           
       1.173650             0.00891474836            0.000707171235           
       1.176290             0.00995017596            0.000730095535           
       1.178930             0.00930827342            0.000692094342           
       1.181571             0.00892405639            0.000691098296           
       1.184211             0.00800845399            0.000657007176           
       1.186851             0.00864692328            0.000667460834           
       1.189492              0.0082476189            0.000647481971           
       1.192132              0.0105812893            0.000725157506           
       1.194773             0.00866724134            0.000659169204           
       1.197413             0.00897717461            0.000642770576           
       1.200053             0.00920138826            0.000667282495           
       1.202694              0.0106893537            0.000683932374           
       1.205334             0.00924013146            0.000685281743           
       1.207975             0.00956148957            0.000665398212           
       1.210615             0.00821873408            0.000680555774           
       1.213255              0.0101596223            0.000677570463           
       1.215896             0.00965430224            0.000672472716           
       1.218536             0.00907487916            0.000626907214           
       1.221176             0.00977672046            0.000707442179           
       1.223817              0.0106430199            0.000692885473           
       1.226457             0.00941790082            0.000664918668           
       1.229098              0.0106533356            0.000707152556           
       1.231738              0.0104217014            0.000702864844           
       1.234378              0.0100635659            0.000649000022           
       1.237019              0.0106620383            0.000688387366           
       1.239659             0.00933216237            0.000638416638           
       1.242299              0.0103339702            0.000663274857           
       1.244940             0.00928742857            0.000611540584           
       1.247580              0.0102608971            0.000662449325           
       1.250221               0.009816237            0.000643938599           
       1.252861              0.0105326093            0.000635007813           
       1.255501              0.0108664805            0.000700339975           
       1.258142              0.0103557383            0.000642443162           
       1.260782             0.00930501235            0.000622156118           
       1.263423              0.0100669507            0.000621816355           
       1.266063              0.0107698001            0.000659217476           
       1.268703              0.0112117201            0.000667025103           
       1.271344              0.0099540816            0.000649802373           
       1.273984             0.00991912118            0.000626477851           
       1.276624             0.00920413759            0.000592139692           
       1.279265               0.010970111            0.000657190147           
       1.281905             0.00943841905            0.000612291684           
       1.284546              0.0100519252            0.000610767561           
       1.287186              0.0105286181            0.000613271815           
       1.289826              0.0111520359            0.000665198514           
       1.292467              0.0111247518            0.000649750683           
       1.295107              0.0107690515            0.000632928467           
       1.297747              0.0111772276            0.000617031297           
       1.300388              0.0112432757             0.00067462646           
       1.303028               0.010328493            0.000617282771           
       1.305669              0.0107115636            0.000643593823           
       1.308309              0.0111434201            0.000649975078           
       1.310949              0.0110981785             0.00064800243           
       1.313590              0.0112086474            0.000630863095           
       1.316230              0.0115491516            0.000683367773           
       1.318871              0.0101381891            0.000627060788           
       1.321511              0.0110584953            0.000642764916           
       1.324151              0.0105417823            0.000608963445           
       1.326792              0.0100686658            0.000598820806           
       1.329432              0.0105834446            0.000609605453           
       1.332072              0.0106094287            0.000601257203           
       1.334713              0.0122049889            0.000665586411           
       1.337353             0.00979436412            0.000571809695           
       1.339994              0.0115177327            0.000650710939           
       1.342634              0.0108782597            0.000606421353           
       1.345274              0.0104482172            0.000615059011           
       1.347915              0.0115186206            0.000627963257           
       1.350555              0.0102365628            0.000602353447           
       1.353195              0.0103872689            0.000609751424           
       1.355836               0.011193817            0.000623111662           
       1.358476               0.012847959              0.0006483074           
       1.361117              0.0103898797            0.000583801061           
       1.363757              0.0103338981            0.000600004163           
       1.366397              0.0114966558            0.000613709305           
       1.369038              0.0105594104            0.000594018212           
       1.371678              0.0105552428            0.000588665112           
       1.374319              0.0110637869            0.000597489452           
       1.376959               0.012621946            0.000631759662           
       1.379599              0.0107714379            0.000625457291           
       1.382240              0.0124869102            0.000632917067           
       1.384880              0.0113995589            0.000640549163           
       1.387520              0.0114697976            0.000610220608           
       1.390161              0.0104678596            0.000553670914           
       1.392801              0.0102848246            0.000571805763           
       1.395442              0.0113426996            0.000608694847           
       1.398082              0.0119396296            0.000584822956           
       1.400722              0.0115629839            0.000602848878           
       1.403363               0.011040474            0.000620068389           
       1.406003              0.0115516403            0.000593582493           
       1.408644             0.00878154292            0.000542157735           
       1.411284              0.0114941476            0.000587337753           
       1.413924              0.0119942259            0.000597754163           
       1.416565               0.011607936            0.000585739727           
       1.419205              0.0102437296            0.000573993506           
       1.421845              0.0113907767            0.000604922182           
       1.424486              0.0106819944            0.000563087996           
       1.427126             0.00997852863            0.000565350858           
       1.429767              0.0106764944            0.000550215295           
       1.432407              0.0112979811            0.000592335375           
       1.435047              0.0118412815            0.000569519962           
       1.437688              0.0115841069            0.000571723805           
       1.440328              0.0113701728            0.000578095124           
       1.442968              0.0102819717            0.000562052885           
       1.445609              0.0110114375            0.000563197537           
       1.448249              0.0108993238            0.000574510088           
       1.450890              0.0113508299            0.000582462239           
       1.453530              0.0103910204            0.000583039867           
       1.456170              0.0111972184            0.000587395027           
       1.458811              0.0121166796            0.000584285892           
       1.461451               0.011377735            0.000567674341           
       1.464092               0.010689575            0.000553836627           
       1.466732              0.0104154225            0.000541990621           
       1.469372              0.0107191891            0.000536969535           
       1.472013              0.0101669106            0.000564015943           
       1.474653              0.0114725419            0.000589895316           
       1.477293              0.0107140024            0.000582075531           
       1.479934              0.0123834419            0.000597128257           
       1.482574              0.0105762889            0.000533819491           
       1.485215              0.0113711086            0.000563824062           
       1.487855              0.0112221549            0.000567507929           
       1.490495              0.0102162634            0.000539482578           
       1.493136              0.0115446263            0.000565623344           
       1.495776              0.0105974182            0.000539455245           
       1.498416              0.0110084026            0.000567804628           
       1.501057              0.0109781953            0.000554528668           
       1.503697              0.0101203477            0.000520527729           
       1.506338              0.0112010042            0.000557620942           
       1.508978              0.0109658969            0.000546311765           
       1.511618             0.00962138935             0.00054498555           
       1.514259              0.0093220591            0.000517908722           
       1.516899              0.0104850211            0.000534802065           
       1.519540              0.0106191081            0.000546889893           
       1.522180              0.0109390068            0.000559942226           
       1.524820              0.0102131909            0.000538011478           
       1.527461              0.0104430812            0.000546723485           
       1.530101              0.0114823606            0.000567549463           
       1.532741              0.0105609818            0.000541143638           
       1.535382             0.00981989811            0.000530212337           
       1.538022              0.0117946027            0.000547410727           
       1.540663              0.0112222092            0.000574309732           
       1.543303              0.0100533334            0.000504721236           
       1.545943              0.0107436851            0.000552247473           
       1.548584              0.0102372337            0.000548750743           
       1.551224              0.0100097068            0.000501701963           
       1.553864              0.0106583655            0.000547049635           
       1.556505              0.0104695251            0.000523761638           
       1.559145             0.00937397465            0.000501671958           
       1.561786             0.00945295137            0.000504168834           
       1.564426              0.0107783336            0.000521609149           
       1.567066             0.00939918093            0.000510382886           
       1.569707             0.00965767258            0.000508060142           
       1.572347              0.0102628389            0.000541071915           
       1.574988             0.00952875472            0.000496249138           
       1.577628              0.0102764263            0.000537383557           
       1.580268             0.00957806246            0.000502664474           
       1.582909              0.0107263669            0.000563839188           
       1.585549             0.00974469463            0.000521816711           
       1.588189             0.00928973187            0.000498369948           
       1.590830             0.00966453244            0.000507686075           
       1.593470             0.00911762788            0.000512637427           
       1.596111              0.0097725948            0.000518158174           
       1.598751             0.00896989245            0.000481016286           
       1.601391             0.00972059364            0.000511788025           
       1.604032             0.00962997388            0.000520045906           
       1.606672             0.00933022861            0.000497348156           
       1.609312             0.00974658661            0.000530630841           
       1.611953             0.00898465443            0.000498546188           
       1.614593             0.00992952422             0.00051410624           
       1.617234             0.00838206248            0.000489532759           
       1.619874             0.00890166858            0.000502484942           
       1.622514             0.00950919203            0.000512264138           
       1.625155             0.00912454407            0.000504760981           
       1.627795             0.00938593432            0.000499396415           
       1.630436             0.00890826844            0.000483982467           
       1.633076             0.00925294973            0.000499726062           
       1.635716             0.00910824752            0.000488088908           
       1.638357             0.00872826799            0.000479058763           
       1.640997             0.00822494658            0.000479128093           
       1.643637             0.00948735561            0.000500749851           
       1.646278             0.00894457533            0.000501491633           
       1.648918             0.00881729666             0.00049926908           
       1.651559             0.00944691052            0.000520798349           
       1.654199             0.00919260246            0.000499657916           
       1.656839             0.00855036228            0.000482055855           
       1.659480             0.00962035289            0.000530530581           
       1.662120             0.00840983643            0.000467179354           
       1.664761             0.00903895032            0.000503102541           
       1.667401             0.00930560236            0.000487899495           
       1.670041             0.00991507106            0.000511302682           
       1.672682             0.00952012964            0.000498956729           
       1.675322             0.00838880343            0.000465360718           
       1.677962             0.00917271317            0.000481250477           
       1.680603             0.00881652796            0.000473266148           
       1.683243             0.00870889808             0.00049074183           
       1.685884             0.00823442977            0.000480710451           
       1.688524             0.00980689687            0.000514464524           
       1.691164             0.00939959078             0.00050378202           
       1.693805             0.00886361322            0.000494582187           
       1.696445             0.00932420052            0.000510212172           
       1.699085             0.00861565609            0.000474009888           
       1.701726             0.00875426033            0.000460284107           
       1.704366             0.00902973825            0.000492466927           
       1.707007             0.00842076748            0.000464969969           
       1.709647              0.0088250903            0.000481377384           
       1.712287             0.00846588161              0.0004755827           
       1.714928             0.00855133451            0.000481830624           
       1.717568             0.00920520247            0.000470919698           
       1.720209             0.00928027593            0.000495263021           
       1.722849             0.00809373394            0.000460141504           
       1.725489              0.0105672206            0.000526213338           
       1.728130             0.00938890326            0.000527117773           
       1.730770             0.00850928827            0.000476592904           
       1.733410             0.00830040732            0.000463307941           
       1.736051             0.00830931154            0.000466782943           
       1.738691             0.00774576665            0.000441540448           
       1.741332             0.00868975838             0.00048134789           
       1.743972             0.00884774612             0.00050157171           
       1.746612             0.00893776864            0.000484080745           
       1.749253             0.00856180116            0.000483146513           
       1.751893             0.00872796106            0.000484231597           
       1.754533              0.0077678521             0.00045639558           
       1.757174             0.00884103652             0.00048234351           
       1.759814             0.00834916557            0.000461628825           
       1.762455             0.00914612929            0.000492030794           
       1.765095             0.00900865624            0.000467136495           
       1.767735             0.00859581207            0.000470384188           
       1.770376             0.00918264497            0.000487457288           
       1.773016             0.00872293449            0.000471916507           
       1.775657              0.0081291299            0.000449015773           
       1.778297             0.00860554855            0.000458007931           
       1.780937             0.00979006294            0.000515625692           
       1.783578              0.0084863947            0.000468064979           
       1.786218              0.0094231237            0.000514730575           
       1.788858             0.00839427443            0.000461410408           
       1.791499             0.00921601939            0.000478037943           
       1.794139             0.00877644434            0.000462713423           
       1.796780              0.0091996917            0.000471455468           
       1.799420             0.00889942234            0.000461129864           
       1.802060             0.00954589837             0.00048144267           
       1.804701             0.00968024222            0.000465254005           
       1.807341              0.0093484724            0.000480430047           
       1.809981             0.00929959345            0.000480770005           
       1.812622              0.0086262814            0.000454702401           
       1.815262             0.00923446541            0.000480452119           
       1.817903             0.00978757859            0.000487302714           
       1.820543             0.00867721158            0.000465979055           
       1.823183             0.00859440076            0.000463495247           
       1.825824              0.0092728034            0.000459949164           
       1.828464             0.00889746927            0.000469711972           
       1.831105             0.00797814109            0.000432486753           
       1.833745             0.00879963705             0.00046390803           
       1.836385             0.00868856628            0.000474126357           
       1.839026             0.00917759856            0.000485747154           
       1.841666              0.0076207181            0.000441063348           
       1.844306             0.00956390384            0.000480624623           
       1.846947             0.00751332455            0.000429729149           
       1.849587              0.0086242549            0.000508398145           
       1.852228             0.00925722717            0.000476289592           
       1.854868             0.00926537317            0.000503350831           
       1.857508             0.00804490622             0.00046442895           
       1.860149               0.009184281            0.000505243877           
       1.862789              0.0084121554            0.000466727619           
       1.865429             0.00918836092            0.000509173424           
       1.868070             0.00804360433             0.00047005075           
       1.870710             0.00829406558            0.000466308609           
       1.873351             0.00745343959            0.000447511319           
       1.875991             0.00846604294            0.000484726152           
       1.878631             0.00804005486            0.000463326715           
       1.881272             0.00863430766            0.000476926999           
       1.883912             0.00815145228            0.000482264191           
       1.886553             0.00814702134            0.000476742844           
       1.889193             0.00839839224            0.000483214697           
       1.891833             0.00853844858            0.000506004467           
       1.894474             0.00803872122             0.00048669795           
       1.897114             0.00824767798            0.000477049291           
       1.899754             0.00848679934            0.000485940063           
       1.902395             0.00838754011            0.000473645007           
       1.905035             0.00799822368            0.000489888359           
       1.907676             0.00836080618            0.000472070803           
       1.910316             0.00825517385            0.000481534052           
       1.912956             0.00781949577            0.000458344546           
       1.915597             0.00745575476            0.000450058486           
       1.918237             0.00895650924            0.000509437078           
       1.920878             0.00771742869            0.000470951275           
       1.923518             0.00869039957            0.000499969794           
       1.926158             0.00847560544            0.000487345276           
       1.928799             0.00771370658             0.00045954342           
       1.931439             0.00890216943            0.000506625676           
       1.934079             0.00820158829            0.000506937087           
       1.936720              0.0086089983            0.000481216416           
       1.939360             0.00914502535            0.000529132257           
       1.942001             0.00905978661            0.000482711352           
       1.944641             0.00831861538            0.000471656164           
       1.947281             0.00866208027            0.000476858383           
       1.949922             0.00850101088            0.000487951591           
       1.952562             0.00723781851            0.000464354358           
       1.955202             0.00681894755            0.000450168024           
       1.957843              0.0077778215            0.000468310439           
       1.960483             0.00824086639            0.000503981702           
       1.963124              0.0069487375            0.000453292869           
       1.965764             0.00721987334            0.000435727848           
       1.968404             0.00799977317            0.000454324831           
       1.971045             0.00839168744            0.000474418828           
       1.973685             0.00861726764            0.000504274071           
       1.976326             0.00808748149            0.000481812735           
       1.978966             0.00759668106            0.000471062192           
       1.981606             0.00769619546            0.000484025987           
       1.984247             0.00821206269            0.000496697599           
       1.986887             0.00785894833            0.000480080866           
       1.989527             0.00800114337            0.000479187803           
       1.992168             0.00824539909            0.000504730037           
       1.994808             0.00836038863            0.000506058709           
       1.997449              0.0083074804            0.000494095135           
       2.000089             0.00723133199            0.000459155518           
       2.002729             0.00653059676            0.000436603674           
       2.005370             0.00756114095            0.000464736114           
       2.008010             0.00774211479            0.000490788825           
       2.010650             0.00713473007            0.000474659567           
       2.013291             0.00734739181            0.000462146843           
       2.015931               0.007813461            0.000473210346           
       2.018572             0.00831689079            0.000522194381           
       2.021212             0.00720133243            0.000477182302           
       2.023852             0.00732530085            0.000455501315           
       2.026493             0.00766277321            0.000486689864           
       2.029133             0.00809805505             0.00049025359           
       2.031774             0.00816793255            0.000516725315           
       2.034414              0.0072229388            0.000447109641           
       2.037054             0.00779139429            0.000476140806           
       2.039695             0.00857236889            0.000495662145           
       2.042335             0.00766095276            0.000486949607           
       2.044975             0.00799542681            0.000491433155           
       2.047616             0.00803230105            0.000491341513           
       2.050256             0.00753570153             0.00048041434           
       2.052897             0.00812949905            0.000508182345           
       2.055537             0.00720727055            0.000462442636           
       2.058177             0.00779030713            0.000470816897           
       2.060818             0.00742341454            0.000481462814           
       2.063458             0.00772189294            0.000511719421           
       2.066098             0.00755653984             0.00047752646           
       2.068739             0.00751788729            0.000483707251           
       2.071379              0.0073016571            0.000489132779           
       2.074020             0.00773623925            0.000492536588           
       2.076660             0.00715525868            0.000477510496           
       2.079300             0.00814228126            0.000521862532           
       2.081941             0.00849593724            0.000488091338           
       2.084581             0.00777443456            0.000492824299           
       2.087222             0.00790174295            0.000479157565           
       2.089862             0.00756761867            0.000510722802           
       2.092502             0.00771317489            0.000499811306           
       2.095143             0.00818951864            0.000531828541           
       2.097783              0.0077686389            0.000501494053           
       2.100423              0.0076064258            0.000478163964           
       2.103064             0.00772432755            0.000499989889           
       2.105704             0.00746283965            0.000489019771           
       2.108345             0.00795310233             0.00048500384           
       2.110985             0.00854338294             0.00053689889           
       2.113625             0.00804128294             0.00052542853           
       2.116266              0.0078122928            0.000525240915           
       2.118906             0.00720755354            0.000470167966           
       2.121546             0.00759775548            0.000473510434           
       2.124187              0.0079859822             0.00050958027           
       2.126827             0.00804052494             0.00051702416           
       2.129468             0.00752387459            0.000501415009           
       2.132108             0.00715925117            0.000475870987           
       2.134748             0.00695498021             0.00046721323           
       2.137389             0.00731970854            0.000500036609           
       2.140029             0.00729360046             0.00044686421           
       2.142670             0.00810852338            0.000503547032           
       2.145310             0.00776571844            0.000479639224           
       2.147950             0.00775869336             0.00049345612           
       2.150591              0.0079449801            0.000494298527           
       2.153231             0.00756618144            0.000496526058           
       2.155871             0.00839849089            0.000505372169           
       2.158512             0.00774003072            0.000506226617           
       2.161152             0.00786222658            0.000494218331           
       2.163793             0.00828140476            0.000504938533           
       2.166433             0.00753638502             0.00049464536           
       2.169073             0.00751530621            0.000482956054           
       2.171714             0.00678469747            0.000455450061           
       2.174354             0.00814774322            0.000521521344           
       2.176995             0.00745018204            0.000496598726           
       2.179635             0.00692144848            0.000505799739           
       2.182275             0.00676765553            0.000472219826           
       2.184916             0.00738879276            0.000476574243           
       2.187556             0.00674215437            0.000450680057           
       2.190196             0.00780039923            0.000506568409           
       2.192837             0.00689839995            0.000473788487           
       2.195477             0.00620733457             0.00042847895           
       2.198118             0.00731432808            0.000477037051           
       2.200758             0.00669295778              0.0004681614           
       2.203398             0.00749092329            0.000498452434           
       2.206039             0.00700455338            0.000456171388           
       2.208679             0.00752159734            0.000483709124           
       2.211319             0.00751300138            0.000486220113           
       2.213960             0.00797862712            0.000507773994           
       2.216600             0.00741747479            0.000506472118           
       2.219241             0.00766228378            0.000491973533           
       2.221881             0.00700554897            0.000471384968           
       2.224521              0.0064944249            0.000459424792           
       2.227162             0.00684262007            0.000462137776           
       2.229802             0.00733456016            0.000493439583           
       2.232443             0.00729912606            0.000484482055           
       2.235083             0.00657861053            0.000473515881           
       2.237723             0.00693522519            0.000466561001           
       2.240364             0.00746003522            0.000495813208           
       2.243004             0.00710650297            0.000480059373           
       2.245644             0.00672599702            0.000471705291           
       2.248285             0.00738762051            0.000484458043           
       2.250925              0.0067862023            0.000467140442           
       2.253566             0.00794222667            0.000540273927           
       2.256206             0.00677914908             0.00048916877           
       2.258846             0.00716386076            0.000478356324           
       2.261487             0.00715236803            0.000501676441           
       2.264127             0.00788227737            0.000508633219           
       2.266767               0.007579042            0.000512041735           
       2.269408             0.00677746788            0.000486190818           
       2.272048             0.00761364952            0.000512235099           
       2.274689             0.00771038642            0.000522271105           
       2.277329             0.00663662899            0.000456227802           
       2.279969              0.0080817691             0.00053589968           
       2.282610             0.00654285195             0.00046877426           
       2.285250             0.00802851608            0.000497017239           
       2.287891             0.00708811998            0.000500697349           
       2.290531             0.00771657128            0.000529445354           
       2.293171             0.00794210049            0.000523209859           
       2.295812              0.0075978424             0.00050968768           
       2.298452             0.00684072915            0.000505744917           
       2.301092              0.0072054954            0.000482264622           
       2.303733             0.00803646984            0.000529865122           
       2.306373             0.00693067706            0.000499812021           
       2.309014             0.00710509163            0.000496189849           
       2.311654             0.00675301845             0.00050480565           
       2.314294             0.00678831543            0.000466293172           
       2.316935             0.00686354994            0.000470807102           
       2.319575             0.00724852507            0.000506942599           
       2.322215             0.00727346795            0.000529227988           
       2.324856             0.00776545442            0.000502757112           
       2.327496             0.00653667603            0.000490472661           
       2.330137             0.00717209573            0.000491628838           
       2.332777             0.00745165155            0.000516706772           
       2.335417             0.00728911726            0.000495785733           
       2.338058             0.00708825195            0.000503511576           
       2.340698             0.00689933523            0.000492852729           
       2.343339             0.00636586836            0.000483833335           
       2.345979             0.00820467559            0.000519667212           
       2.348619             0.00682492086             0.00049128689           
       2.351260             0.00649328411            0.000476409993           
       2.353900             0.00682009577            0.000486705168           
       2.356540             0.00717326946              0.0004984394           
       2.359181             0.00743652399            0.000500388258           
       2.361821             0.00748024363            0.000484780492           
       2.364462             0.00692700372            0.000487909985           
       2.367102             0.00616456222            0.000473006982           
       2.369742             0.00765353795            0.000554751077           
       2.372383             0.00814984882            0.000518357137           
       2.375023             0.00715560865            0.000510587108           
       2.377663              0.0073581786            0.000495058257           
       2.380304             0.00781645879             0.00051874963           
       2.382944             0.00721417385            0.000474675299           
       2.385585             0.00589866375            0.000457770739           
       2.388225             0.00673336397            0.000486790074           
       2.390865             0.00778750501            0.000518132213           
       2.393506             0.00742921238            0.000496524933           
       2.396146             0.00721323026            0.000529003729           
       2.398787             0.00762438948            0.000501219875           
       2.401427             0.00668839075             0.00045312458           
       2.404067             0.00745473485            0.000489050426           
       2.406708             0.00731457035            0.000478621911           
       2.409348             0.00714689159            0.000501819507           
       2.411988             0.00777315752            0.000512761853           
       2.414629             0.00665207434            0.000489119269           
       2.417269             0.00695720056            0.000506051389           
       2.419910             0.00676804405            0.000500282764           
       2.422550             0.00745583296            0.000502371757           
       2.425190             0.00647011805            0.000493306536           
       2.427831             0.00744251564            0.000526105009           
       2.430471             0.00675516334             0.00047751117           
       2.433112             0.00753102451            0.000490959081           
       2.435752             0.00687890438            0.000496582842           
       2.438392             0.00656876994            0.000468374635           
       2.441033             0.00674940742            0.000503161806           
       2.443673             0.00770205635            0.000537912875           
       2.446313             0.00681097044            0.000506285905           
       2.448954             0.00705590367            0.000490646126           
       2.451594             0.00713176599            0.000530387709           
       2.454235             0.00694486536            0.000491075038           
       2.456875             0.00759301832            0.000537283668           
       2.459515             0.00756938101            0.000550333905           
       2.462156             0.00741852376            0.000514388078           
       2.464796              0.0075410708            0.000511928234           
       2.467436             0.00878011903            0.000571232148           
       2.470077             0.00774173856            0.000508401553           
       2.472717             0.00713697318            0.000490254805           
       2.475358             0.00817693942            0.000530231088           
       2.477998             0.00828198569            0.000524629892           
       2.480638             0.00712246566            0.000495165326           
       2.483279             0.00695570573            0.000511432332           
       2.485919             0.00718951566            0.000501097412           
       2.488560             0.00850992612            0.000543650827           
       2.491200              0.0073212497            0.000519248854           
       2.493840             0.00708460982            0.000540480868           
       2.496481             0.00704528263            0.000530162142           
       2.499121             0.00728049103            0.000524204522           
       2.501761             0.00793583643            0.000554540386           
       2.504402             0.00684089251            0.000507342664           
       2.507042             0.00722100485            0.000517385941           
       2.509683             0.00719274455            0.000508480542           
       2.512323             0.00685253889              0.0005212485           
       2.514963             0.00636895042            0.000496311229           
       2.517604              0.0074859683            0.000558337292           
       2.520244             0.00808494983            0.000543980625           
       2.522884             0.00699895471            0.000513367285           
       2.525525             0.00831361276            0.000565858777           
       2.528165              0.0088418774            0.000574463501           
       2.530806             0.00764818941            0.000543593373           
       2.533446              0.0191753775            0.000842358015           
       2.536086             0.00683395866            0.000498375087           
       2.538727             0.00659070136            0.000469528697           
       2.541367             0.00729162755            0.000498730165           
       2.544008             0.00697925338               0.000503913           
       2.546648             0.00681183999            0.000506371728           
       2.549288             0.00822258623            0.000567677412           
       2.551929             0.00701416126            0.000515949004           
       2.554569             0.00768116114            0.000520171236           
       2.557209             0.00699209358            0.000500848954           
       2.559850             0.00717356413            0.000508935827           
       2.562490             0.00666606732            0.000507064753           
       2.565131             0.00676555418            0.000529656264           
       2.567771             0.00640029771             0.00049669202           
       2.570411             0.00796427701            0.000548069531           
       2.573052             0.00683923011            0.000514281935           
       2.575692             0.00749150484            0.000534988356           
       2.578332             0.00677960449            0.000511039175           
       2.580973             0.00749447093            0.000532194706           
       2.583613             0.00771302293            0.000527043315           
       2.586254             0.00653631904            0.000484503181           
       2.588894             0.00693444293            0.000518229749           
       2.591534             0.00702015183            0.000539770176           
       2.594175             0.00718722906            0.000535849326           
       2.596815             0.00797679521             0.00056784441           
       2.599456              0.0074996157            0.000522129537           
       2.602096             0.00656417836            0.000492199934           
       2.604736             0.00661129635            0.000505676243           
       2.607377             0.00715090888            0.000512048704           
       2.610017             0.00665051284            0.000485166644           
       2.612657             0.00681129253            0.000522248497           
       2.615298             0.00640706107            0.000494517475           
       2.617938             0.00672661678            0.000542039071           
       2.620579             0.00788660082            0.000563435013           
       2.623219             0.00693829746            0.000527722781           
       2.625859             0.00701901733            0.000516070595           
       2.628500             0.00707410936            0.000514696058           
       2.631140             0.00709855407            0.000523528842           
       2.633780             0.00743829106            0.000535444602           
       2.636421             0.00694989514            0.000530295583           
       2.639061             0.00712811352            0.000505572554           
       2.641702             0.00780075467            0.000541133058           
       2.644342             0.00772876052            0.000540925265           
       2.646982              0.0066875185            0.000495647839           
       2.649623             0.00778630004            0.000560468139           
       2.652263             0.00643885124            0.000504556046           
       2.654904             0.00577467679            0.000478305918           
       2.657544             0.00702591483            0.000496931392           
       2.660184             0.00779846185            0.000554057265           
       2.662825             0.00637958889            0.000512751555           
       2.665465             0.00694429427            0.000517398469           
       2.668105             0.00638772097            0.000523046688           
       2.670746             0.00722889806            0.000514014377           
       2.673386              0.0104318167             0.00063635721           
       2.676027              0.0112280535            0.000649600839           
       2.678667             0.00756945819            0.000520433573           
       2.681307             0.00797665594            0.000524929569           
       2.683948             0.00940442517            0.000585624144           
       2.686588             0.00880226161            0.000557169622           
       2.689229             0.00891788968            0.000548007398           
       2.691869             0.00853069248            0.000566476172           
       2.694509             0.00798283227            0.000548285271           
       2.697150             0.00739345508            0.000519096402           
       2.699790             0.00868111298            0.000589686153           
       2.702430             0.00695880733            0.000504665843           
       2.705071             0.00705645965            0.000525123078           
       2.707711             0.00704096903            0.000509111567           
       2.710352             0.00657831261            0.000519966003           
       2.712992             0.00737233649            0.000560630923           
       2.715632             0.00836222656              0.0005539755           
       2.718273             0.00649737356            0.000506070967           
       2.720913             0.00762674796            0.000546732299           
       2.723553             0.00739821571            0.000542091629           
       2.726194             0.00546033984            0.000486824357           
       2.728834             0.00716056438            0.000557750283           
       2.731475             0.00850199727            0.000560902136           
       2.734115             0.00702329747            0.000525618611           
       2.736755             0.00748537153            0.000547100163           
       2.739396             0.00726067469             0.00053570426           
       2.742036             0.00693339093            0.000547866866           
       2.744677             0.00701404632            0.000534664865           
       2.747317             0.00604793046            0.000492938561           
       2.749957             0.00739516269            0.000548909092           
       2.752598             0.00731884132            0.000551995498           
       2.755238             0.00753197749            0.000570084126           
       2.757878             0.00750483183            0.000564080498           
       2.760519             0.00624652688            0.000509167174           
       2.763159             0.00588623045            0.000489325536           
       2.765800             0.00768314307            0.000532763547           
       2.768440             0.00824637695            0.000556012179           
       2.771080             0.00760577235            0.000538436421           
       2.773721             0.00616710382            0.000497352711           
       2.776361             0.00655458589            0.000519812906           
       2.779001             0.00528462698             0.00048336388           
       2.781642             0.00758269367            0.000574733341           
       2.784282             0.00704805115            0.000563212898           
       2.786923             0.00783033345            0.000598873824           
       2.789563             0.00815395011            0.000588584039           
       2.792203             0.00793262946            0.000554582617           
       2.794844             0.00776614374            0.000601401439           
       2.797484             0.00670020665            0.000527188084           
       2.800125             0.00724849242            0.000576573601           
       2.802765              0.0071251171            0.000561811424           
       2.805405             0.00658604725            0.000541968968           
       2.808046             0.00649728165            0.000547767429           
       2.810686             0.00638082308            0.000498803236           
       2.813326             0.00660415624            0.000527108176           
       2.815967             0.00782916024            0.000590234552           
       2.818607             0.00656669903            0.000515838495           
       2.821248             0.00753043822            0.000540927482           
       2.823888             0.00714855163             0.00054707379           
       2.826528             0.00685808472            0.000518938355           
       2.829169             0.00611404976            0.000513227152           
       2.831809             0.00659218023            0.000540165959           
       2.834449             0.00680511878            0.000552289145           
       2.837090             0.00600681649            0.000501160291           
       2.839730             0.00669782338            0.000526618009           
       2.842371             0.00727064483            0.000549467068           
       2.845011             0.00738105146            0.000558036174           
       2.847651              0.0071980971            0.000551753553           
       2.850292             0.00715885734            0.000555647786           
       2.852932             0.00682852612            0.000554503498           
       2.855573             0.00800305646            0.000582308462           
       2.858213             0.00676674152            0.000562282301           
       2.860853             0.00686250615            0.000526739893           
       2.863494             0.00765406288            0.000575960146           
       2.866134             0.00770481276            0.000600620522           
       2.868774             0.00709567476            0.000566472617           
       2.871415             0.00652998198            0.000551887663           
       2.874055             0.00780102675            0.000576596469           
       2.876696              0.0075614401             0.00058302791           
       2.879336             0.00736810014            0.000554696284           
       2.881976             0.00816583303            0.000602307054           
       2.884617             0.00686310013            0.000544066885           
       2.887257             0.00744643542            0.000569642274           
       2.889897             0.00693840404            0.000538550362           
       2.892538             0.00752036861            0.000614228439           
       2.895178             0.00736634451            0.000549202488           
       2.897819             0.00604114003            0.000507348981           
       2.900459             0.00630981893            0.000508421764           
       2.903099             0.00746307266            0.000547275638           
       2.905740             0.00680205233            0.000535994746           
       2.908380             0.00694364635            0.000547697948           
       2.911021             0.00688083749            0.000554079534           
       2.913661             0.00740007562            0.000574433033           
       2.916301             0.00830853263             0.00060925269           
       2.918942             0.00765018746            0.000559200394           
       2.921582             0.00702432791             0.00056064132           
       2.924222             0.00650998007            0.000522889733           
       2.926863             0.00711739504             0.00056949278           
       2.929503             0.00766045341            0.000597819335           
       2.932144              0.0078270624             0.00058007705           
       2.934784             0.00686174983            0.000534224143           
       2.937424             0.00756056714            0.000566525341           
       2.940065             0.00652738674            0.000502131178           
       2.942705             0.00632183653            0.000493541804           
       2.945346             0.00764279981            0.000575900584           
       2.947986             0.00772325754            0.000590302111           
       2.950626             0.00785945895             0.00059213163           
       2.953267             0.00643500952            0.000527135407           
       2.955907             0.00744158416            0.000588045409           
       2.958547             0.00695657403            0.000536749275           
       2.961188             0.00681642415            0.000554309877           
       2.963828             0.00673280132            0.000538881346           
       2.966469             0.00743985852            0.000555705972           
       2.969109             0.00838937862            0.000598846002           
       2.971749             0.00654197405             0.00052551716           
       2.974390              0.0079600742            0.000569645267           
       2.977030             0.00720601588            0.000554105407           
       2.979670             0.00826142316            0.000577095651           
       2.982311             0.00925940953            0.000633228185           
       2.984951             0.00890153395            0.000590502457           
       2.987592             0.00783589826            0.000565127277           
       2.990232             0.00746129065            0.000573505643           
       2.992872             0.00926142738            0.000601858677           
       2.995513             0.00842510524            0.000561601456           
       2.998153              0.0133374433            0.000718477103           
       3.000794              0.0104001885             0.00061452978           
       3.003434             0.00899519838            0.000572378006           
       3.006074              0.0152129174            0.000733928443           
       3.008715              0.0602337237             0.00140972932           
       3.011355               0.254985747             0.00279702514           
       3.013995               0.230178961             0.00266471786           
       3.016636               0.131837034             0.00197480817           
       3.019276               0.135752454             0.00196981107           
       3.021917               0.563413923             0.00385865285           
       3.024557                1.17504525             0.00547872113           
       3.027197                1.10869746             0.00518847341           
       3.029838               0.715681523             0.00422775654           
       3.032478               0.252623042             0.00251436258           
       3.035118               0.071328321             0.00135397364           
       3.037759              0.0681967384             0.00132220963           
       3.040399              0.0934485369             0.00159655735           
       3.043040               0.282157746             0.00280824635           
       3.045680               0.340884032             0.00290413432           
       3.048320               0.139331718             0.00189707951           
       3.050961               0.183412548             0.00221493402           
       3.053601               0.132715593              0.0018146305           
       3.056242               0.151266427             0.00205976921           
       3.058882               0.241943781             0.00279437084           
       3.061522               0.212605846             0.00257001815           
       3.064163               0.231192278             0.00264625517           
       3.066803               0.168709932             0.00237987932           
       3.069443              0.0933662454             0.00185232671           
       3.072084              0.0650333919             0.00150532674           
       3.074724              0.0233433856             0.00100718413           
       3.077365              0.0173119232             0.00089786945           
       3.080005              0.0114667676            0.000734877617           
       3.082645              0.0193441969             0.00100271055           
       3.085286              0.0168256657            0.000942539042           
       3.087926              0.0102264755            0.000729148639           
       3.090566             0.00842676058            0.000648520848           
       3.093207              0.0126899353            0.000828149213           
       3.095847             0.00769366873            0.000618060232           
       3.098488             0.00822889573            0.000708760255           
       3.101128             0.00791096735            0.000699402874           
       3.103768             0.00767052738            0.000675735559           
       3.106409             0.00953417897            0.000801783691           
       3.109049             0.00756304454            0.000685294081           
       3.111690             0.00852006369            0.000714874595           
       3.114330             0.00782329103            0.000699592526           
       3.116970             0.00788116939            0.000707566318           
       3.119611             0.00851687534            0.000782944035           
       3.122251              0.0167997248             0.00115023686           
       3.124891              0.0334011013             0.00163697933           
       3.127532              0.0276468706               0.001456981           
       3.130172              0.0174680812             0.00117813144           
       3.132813              0.0104302956            0.000896230998           
       3.135453             0.00702425707            0.000729423361           
       3.138093              0.0056744404             0.00071036914           
       3.140734             0.00757219275             0.00075706996           
       3.143374             0.00837083838            0.000841798208           
       3.146014              0.0063821009            0.000791293835           
       3.148655             0.00576087252             0.00069886411           
       3.151295             0.00643463387            0.000787095968           
       3.153936             0.00556262915            0.000706918569           
       3.156576              0.0060194038            0.000725367747           
       3.159216             0.00555731276             0.00070045584           
       3.161857             0.00512491545            0.000669916391           
       3.164497              0.0062696981            0.000778545858           
       3.167138             0.00783318954            0.000899152009           
       3.169778             0.00816861912            0.000903059401           
       3.172418             0.00733417471            0.000846988517           
       3.175059             0.00706641516            0.000737056787           
       3.177699             0.00593250131            0.000715140621           
       3.180339             0.00613031903            0.000778887636           
       3.182980             0.00601485514            0.000797670838           
       3.185620             0.00580986312            0.000798396846           
       3.188261             0.00716656912             0.00090255425           
       3.190901             0.00585214374            0.000750111738           
       3.193541              0.0052961955            0.000749813961           
       3.196182             0.00657430327            0.000870610476           
       3.198822             0.00700183364            0.000898773908           
       3.201463             0.00656709907            0.000855428782           
       3.204103             0.00493972346            0.000737391322           
       3.206743             0.00572363755            0.000793673722           
       3.209384             0.00588407748            0.000869431922           
       3.212024              0.0061389367            0.000827951702           
       3.214664             0.00678248532             0.00098961835           
       3.217305             0.00492801685            0.000801849898           
       3.219945             0.00539660324            0.000863657461           
       3.222586             0.00613443168            0.000877053044           
       3.225226             0.00523685477            0.000898959837           
       3.227866             0.00540242381            0.000834527727           
       3.230507             0.00774557198             0.00103582945           
       3.233147             0.00661664755            0.000965102168           
       3.235787             0.00558732858            0.000907593174           
       3.238428               0.007699634             0.00114973177           
       3.241068             0.00657549584            0.000993482989           
       3.243709             0.00463512257            0.000861775037           
       3.246349             0.00612121946             0.00090278299           
       3.248989             0.00650441066             0.00109884483           
       3.251630              0.0060329344             0.00101908564           
       3.254270              0.0063268144            0.000932705846           
       3.256911             0.00653136497             0.00103400598           
       3.259551             0.00512324309            0.000985924298           
       3.262191             0.00474474593             0.00096915827           
       3.264832             0.00669986714             0.00120330395           
       3.267472             0.00474158596            0.000949634928           
       3.270112             0.00695277716             0.00127082685           
       3.272753             0.00622064503             0.00110027114           
       3.275393             0.00669518465             0.00116469381           
       3.278034             0.00486933705            0.000993824835           
       3.280674             0.00571498301             0.00116833587           
       3.283314             0.00554001639             0.00102878679           
       3.285955             0.00550751402             0.00105836372           
       3.288595             0.00453812533              0.0010688334           
       3.291235               0.004229063             0.00106067749           
       3.293876             0.00575744729             0.00125537253           
       3.296516             0.00708316495              0.0013367577           
       3.299157              0.0058849082             0.00120314319           
       3.301797             0.00512586156             0.00128084496           
       3.304437             0.00579244968             0.00117964992           
       3.307078             0.00463393901             0.00116226712           
       3.309718             0.00619868409             0.00138750912           
       3.312359             0.00527952166             0.00128081539           
       3.314999             0.00632265051             0.00138003678           
       3.317639             0.00497917428             0.00117124814           
       3.320280             0.00558609955             0.00131899198           
       3.322920              0.0064604558             0.00144234171           
       3.325560             0.00512983927             0.00128612569           
       3.328201             0.00575306229             0.00122665636           
       3.330841             0.00462575019             0.00133868177           
       3.333482             0.00379666336             0.00114636946           
       3.336122             0.00759959553             0.00162262586           
       3.338762             0.00646912247             0.00172936258           
       3.341403             0.00334365344              0.0011880176           
       3.344043             0.00503856135             0.00140014838           
       3.346683             0.00692627947             0.00167595309           
       3.349324             0.00616840102             0.00177824491           
       3.351964             0.00571069521             0.00180931766           
       3.354605             0.00524677458               0.001983402           
       3.357245             0.00361625091             0.00148542791           
       3.359885             0.00352966786             0.00117455889           
       3.362526             0.00606212784             0.00192494645           
       3.365166             0.00428023077             0.00152559948           
       3.367807             0.00980212505             0.00295466373           
       3.370447             0.00612329606             0.00193715421           
       3.373087              0.0062497372             0.00209280951           
       3.375728             0.00715555731             0.00252731738           
       3.378368             0.00197183659             0.00196898955           
       3.381008             0.00437985771             0.00218784267           
       3.383649             0.00840284175             0.00243099261           
       3.386289             0.00491593753             0.00220066667           
       3.388930             0.00247327516             0.00246905418           
       3.391570             0.00495131532             0.00247125285           
       3.394210             0.00597740389             0.00343623739           
       3.396851             0.00495732872             0.00350045512           
       3.399491              0.0049354515             0.00349370467           
       3.402131             0.00481595257              0.0048827033           
       3.404772             0.00966424995             0.00978414973           
       3.407412                       nan                       nan           
       3.410053           -2.65248417e-05                         0           
       3.412693                       nan                       nan           
       3.415333           -2.65755302e-05                         0           
