################################################################################
# EDF_DataBlockID                     0.Image.Psd
# EDF_BinarySize                      4366944
# EDF_HeaderSize                      2560
# ByteOrder                           LowByteFirst
# DataType                            FloatValue
# Dim_1                               1028
# Dim_2                               1062
# Image                               0
# HeaderID                            EH:000000:000000:000000
# Size                                4366944
# Center_1                            607.5200
# Center_2                            651.5500
# Comment                             Xenocs_Cell_Window - 20251028_20perc_iodine_1.23mg
# DDummy                              0.6
# Date                                2025-11-01T23:52:48
# Delta                               0
# Dummy                               -1.5
# ExposureTime                        360
# Gamma                               0
# Intensity1                          8.75707e-10
# PSize_1                             7.5e-05
# PSize_2                             7.5e-05
# Pressure                            0.0326872
# SampleDistance                      0.450002
# SampleEnvKind                       large
# SampleEnvPN                         ElectroChemical cell
# SampleEnvSN                         1141
# Thickness                           0
# Wavelength                          1.541891e-10
# Wavelength                          1.54189e-10
# aux                                 0
# aux_dial                            0.002375
# beamx                               588.434
# beamx_dial                          588.434
# beamz                               657.808
# beamz_dial                          657.808
# det0x                               0
# det0x_dial                          6.36945
# det0xvd                             0
# det0xvd_dial                        0
# det0y                               450.002
# det0y_dial                          481.635
# det0z                               0
# det0z_dial                          1.23302
# det0zvd                             0
# det0zvd_dial                        0
# mag                                 1.818
# mag_dial                            1.818
# om                                  0.2499
# om_dial                             -0.610199
# phi                                 -0.0120535
# phi_dial                            0
# ry                                  0.599993
# ry_dial                             0.599993
# s1bot                               0.8
# s1bot_dial                          -1.66094
# s1hl                                0.8
# s1hl_dial                           -0.608437
# s1hr                                0.8
# s1hr_dial                           0.970938
# s1top                               0.8
# s1top_dial                          -0.461562
# s2bot                               0.45
# s2bot_dial                          1.36109
# s2hl                                0.45
# s2hl_dial                           -0.83375
# s2hr                                0.45
# s2hr_dial                           -0.118594
# s2top                               0.45
# s2top_dial                          1.44734
# w2theta                             32
# w2theta_dial                        32
# waxsch                              19.2605
# waxsch_dial                         -32.7355
# waxsh                               137.085
# waxsh_dial                          -43.5338
# waxsth                              26.0607
# waxsth_dial                         -19.4086
# waxsz                               67.0407
# waxsz_dial                          -23.7954
# wind                                65.9854
# wind_dial                           66.0041
# wpsi                                124
# wpsi_dial                           124
# wstod                               115
# wstod_dial                          115
# x                                   0
# x_dial                              1.00969
# z                                   0
# z_dial                              13.3172
# CountCutoff                         15302352
# DetectorModel                       Dectris EIGER2 Si 1M, S/N E-02-0362
# ThresholdSetting                    4023.88989258
# Saturation                          0
# FlatField                           Corrected
# BackgroundReductionExtra            0.02
# BackgroundCorrectionConstant        0.0026712
# Detector                            0
# Monitor                             0
# Pil_Roi0                            0
# SumForIntensity1                    3.15254e+08
# TransmittedFlux                     875707
# det                                 0
# mon                                 0
# pilai0                              3.15254e+08
# pilai1                              793617
# pilct0                              5.44447e+08
# pilct1                              793617
# pilroi0                             0
# pilroi1                             0
# sec                                 1
# title                               20251028_20perc_iodine_1.23mg_0_00959.edf
# usaxs0                              0
# Operation                           Azimuthal average I(q)
# Error_model                         ErrorModel.poisson
# Geometrical_correction              True
# Transmission_correction             True
# Thickness_correction                False
# Binning mode                        Uniform
# Binning factor                      1.0
# Psi                                 0.0
# Omega                               0.2499
# MaskInvalidPixels                   True
# DetectorEdge                        3
# MaskFiles                           ['20251028_20perc_iodine_1.23mg_0_00012_mask.edf']
################################################################################
    q(A⁻¹)                Intensity(a.u.)            Sigma_I(a.u.)            
       0.000340                372391.059                119.058805           
       0.001019                359213.988                71.6067835           
       0.001698                349884.347                49.9717824           
       0.002377                330831.149                43.4621117           
       0.003056                307818.479                35.4316212           
       0.003735                253626.158                28.3640706           
       0.004415                 204351.07                25.4600996           
       0.005094                152185.096                19.0277946           
       0.005773                100030.571                14.2822136           
       0.006452                58042.9399                10.4239691           
       0.007131                32172.9216                7.51816897           
       0.007810                16292.3199                5.30937252           
       0.008490                8245.21908                3.34799942           
       0.009169                4031.57719                2.31372865           
       0.009848                1243.50262                 1.2423783           
       0.010527                482.744874               0.774086693           
       0.011206                120.178045               0.368618259           
       0.011885                54.8249128               0.231324333           
       0.012564                25.1200161               0.160758546           
       0.013244                16.5687299               0.122058687           
       0.013923                12.4931761                0.10769863           
       0.014602                9.28641552              0.0861157779           
       0.015281                7.28596422              0.0776481412           
       0.015960                5.96825264              0.0697729483           
       0.016639                4.91041091              0.0597636363           
       0.017319                4.08822376              0.0536831761           
       0.017998                3.43568903              0.0470813775           
       0.018677                 2.8749426              0.0446068931           
       0.019356                2.41226476              0.0403737395           
       0.020035                2.03338095              0.0347767605           
       0.020714                1.77689109              0.0328535564           
       0.021394                1.68059974              0.0302311023           
       0.022073                1.36485985              0.0283449193           
       0.022752                1.19706517              0.0253935617           
       0.023431                1.10042481              0.0236331822           
       0.024110                1.00467861              0.0235430272           
       0.024789               0.874226933              0.0203958127           
       0.025469               0.786876801              0.0199404229           
       0.026148               0.715020464              0.0178597414           
       0.026827               0.665341807              0.0175038344           
       0.027506               0.622380895               0.017173426           
       0.028185               0.592792961              0.0159833073           
       0.028864               0.521005636              0.0149002189           
       0.029544               0.465902694              0.0136635897           
       0.030223               0.446013392              0.0135604625           
       0.030902               0.405177679              0.0130430613           
       0.031581               0.360186185              0.0116902105           
       0.032260               0.338430804              0.0115247458           
       0.032939               0.321090644              0.0108239415           
       0.033619               0.301034674              0.0106344769           
       0.034298               0.279726092             0.00997607127           
       0.034977               0.244702365             0.00914728806           
       0.035656               0.217412079             0.00885033378           
       0.036335               0.227901018             0.00878833429           
       0.037014                0.20099816              0.0082779537           
       0.037693               0.204007262             0.00802266932           
       0.038373               0.180331197             0.00761680161           
       0.039052               0.179449509             0.00763048631           
       0.039731               0.172909453             0.00731559462           
       0.040410               0.148020963             0.00672326656           
       0.041089               0.143815501             0.00652326181           
       0.041768               0.149188986             0.00667872271           
       0.042448               0.133702311             0.00627352201           
       0.043127                0.14207196             0.00631416535           
       0.043806               0.122934656             0.00591732079           
       0.044485               0.123770414             0.00581542681           
       0.045164               0.125255713             0.00596551905           
       0.045843               0.105250597              0.0052448766           
       0.046523                0.11054457             0.00539372493           
       0.047202               0.112576468             0.00548110501           
       0.047881               0.103600689             0.00515666323           
       0.048560              0.0938080886             0.00495162958           
       0.049239              0.0946190546             0.00477496477           
       0.049918              0.0861367255             0.00464497229           
       0.050598              0.0840578851             0.00451973542           
       0.051277              0.0953717368             0.00479902861           
       0.051956              0.0834618689              0.0044612004           
       0.052635              0.0817316397             0.00432102669           
       0.053314               0.086809994             0.00458344585           
       0.053993              0.0725849503             0.00407617357           
       0.054673              0.0802738382             0.00419114685           
       0.055352              0.0792496256             0.00422549146           
       0.056031              0.0631744943             0.00369340674           
       0.056710              0.0640781917             0.00381088137           
       0.057389              0.0686547453             0.00380384424           
       0.058068              0.0668573686             0.00379241644           
       0.058748              0.0672511871             0.00385101571           
       0.059427              0.0679511246             0.00380546458           
       0.060106              0.0609548464             0.00363835097           
       0.060785              0.0701834614             0.00378709724           
       0.061464              0.0618401776             0.00364056145           
       0.062143              0.0568613733             0.00345547265           
       0.062822               0.057260682             0.00342689312           
       0.063502               0.054586824             0.00333994721           
       0.064181              0.0636062708             0.00356726374           
       0.064860              0.0589398631             0.00348621925           
       0.065539               0.056984973             0.00339439732           
       0.066218              0.0539590806             0.00323232298           
       0.066897              0.0519291945             0.00319542039           
       0.067577              0.0551912606             0.00332590477           
       0.068256               0.055513265             0.00341753019           
       0.068935              0.0431549795             0.00296448829           
       0.069614              0.0487994987             0.00318378625           
       0.070293              0.0457631045             0.00311157507           
       0.070972               0.046530515             0.00311458319           
       0.071652              0.0469107244             0.00313301833           
       0.072331              0.0410230387             0.00287760265           
       0.073010              0.0446099488             0.00306933507           
       0.073689              0.0418280457             0.00295575979           
       0.074368              0.0412614106             0.00293033198           
       0.075047              0.0379432372              0.0027798331           
       0.075727              0.0357832226             0.00268287569           
       0.076406               0.038127357              0.0028246136           
       0.077085              0.0397612487             0.00283059365           
       0.077764              0.0403659979             0.00284204477           
       0.078443              0.0382748659             0.00278458514           
       0.079122              0.0342110081             0.00260731985           
       0.079802               0.036733776             0.00273039817           
       0.080481              0.0333617832             0.00251429085           
       0.081160              0.0358045713             0.00265816337           
       0.081839               0.037724067             0.00268480376           
       0.082518              0.0377570894             0.00268824071           
       0.083197              0.0371238789             0.00262418585           
       0.083876              0.0335847405             0.00245449307           
       0.084556               0.034699333             0.00256427553           
       0.085235              0.0353403589             0.00253785462           
       0.085914               0.036060418             0.00258848183           
       0.086593              0.0326902072             0.00244869333           
       0.087272              0.0354608278             0.00251430135           
       0.087951              0.0309710736             0.00240282493           
       0.088631              0.0354653826             0.00248368345           
       0.089310              0.0360971172             0.00255885091           
       0.089989              0.0334657191             0.00243501487           
       0.090668              0.0329524186             0.00244293972           
       0.091347              0.0337300483             0.00248543466           
       0.092026              0.0311262997             0.00228213864           
       0.092706              0.0329210848             0.00243220202           
       0.093385              0.0301042678             0.00229010668           
       0.094064              0.0283782976             0.00224936652           
       0.094743              0.0290832097             0.00224243062           
       0.095422              0.0297569356             0.00224296187           
       0.096101              0.0287049241             0.00224832738           
       0.096781              0.0244993405              0.0020473647           
       0.097460              0.0277720446              0.0021203639           
       0.098139              0.0317614025             0.00225009935           
       0.098818              0.0315487109             0.00221493606           
       0.099497              0.0296149036             0.00215038541           
       0.100176              0.0318453727             0.00217137015           
       0.100856              0.0275416024             0.00201802672           
       0.101535              0.0295034897             0.00208463774           
       0.102214              0.0301106677             0.00210599233           
       0.102893              0.0275209256             0.00199045078           
       0.103572               0.026481464             0.00192365542           
       0.104251              0.0283054564             0.00199614825           
       0.104931              0.0273782383             0.00194530864           
       0.105610               0.024536364             0.00184943678           
       0.106289              0.0248172965             0.00182904103           
       0.106968              0.0275854485             0.00193407459           
       0.107647              0.0247220185             0.00183204331           
       0.108326              0.0243503881             0.00179389727           
       0.109005              0.0270667994             0.00187941196           
       0.109685              0.0264428328             0.00183678584           
       0.110364               0.025239174             0.00181487615           
       0.111043              0.0264335711             0.00184995843           
       0.111722              0.0231782493             0.00171113149           
       0.112401              0.0256364561             0.00180458811           
       0.113080              0.0248337144             0.00175575699           
       0.113760              0.0283768896             0.00190818263           
       0.114439              0.0237244733             0.00171985979           
       0.115118              0.0229756788              0.0016797391           
       0.115797              0.0253058527             0.00177919262           
       0.116476              0.0200354821             0.00155942007           
       0.117155              0.0249600982             0.00175458764           
       0.117835              0.0223984762              0.0016290729           
       0.118514              0.0237212151             0.00169774225           
       0.119193              0.0232147562             0.00167953278           
       0.119872              0.0240108581             0.00168672615           
       0.120551              0.0219533807              0.0016020973           
       0.121230              0.0225665974              0.0016079726           
       0.121910                 0.0230223             0.00163982364           
       0.122589              0.0239546614             0.00167442268           
       0.123268              0.0214823349             0.00155494315           
       0.123947              0.0207385373             0.00153766784           
       0.124626              0.0205852162             0.00151324208           
       0.125305              0.0245045958             0.00165913019           
       0.125985              0.0226699974             0.00158343189           
       0.126664              0.0227428939             0.00157086862           
       0.127343              0.0230727755             0.00160056017           
       0.128022              0.0236213163             0.00160705321           
       0.128701              0.0216415961             0.00153022261           
       0.129380              0.0212673227             0.00149793407           
       0.130059              0.0231741451             0.00156727629           
       0.130739                0.02201012             0.00153814861           
       0.131418              0.0220860354              0.0015364851           
       0.132097              0.0207064494             0.00146864396           
       0.132776              0.0201795049             0.00144329071           
       0.133455              0.0209452207             0.00148184267           
       0.134134               0.018208673             0.00137725237           
       0.134814              0.0199787417             0.00142777701           
       0.135493              0.0220009562             0.00150435771           
       0.136172              0.0214531192             0.00147429569           
       0.136851              0.0215142342             0.00148498072           
       0.137530              0.0192967281             0.00137295735           
       0.138209              0.0188441323             0.00137268985           
       0.138889              0.0202423473             0.00142897607           
       0.139568              0.0187302558             0.00137397439           
       0.140247              0.0223839062             0.00150004819           
       0.140926              0.0179780401             0.00130589938           
       0.141605              0.0206313178             0.00143449081           
       0.142284              0.0165663663             0.00126412804           
       0.142964              0.0186390219             0.00134600573           
       0.143643              0.0186738608             0.00134556114           
       0.144322              0.0200297053             0.00136439301           
       0.145001              0.0206788157             0.00141478085           
       0.145680              0.0181183717             0.00129296775           
       0.146359              0.0189840779             0.00132833801           
       0.147039              0.0203573532             0.00138686874           
       0.147718              0.0186574055             0.00130579243           
       0.148397              0.0193803487             0.00135153118           
       0.149076              0.0210626424             0.00136526125           
       0.149755              0.0163726283             0.00122228665           
       0.150434              0.0204026774             0.00136500634           
       0.151114              0.0171639066             0.00124506024           
       0.151793              0.0169302721              0.0012365688           
       0.152472              0.0186650565             0.00127544278           
       0.153151              0.0185977327             0.00128544902           
       0.153830              0.0198065073             0.00131690073           
       0.154509              0.0178315699             0.00124430853           
       0.155188              0.0210181086             0.00135042215           
       0.155868              0.0187520885             0.00126647328           
       0.156547              0.0194451243             0.00129794818           
       0.157226              0.0172499088             0.00119263148           
       0.157905              0.0188513607             0.00125723618           
       0.158584              0.0210652841             0.00132659839           
       0.159263              0.0165836247             0.00118138261           
       0.159943              0.0195558861             0.00128384731           
       0.160622              0.0200311814             0.00127427956           
       0.161301              0.0185706208             0.00124335443           
       0.161980              0.0176954121             0.00119306829           
       0.162659              0.0162868847             0.00115728717           
       0.163338              0.0184441734             0.00122151122           
       0.164018              0.0180993885             0.00120368926           
       0.164697              0.0197143131             0.00127237244           
       0.165376              0.0187579151             0.00121400847           
       0.166055               0.017419505             0.00117761172           
       0.166734              0.0166380754             0.00114573967           
       0.167413              0.0156323465             0.00111134898           
       0.168093              0.0196456743             0.00125765251           
       0.168772              0.0171388262             0.00114032175           
       0.169451               0.018259658             0.00119867339           
       0.170130              0.0186031637             0.00119401197           
       0.170809              0.0164670327             0.00113677661           
       0.171488              0.0172483322             0.00115282606           
       0.172168              0.0170556469             0.00113535586           
       0.172847              0.0171328921              0.0011528717           
       0.173526              0.0164000033             0.00110642689           
       0.174205              0.0153478442             0.00107527614           
       0.174884              0.0169817998             0.00112517235           
       0.175563               0.016366711             0.00110932353           
       0.176243              0.0194697656             0.00122203196           
       0.176922              0.0194064567             0.00118824926           
       0.177601              0.0184498545             0.00117132569           
       0.178280              0.0184530957             0.00115835229           
       0.178959              0.0164677825             0.00110306931           
       0.179638              0.0171885822             0.00112370634           
       0.180317              0.0169188906             0.00110673423           
       0.180997              0.0184269468             0.00116127474           
       0.181676              0.0175918913             0.00112254129           
       0.182355              0.0157957662             0.00107008172           
       0.183034              0.0165041915             0.00107625975           
       0.183713              0.0162967852             0.00108250033           
       0.184392              0.0162225077             0.00107970389           
       0.185072              0.0183077592             0.00113392768           
       0.185751              0.0176167767             0.00111541762           
       0.186430              0.0157012663             0.00104565661           
       0.187109              0.0184054965             0.00114473621           
       0.187788              0.0187968503             0.00115399033           
       0.188467              0.0166277004             0.00107252044           
       0.189147              0.0172654606             0.00110396299           
       0.189826              0.0160987699             0.00104716017           
       0.190505              0.0181880499             0.00113135972           
       0.191184              0.0184728362             0.00112375002           
       0.191863              0.0154723497             0.00103061159           
       0.192542              0.0162645036             0.00106662953           
       0.193222              0.0158553406              0.0010295268           
       0.193901              0.0144420313            0.000995741129           
       0.194580              0.0153956432             0.00101010635           
       0.195259              0.0172282964             0.00108080842           
       0.195938              0.0145424016            0.000995362218           
       0.196617              0.0166485691             0.00105013875           
       0.197297              0.0167858339             0.00105876447           
       0.197976              0.0175637958             0.00106638588           
       0.198655              0.0161035834             0.00103224897           
       0.199334              0.0163174196             0.00102991655           
       0.200013              0.0170943147             0.00105356485           
       0.200692              0.0177554587              0.0010802041           
       0.201371              0.0171545208             0.00104980907           
       0.202051              0.0164322298             0.00103066546           
       0.202730               0.016800136             0.00103173077           
       0.203409              0.0146560829            0.000970117956           
       0.204088              0.0153241926            0.000990886142           
       0.204767              0.0143270533            0.000953069953           
       0.205446              0.0183358316             0.00108030024           
       0.206126              0.0161591815             0.00100037541           
       0.206805              0.0158059934             0.00100752034           
       0.207484              0.0164685914             0.00100993301           
       0.208163              0.0167443121             0.00102447154           
       0.208842              0.0136575974            0.000922730631           
       0.209521              0.0165391451             0.00100697796           
       0.210201              0.0139260692            0.000934323467           
       0.210880              0.0162028793            0.000988034655           
       0.211559              0.0161930575             0.00100233887           
       0.212238              0.0152669838            0.000968302855           
       0.212917              0.0152799083            0.000965113457           
       0.213596              0.0155271104            0.000978641623           
       0.214276              0.0160620484            0.000974620103           
       0.214955              0.0149093249            0.000958742751           
       0.215634              0.0160285319            0.000986952403           
       0.216313              0.0146243016            0.000940749489           
       0.216992              0.0149187567             0.00094993516           
       0.217671              0.0157423754            0.000969194748           
       0.218351              0.0170858114             0.00101957823           
       0.219030               0.015884276            0.000967557001           
       0.219709              0.0151373994            0.000950427713           
       0.220388                0.01484348            0.000939946289           
       0.221067               0.014775459            0.000938533629           
       0.221746              0.0168156034             0.00100020837           
       0.222426              0.0148086984            0.000924598596           
       0.223105              0.0177167231             0.00102509273           
       0.223784              0.0162592278            0.000972281586           
       0.224463               0.014680746            0.000931238747           
       0.225142              0.0153660949            0.000937653038           
       0.225821              0.0143358336            0.000909322057           
       0.226500              0.0163930693            0.000978563573           
       0.227180              0.0159898762            0.000951565145           
       0.227859              0.0144247099            0.000907848698           
       0.228538              0.0151405223            0.000920761938           
       0.229217              0.0149308313            0.000921601245           
       0.229896              0.0151303178            0.000927290804           
       0.230575              0.0158708454            0.000934573017           
       0.231255              0.0151470634            0.000926683399           
       0.231934              0.0161194538            0.000949434602           
       0.232613              0.0149080148            0.000916429677           
       0.233292              0.0159298242            0.000938162865           
       0.233971              0.0155912758            0.000927707039           
       0.234650              0.0138596912             0.00088496346           
       0.235330              0.0142305834             0.00088889581           
       0.236009              0.0148890543            0.000907268689           
       0.236688              0.0159231411            0.000934888322           
       0.237367              0.0152099657            0.000915039407           
       0.238046              0.0166637717            0.000964517532           
       0.238725              0.0164694125              0.0009440828           
       0.239405              0.0145092012            0.000891615308           
       0.240084               0.014061721            0.000872169194           
       0.240763              0.0158395154            0.000934525517           
       0.241442              0.0165964293            0.000943114926           
       0.242121              0.0159304889            0.000925743864           
       0.242800                0.01456374            0.000889332033           
       0.243480              0.0134384631             0.00085028401           
       0.244159              0.0155234325             0.00091430939           
       0.244838              0.0159818746            0.000912446793           
       0.245517              0.0135162523            0.000851186007           
       0.246196              0.0151311626            0.000901035372           
       0.246875                0.01470851            0.000875978531           
       0.247554              0.0149381601            0.000891762551           
       0.248234              0.0140878345            0.000852878367           
       0.248913              0.0146805195            0.000880400133           
       0.249592               0.014857325            0.000877269701           
       0.250271              0.0149756831            0.000878199606           
       0.250950              0.0143450665            0.000864774894           
       0.251629              0.0151278855            0.000880509181           
       0.252309               0.013737306             0.00084076785           
       0.252988              0.0129999339            0.000803803303           
       0.253667              0.0138206221            0.000838470577           
       0.254346              0.0145286219            0.000859501939           
       0.255025              0.0133044088            0.000820691725           
       0.255704              0.0147809512            0.000861072622           
       0.256384              0.0152142843            0.000870581214           
       0.257063               0.013942365            0.000838148222           
       0.257742              0.0134500717            0.000817514157           
       0.258421               0.014231406            0.000839305605           
       0.259100              0.0130962038            0.000806539451           
       0.259779              0.0128741249            0.000798993884           
       0.260459              0.0140649288            0.000836768629           
       0.261138               0.011978874            0.000757135241           
       0.261817              0.0142701259            0.000843060337           
       0.262496              0.0133992848            0.000808919606           
       0.263175              0.0134157581            0.000811155226           
       0.263854              0.0138239179            0.000819576571           
       0.264534              0.0103889895            0.000704426149           
       0.265213              0.0124529738            0.000783386278           
       0.265892              0.0141923117             0.00082559293           
       0.266571              0.0144555422            0.000831319257           
       0.267250               0.012684996            0.000780057831           
       0.267929              0.0134142268             0.00080134385           
       0.268609              0.0119293109            0.000759827786           
       0.269288              0.0129302711            0.000777922108           
       0.269967              0.0120809945            0.000760042404           
       0.270646              0.0119667468            0.000753170139           
       0.271325               0.013184532            0.000791885048           
       0.272004               0.012458267            0.000762092482           
       0.272683               0.012452253            0.000762849935           
       0.273363              0.0132283326            0.000791277436           
       0.274042              0.0131077195            0.000783014659           
       0.274721              0.0129006052            0.000776343293           
       0.275400              0.0108265039            0.000706492968           
       0.276079              0.0119219795            0.000745584649           
       0.276758               0.012282335            0.000766318963           
       0.277438              0.0116256925            0.000737184032           
       0.278117              0.0116513756            0.000751417367           
       0.278796              0.0124073644            0.000767541096           
       0.279475              0.0116029684            0.000754504999           
       0.280154              0.0110116341            0.000724454432           
       0.280833              0.0125317605            0.000777542801           
       0.281513               0.012649799            0.000793452035           
       0.282192              0.0128871409             0.00078719806           
       0.282871              0.0125623503             0.00078264602           
       0.283550              0.0113969317             0.00074945413           
       0.284229              0.0109290317            0.000744687713           
       0.284908              0.0108191848            0.000748751042           
       0.285588              0.0124241756            0.000792972867           
       0.286267              0.0110752257            0.000760675732           
       0.286946              0.0110680918            0.000755485573           
       0.287625              0.0103932571            0.000744557073           
       0.288304              0.0107318111            0.000746460049           
       0.288983              0.0106260867              0.0007521803           
       0.289663              0.0104559243            0.000750500422           
       0.290342              0.0112871627            0.000775611306           
       0.291021              0.0100785539            0.000736858883           
       0.291700             0.00954130054             0.00070758428           
       0.292379              0.0121339152            0.000816218372           
       0.293058              0.0103546863            0.000751157116           
       0.293738              0.0118470607            0.000796719175           
       0.294417              0.0110393932            0.000778021052           
       0.295096              0.0109953531            0.000767931652           
       0.295775              0.0100161874             0.00074413475           
       0.296454             0.00975207653            0.000724761179           
       0.297133              0.0104519932            0.000753868733           
       0.297812              0.0114316899            0.000792362926           
       0.298492             0.00933125358            0.000717260995           
       0.299171               0.010176167            0.000747613114           
       0.299850              0.0102436884            0.000744967255           
       0.300529             0.00926486796            0.000716462348           
       0.301208             0.00770395498            0.000654916812           
       0.301887              0.0106697323            0.000769820806           
       0.302567              0.0106121436            0.000763895366           
       0.303246              0.0101078396            0.000750391138           
       0.303925             0.00830602482            0.000688962971           
       0.304604              0.0100671407            0.000742116264           
       0.305283               0.010382556            0.000764829838           
       0.305962             0.00976802743            0.000737368399           
       0.306642             0.00934696086            0.000731096921           
       0.307321             0.00808986017            0.000677986809           
       0.308000             0.00993444836            0.000742410427           
       0.308679             0.00876473667            0.000712436468           
       0.309358             0.00854606146            0.000693976666           
       0.310037             0.00958155233            0.000736455241           
       0.310717             0.00848812836            0.000692494529           
       0.311396             0.00912894219            0.000722975434           
       0.312075             0.00895750805            0.000725236488           
       0.312754             0.00891670889            0.000709107301           
       0.313433             0.00892314794            0.000715532675           
       0.314112             0.00895373205            0.000716593344           
       0.314792               0.008289541            0.000694371766           
       0.315471             0.00977691004            0.000744772078           
       0.316150              0.0111850817            0.000803975886           
       0.316829             0.00840170701            0.000701399857           
       0.317508             0.00883572696            0.000711217103           
       0.318187             0.00837476231            0.000701550418           
       0.318866             0.00979604284            0.000748527566           
       0.319546              0.0104001854            0.000782824922           
       0.320225              0.0085200122            0.000708553586           
       0.320904             0.00807396146            0.000679091632           
       0.321583             0.00750874367              0.0006693208           
       0.322262              0.0080156614            0.000681063852           
       0.322941             0.00834981676            0.000704020507           
       0.323621             0.00718434299            0.000649055523           
       0.324300             0.00772784821            0.000673686537           
       0.324979             0.00728054835            0.000655081096           
       0.325658             0.00848910937            0.000708649125           
       0.326337             0.00828623336            0.000701043991           
       0.327016             0.00823580177            0.000694470286           
       0.327696             0.00913597577            0.000739574032           
       0.328375             0.00885988302            0.000722167418           
       0.329054             0.00914590497            0.000737711176           
       0.329733             0.00922346599            0.000743538113           
       0.330412             0.00804324842            0.000688650439           
       0.331091             0.00742764307            0.000673776515           
       0.331771             0.00714961524            0.000643724443           
       0.332450             0.00702159388            0.000650320774           
       0.333129             0.00783184813            0.000685046113           
       0.333808             0.00707483091            0.000651957581           
       0.334487             0.00756497456            0.000677359624           
       0.335166             0.00786262096            0.000680450039           
       0.335846             0.00724205919            0.000664521853           
       0.336525             0.00768305824            0.000677697954           
       0.337204             0.00611497443            0.000606182657           
       0.337883             0.00739340593            0.000667426975           
       0.338562             0.00615248447            0.000612223679           
       0.339241             0.00744711478            0.000674826178           
       0.339921             0.00660185638            0.000624720989           
       0.340600             0.00564347383            0.000588567724           
       0.341279             0.00593733962            0.000597232577           
       0.341958             0.00778503623            0.000693525109           
       0.342637             0.00742217481            0.000667603125           
       0.343316             0.00693295303            0.000647094144           
       0.343995             0.00667549302            0.000645362352           
       0.344675              0.0068882952            0.000643520273           
       0.345354             0.00522708968            0.000564276071           
       0.346033             0.00670330688            0.000637342121           
       0.346712             0.00624084737            0.000618888194           
       0.347391             0.00584058579            0.000602420012           
       0.348070             0.00615064558            0.000609424212           
       0.348750             0.00583947013            0.000602388262           
       0.349429             0.00568343913            0.000586613727           
       0.350108             0.00673830889            0.000646423213           
       0.350787             0.00659971012            0.000628872143           
       0.351466             0.00627226156            0.000624366277           
       0.352145             0.00491617618            0.000553224388           
       0.352825             0.00592180838            0.000604426022           
       0.353504             0.00554726425            0.000584855914           
       0.354183             0.00625283032            0.000613783459           
       0.354862             0.00581377592             0.00060559514           
       0.355541             0.00606922348             0.00061065301           
       0.356220             0.00628496427            0.000622585366           
       0.356900             0.00583329385            0.000605494321           
       0.357579             0.00587477732             0.00060019263           
       0.358258             0.00548761105            0.000588105715           
       0.358937             0.00672365735            0.000638739684           
       0.359616             0.00517462003            0.000568176162           
       0.360295             0.00611492909            0.000618160336           
       0.360975             0.00625134571            0.000622344456           
       0.361654             0.00531512243            0.000576811559           
       0.362333             0.00580828243            0.000599911604           
       0.363012             0.00634731544            0.000635200114           
       0.363691             0.00609393507            0.000610113384           
       0.364370             0.00544507265            0.000583872467           
       0.365050             0.00489168787            0.000550446814           
       0.365729                0.00543566            0.000585778631           
       0.366408             0.00501097079            0.000563675125           
       0.367087             0.00503082036            0.000555731895           
       0.367766             0.00455070525            0.000539561801           
       0.368445             0.00486731771            0.000548108713           
       0.369124             0.00495221918            0.000557211596           
       0.369804             0.00574180546            0.000599030563           
       0.370483             0.00454760475             0.00053544167           
       0.371162             0.00420154673            0.000517649795           
       0.371841             0.00504389704            0.000557282757           
       0.372520             0.00537131661            0.000586613489           
       0.373199             0.00512376913            0.000566091359           
       0.373879                0.00518001            0.000575779716           
       0.374558             0.00407872756             0.00050346507           
       0.375237             0.00529399416            0.000574526505           
       0.375916             0.00500032066            0.000569060594           
       0.376595               0.004366558             0.00052138325           
       0.377274             0.00444990502            0.000534760735           
       0.377954             0.00498536022            0.000557129198           
       0.378633              0.0042180702            0.000518941559           
       0.379312             0.00414314974            0.000514182407           
       0.379991             0.00504410969            0.000564404539           
       0.380670             0.00420423414            0.000524385503           
       0.381349             0.00470885258            0.000546995599           
       0.382029             0.00341471512            0.000472478497           
       0.382708             0.00431378547            0.000519451675           
       0.383387             0.00530939721            0.000589346528           
       0.384066             0.00392206585            0.000501882827           
       0.384745             0.00512124691            0.000575753585           
       0.385424             0.00352066842            0.000478998225           
       0.386104             0.00434014956            0.000525953782           
       0.386783             0.00493226944            0.000572812145           
       0.387462             0.00310299162            0.000443035541           
       0.388141             0.00379944897            0.000498069766           
       0.388820             0.00444577642            0.000534875738           
       0.389499             0.00391932549            0.000505036502           
       0.390178             0.00500262386             0.00057285149           
       0.390858             0.00510826168            0.000574184175           
       0.391537             0.00521890655            0.000586295596           
       0.392216             0.00365632425             0.00048458648           
       0.392895             0.00516751997            0.000578030365           
       0.393574             0.00412151917            0.000514944454           
       0.394253             0.00364875556            0.000486691207           
       0.394933             0.00414218553            0.000524481933           
       0.395612             0.00325664584             0.00045154292           
       0.396291             0.00359624242            0.000484162465           
       0.396970              0.0041006398             0.00051242167           
       0.397649             0.00483730318            0.000558262435           
       0.398328             0.00498063482            0.000563982905           
       0.399008             0.00439788285            0.000528811081           
       0.399687             0.00468009972            0.000547635953           
       0.400366             0.00376023422            0.000488998555           
       0.401045             0.00418568159            0.000514945562           
       0.401724             0.00305902109              0.0004409545           
       0.402403             0.00465293625            0.000548072351           
       0.403083             0.00420272452            0.000513371612           
       0.403762             0.00398955144            0.000502648898           
       0.404441             0.00385500537            0.000497247326           
       0.405120             0.00388926704            0.000497814271           
       0.405799              0.0047360454            0.000546953707           
       0.406478             0.00379319993            0.000489504193           
       0.407158             0.00421008699            0.000514734465           
       0.407837             0.00383355865            0.000495513167           
       0.408516             0.00429918743            0.000520178851           
       0.409195             0.00467546306            0.000548618813           
       0.409874             0.00264620986            0.000418476728           
       0.410553             0.00408176086            0.000525325971           
       0.411233              0.0037574637            0.000501413836           
       0.411912             0.00304727931            0.000457947231           
       0.412591             0.00371733153             0.00050914299           
       0.413270             0.00403419769              0.0005278792           
       0.413949             0.00342329293            0.000491581646           
       0.414628             0.00313123972            0.000469300843           
       0.415307              0.0036259422            0.000510631766           
       0.415987              0.0029375774            0.000455825266           
       0.416666             0.00311055695            0.000466231873           
       0.417345             0.00249219508            0.000424293524           
       0.418024             0.00308861334            0.000472354677           
       0.418703             0.00370355466            0.000516294201           
       0.419382             0.00409538205            0.000540258538           
       0.420062             0.00269231193            0.000439270675           
       0.420741             0.00323249178            0.000483884503           
       0.421420             0.00355660146            0.000509488689           
       0.422099             0.00319124245            0.000482623132           
       0.422778             0.00256467515            0.000435000654           
       0.423457             0.00318310459            0.000487583822           
       0.424137             0.00192023577             0.00037253343           
       0.424816             0.00285339714            0.000463609129           
       0.425495             0.00231905038            0.000417556181           
       0.426174             0.00299761257            0.000474897208           
       0.426853             0.00288046295            0.000462697286           
       0.427532             0.00299927882            0.000476135568           
       0.428212             0.00274047004            0.000458133636           
       0.428891              0.0031040112            0.000486465854           
       0.429570             0.00395894509            0.000549765275           
       0.430249             0.00142931469            0.000328617573           
       0.430928             0.00283933793            0.000473292832           
       0.431607             0.00264997911            0.000449381869           
       0.432287             0.00278367362            0.000463951573           
       0.432966             0.00150059379            0.000343635821           
       0.433645             0.00196883007            0.000394025441           
       0.434324             0.00294993138            0.000479402493           
       0.435003             0.00242454181            0.000435361774           
       0.435682             0.00230462944            0.000427940506           
       0.436361             0.00333007467            0.000513722041           
       0.437041             0.00111040626            0.000296252617           
       0.437720             0.00240683553            0.000438262377           
       0.438399             0.00194885045            0.000396424624           
       0.439078              0.0022509873            0.000438401927           
       0.439757             0.00128690193            0.000329438939           
       0.440436             0.00303616853            0.000517420934           
       0.441116             0.00359633485            0.000572341525           
       0.441795             0.00387632999            0.000594919888           
       0.442474             0.00390097182            0.000598472004           
       0.443153             0.00256375557            0.000496490891           
       0.443832             0.00210160929            0.000450277647           
       0.444511              0.0022649742            0.000465344681           
       0.445191             0.00330949902            0.000576184091           
       0.445870             0.00198047488            0.000445734925           
       0.446549             0.00132563767             0.00036851919           
       0.447228             0.00130568391            0.000363668538           
       0.447907             0.00143478287            0.000385798048           
       0.448586             0.00163490458            0.000421734368           
       0.449266            0.000968172982            0.000321555574           
       0.449945             0.00265527823            0.000530346301           
       0.450624             0.00278941174            0.000552208912           
       0.451303             0.00316288846             0.00059563816           
       0.451982              0.0013460682            0.000386172202           
       0.452661             0.00313439559            0.000600262037           
       0.453341             0.00280620439            0.000569958087           
       0.454020             0.00292929333            0.000583211418           
       0.454699             0.00217835344            0.000507524804           
       0.455378              0.0016969435            0.000448187553           
       0.456057             0.00286098735            0.000592297513           
       0.456736             0.00150925217            0.000428851026           
       0.457416             0.00248807121            0.000550641937           
       0.458095             0.00169184413            0.000460636272           
       0.458774             0.00148795778            0.000437698632           
       0.459453             0.00138092286            0.000423788776           
       0.460132             0.00179933647            0.000473302852           
       0.460811            0.000618243304            0.000287786908           
       0.461490             0.00205109071            0.000518852802           
       0.462170             0.00183977481            0.000499067245           
       0.462849             0.00199944476            0.000523647623           
       0.463528             0.00172315753            0.000484996549           
       0.464207             0.00137078723            0.000440668722           
       0.464886             0.00218561646            0.000552101905           
       0.465565             0.00125091942            0.000422271433           
       0.466245            0.000409144406            0.000242248402           
       0.466924             0.00149099357            0.000473369254           
       0.467603             0.00171211182            0.000496497854           
       0.468282             0.00104559187            0.000397201316           
       0.468961            0.000907674389            0.000372510308           
       0.469640            0.000764710867            0.000343281961           
       0.470320            0.000927352576                0.00037829           
       0.470999            0.000618712169            0.000311906043           
       0.471678            0.000798433696              0.0003577284           
       0.472357             0.00145647403            0.000484502588           
       0.473036            0.000339302235            0.000235326473           
       0.473715            0.000844977382            0.000374269268           
       0.474395             0.00104321862            0.000421610578           
       0.475074             0.00188142973            0.000566213845           
       0.475753            0.000681027477            0.000337718713           
       0.476432             0.00165405421            0.000545478428           
       0.477111            0.000560521421            0.000313700308           
       0.477790             3.4349872e-05            7.80720616e-05           
       0.478470            0.000778211531            0.000376519545           
       0.479149            0.000960846399            0.000422702314           
       0.479828             0.00151107626            0.000528843613           
       0.480507            0.000621290497            0.000341836774           
       0.481186            8.26346482e-05            0.000127477582           
       0.481865            0.000824285768            0.000397630844           
       0.482545            0.000466652787            0.000302698116           
       0.483224           -0.000114103493                         0           
       0.483903             0.00070689437             0.00038100885           
       0.484582            0.000109752873            0.000152570784           
       0.485261            9.30266636e-05            0.000136905916           
       0.485940           -9.62059839e-05                         0           
       0.486619            0.000520678388            0.000333253693           
       0.487299            0.000339813638            0.000273513909           
       0.487978            0.000329326836            0.000266517125           
       0.488657            0.000612926948            0.000378597137           
       0.489336            0.000569824203            0.000358642253           
       0.490015            0.000355937057            0.000285678321           
       0.490694             0.00016567019            0.000200290983           
       0.491374           -0.000311787041                         0           
       0.492053           -0.000311806029                         0           
       0.492732           -6.12225841e-05                         0           
       0.493411           -7.70125991e-05                         0           
       0.494090           -6.00573145e-05                         0           
       0.494769             0.00048632579            0.000356810982           
       0.495449           -4.79761957e-05                         0           
       0.496128           -0.000311920364                         0           
       0.496807            0.000501813687             0.00037132881           
       0.497486            0.000214734776            0.000237125876           
       0.498165           -0.000311977895                         0           
       0.498844           -0.000311997021                         0           
       0.499524           -0.000312016237                         0           
       0.500203            -2.9705328e-05                         0           
       0.500882             -2.098598e-05                         0           
       0.501561           -0.000312074092                         0           
       0.502240           -0.000312093546                         0           
       0.502919           -0.000312112912                         0           
       0.503599           -0.000312132357                         0           
       0.504278            0.000301749746            0.000305427024           
       0.504957             0.00062136007            0.000441225611           
       0.505636           -1.48744801e-05                         0           
       0.506315           -0.000312210603                         0           
       0.506994           -0.000312229931                         0           
       0.507673            -0.00031224922                         0           
       0.508353           -0.000312268916                         0           
       0.509032           -0.000312288528                         0           
       0.509711           -0.000312308147                         0           
       0.510390           -0.000312328074                         0           
       0.511069            0.000402754057            0.000377771424           
       0.511748            0.000402208782            0.000379836624           
       0.512428           -0.000312387641                         0           
       0.513107           -0.000312407257                         0           
       0.513786           -0.000312426935                         0           
       0.514465           -0.000312446949                         0           
       0.515144           -0.000312466948                         0           
       0.515823           -0.000312486766                         0           
       0.516503             0.00173858518            0.000844796414           
       0.517182           -0.000312526771                         0           
       0.517861            0.000109248718            0.000213284493           
       0.518540           -0.000312566789                         0           
       0.519219            0.000109947453            0.000216300889           
       0.519898            -0.00031260689                         0           
       0.520578            0.000122665937            0.000231018093           
       0.521257           -0.000312647173                         0           
       0.521936           -0.000312667231                         0           
       0.522615           -0.000312687529                         0           
       0.523294            0.000156869474            0.000271572485           
       0.523973            0.000161327742            0.000277087635           
       0.524653           -0.000312747943                         0           
       0.525332           -0.000312768181                         0           
       0.526011           -0.000312788783                         0           
       0.526690           -0.000312809346                         0           
       0.527369           -0.000312829739                         0           
       0.528048           -0.000312850277                         0           
       0.528728            0.000204813716             0.00032508422           
       0.529407           -0.000312891209                         0           
       0.530086            0.000705114538            0.000601893952           
       0.530765            0.000237970847            0.000365224935           
       0.531444           -0.000312952427                         0           
       0.532123           -0.000312973353                         0           
       0.532802           -0.000312994108                         0           
       0.533482           -0.000313014792                         0           
       0.534161             0.00023799419            0.000363567909           
       0.534840           -0.000313056048                         0           
       0.535519            0.000252557912            0.000379993274           
       0.536198           -0.000313097672                         0           
       0.536877            -0.00031311809                         0           
       0.537557            0.000827259687            0.000682817332           
       0.538236            0.000303917579            0.000438855809           
       0.538915            0.000282844643            0.000407195821           
       0.539594           -0.000313201686                         0           
       0.540273           -0.000313222934                         0           
       0.540952           -0.000313243945                         0           
       0.541632           -0.000313264572                         0           
       0.542311           -0.000313285388                         0           
       0.542990           -0.000313306437                         0           
       0.543669           -0.000313327662                         0           
       0.544348           -0.000313348862                         0           
       0.545027           -0.000313370017                         0           
       0.545707           -0.000313391235                         0           
       0.546386           -0.000313412513                         0           
       0.547065           -0.000313433535                         0           
       0.547744           -0.000313454653                         0           
       0.548423           -0.000313476004                         0           
       0.549102           -0.000313497376                         0           
       0.549782           -0.000313518641                         0           
       0.550461           -0.000313540158                         0           
       0.551140           -0.000313561805                         0           
       0.551819           -0.000313583196                         0           
       0.552498           -0.000313604769                         0           
       0.553177           -0.000313625973                         0           
       0.553856           -0.000313647252                         0           
       0.554536            0.000474532035            0.000617786842           
       0.555215           -0.000313690276                         0           
       0.555894             -0.0003137119                         0           
       0.556573           -0.000313733653                         0           
       0.557252           -0.000313755387                         0           
       0.557931           -0.000313777022                         0           
       0.558611           -0.000313799164                         0           
       0.559290            0.000628969537            0.000775085947           
       0.559969            0.000797574485            0.000940231658           
       0.560648           -0.000313863396                         0           
       0.561327           -0.000313885483                         0           
       0.562006           -0.000313907468                         0           
       0.562686           -0.000313929465                         0           
       0.563365           -0.000313951543                         0           
       0.564044            -0.00031397351                         0           
       0.564723           -0.000313995428                         0           
       0.565402           -0.000314016938                         0           
       0.566081           -0.000314038591                         0           
       0.566761           -0.000314060477                         0           
       0.567440           -0.000314082808                         0           
       0.568119           -0.000314104962                         0           
       0.568798           -0.000314127427                         0           
       0.569477           -0.000314149749                         0           
       0.570156           -0.000314172179                         0           
       0.570836           -0.000314194524                         0           
       0.571515             0.00398005511             0.00241913866           
       0.572194              0.0010658018             0.00125979954           
       0.572873           -0.000314260896                         0           
       0.573552             0.00139553046             0.00155389716           
       0.574231           -0.000314305065                         0           
       0.574911           -0.000314327933                         0           
       0.575590             0.00133266679             0.00148622782           
       0.576269             0.00149811106             0.00164696566           
       0.576948            -0.00031439551                         0           
       0.577627           -0.000314417604                         0           
       0.578306            -0.00031444001                         0           
       0.578985           -0.000314462607                         0           
       0.579665           -0.000314485075                         0           
       0.580344           -0.000314507882                         0           
       0.581023           -0.000314530664                         0           
       0.581702           -0.000314553236                         0           
       0.582381           -0.000314575603                         0           
       0.583060           -0.000314598637                         0           
       0.583740           -0.000314621309                         0           
       0.584419           -0.000314644057                         0           
       0.585098           -0.000314666777                         0           
       0.585777           -0.000314689675                         0           
       0.586456           -0.000314712945                         0           
       0.587135           -0.000314735596                         0           
       0.587815           -0.000314758002                         0           
       0.588494           -0.000314781108                         0           
       0.589173           -0.000314804743                         0           
       0.589852           -0.000314827122                         0           
       0.590531           -0.000314850346                         0           
       0.591210           -0.000314873033                         0           
       0.591890           -0.000314896159                         0           
       0.592569           -0.000314918511                         0           
       0.593248           -0.000314942948                         0           
       0.593927           -0.000314966182                         0           
       0.594606           -0.000314989894                         0           
       0.595285           -0.000315012194                         0           
       0.595965           -0.000315033002                         0           
       0.596644           -0.000315054415                         0           
