################################################################################
# EDF_DataBlockID                     0.Image.Psd
# EDF_BinarySize                      2105344
# EDF_HeaderSize                      2560
# ByteOrder                           LowByteFirst
# DataType                            FloatValue
# Dim_1                               512
# Dim_2                               1028
# Image                               0
# HeaderID                            EH:000000:000000:000000
# Size                                2105344
# Center_1                            304.9000
# Center_2                            588.7000
# Comment                             Xenocs_Cell_Window - 20251028_20perc_iodine_1.23mg
# DDummy                              0.6
# Date                                2025-10-30T19:29:41
# Delta                               21.910000
# Dummy                               -1.5
# ExposureTime                        360
# Gamma                               15.360000
# Intensity1                          8.54033e-10
# PSize_1                             7.5e-05
# PSize_2                             7.5e-05
# Pressure                            0.0327406
# SampleDistance                      0.115750
# SampleEnvKind                       large
# SampleEnvPN                         ElectroChemical cell
# SampleEnvSN                         1141
# Thickness                           0
# Wavelength                          1.541891e-10
# Wavelength                          1.54189e-10
# aux                                 0
# aux_dial                            0.002375
# beamx                               588.434
# beamx_dial                          588.434
# beamz                               657.808
# beamz_dial                          657.808
# det0x                               0
# det0x_dial                          6.36945
# det0xvd                             0
# det0xvd_dial                        0
# det0y                               450.002
# det0y_dial                          481.635
# det0z                               0
# det0z_dial                          1.23302
# det0zvd                             0
# det0zvd_dial                        0
# mag                                 1.818
# mag_dial                            1.818
# om                                  0.2499
# om_dial                             -0.610199
# phi                                 -0.0120535
# phi_dial                            0
# ry                                  0.599993
# ry_dial                             0.599993
# s1bot                               0.8
# s1bot_dial                          -1.66094
# s1hl                                0.8
# s1hl_dial                           -0.608437
# s1hr                                0.8
# s1hr_dial                           0.970938
# s1top                               0.8
# s1top_dial                          -0.461562
# s2bot                               0.45
# s2bot_dial                          1.36109
# s2hl                                0.45
# s2hl_dial                           -0.83375
# s2hr                                0.45
# s2hr_dial                           -0.118594
# s2top                               0.45
# s2top_dial                          1.44734
# w2theta                             32
# w2theta_dial                        32
# waxsch                              19.2605
# waxsch_dial                         -32.7355
# waxsh                               137.085
# waxsh_dial                          -43.5338
# waxsth                              26.0607
# waxsth_dial                         -19.4086
# waxsz                               67.0407
# waxsz_dial                          -23.7954
# wind                                65.9854
# wind_dial                           66.0041
# wpsi                                124
# wpsi_dial                           124
# wstod                               115
# wstod_dial                          115
# x                                   0
# x_dial                              1.00969
# z                                   0
# z_dial                              13.3172
# CountCutoff                         6807993
# DetectorModel                       Dectris EIGER2 Si 500K, S/N E-01-0554
# ThresholdSetting                    4023.88989258
# Saturation                          0
# FlatField                           Corrected
# BackgroundReductionExtra            0.02
# BackgroundCorrectionConstant        0.0026712
# Detector                            0
# Monitor                             0
# Pil_Roi0                            0
# SumForIntensity1                    3.07452e+08
# TransmittedFlux                     854033
# det                                 0
# mon                                 0
# pilai0                              3.07452e+08
# pilai1                              775281
# pilct0                              5.31543e+08
# pilct1                              775281
# pilroi0                             0
# pilroi1                             0
# sec                                 1
# title                               20251028_20perc_iodine_1.23mg_1_00483.edf
# usaxs0                              0
# Operation                           Azimuthal average I(q)
# Error_model                         ErrorModel.poisson
# Geometrical_correction              True
# Transmission_correction             True
# Thickness_correction                False
# Binning mode                        Uniform
# Binning factor                      1.0
# Psi                                 0.0
# Omega                               0.2499
# MaskInvalidPixels                   True
# DetectorEdge                        3
# MaskFiles                           ['WAXS_corrected.edf']
################################################################################
    q(A⁻¹)                Intensity(a.u.)            Sigma_I(a.u.)            
       0.693100             0.00828588065             0.00607220016           
       0.695741               0.016821184             0.00706013071           
       0.698381           -2.37536883e-05                         0           
       0.701021             0.00882619216             0.00885597113           
       0.703662             0.00846684233             0.00500667848           
       0.706302              0.0102329439             0.00426134227           
       0.708942              0.0114182962              0.0058098889           
       0.711583             0.00659660468             0.00382395875           
       0.714223              0.0117381304             0.00588914645           
       0.716864             0.00493288394             0.00249789467           
       0.719504             0.00883359419             0.00360711718           
       0.722144              0.0126409514             0.00399602528           
       0.724785             0.00719050904             0.00240408362           
       0.727425              0.0102924437             0.00389107003           
       0.730065              0.0072938312             0.00231701513           
       0.732706             0.00514922062             0.00163482213           
       0.735346             0.00526075482             0.00215401092           
       0.737987             0.00438724655             0.00139000692           
       0.740627              0.0117107966             0.00338844659           
       0.743267             0.00962728062             0.00205779165           
       0.745908             0.00882123174             0.00213709055           
       0.748548              0.0070283719             0.00175832888           
       0.751189             0.00238980784             0.00138156322           
       0.753829             0.00744481561             0.00224151345           
       0.756469             0.00654868637             0.00169521513           
       0.759110             0.00483945687             0.00153573602           
       0.761750             0.00910158877             0.00186224805           
       0.764390             0.00705403267             0.00171594404           
       0.767031             0.00624534239             0.00139817546           
       0.769671             0.00586630832             0.00169036554           
       0.772312             0.00700192546             0.00140591247           
       0.774952             0.00666443191             0.00185221256           
       0.777592              0.0112015182             0.00174906074           
       0.780233             0.00555512638             0.00148606289           
       0.782873             0.00984065989             0.00189166819           
       0.785513             0.00580358547             0.00155304778           
       0.788154             0.00752196105             0.00147906082           
       0.790794             0.00830288378             0.00185777883           
       0.793435             0.00696717934             0.00152882664           
       0.796075             0.00745961655              0.0015238919           
       0.798715             0.00608815009              0.0016268643           
       0.801356             0.00769853908             0.00157452198           
       0.803996             0.00801999686             0.00163841677           
       0.806637             0.00611987738              0.0011389925           
       0.809277             0.00670306823             0.00129023155           
       0.811917             0.00584898184             0.00112670085           
       0.814558             0.00678728876             0.00126143974           
       0.817198             0.00850989339             0.00134191634           
       0.819838              0.0077849497              0.0012989831           
       0.822479             0.00780059864              0.0015268932           
       0.825119             0.00842500577             0.00135058997           
       0.827760             0.00802392304             0.00133513331           
       0.830400             0.00802015231             0.00125631275           
       0.833040             0.00648065333             0.00118317644           
       0.835681             0.00865288169             0.00155423109           
       0.838321              0.0064820032             0.00112907696           
       0.840961             0.00790978545             0.00135893057           
       0.843602             0.00741345517             0.00120646279           
       0.846242             0.00821398351             0.00126974271           
       0.848883             0.00987647967              0.0014248419           
       0.851523             0.00782093149             0.00125217867           
       0.854163             0.00725230646             0.00128231378           
       0.856804              0.0084495912             0.00124451467           
       0.859444             0.00740227659             0.00114131432           
       0.862085             0.00553824601             0.00102891801           
       0.864725             0.00561895327             0.00106063611           
       0.867365             0.00636774387             0.00104700171           
       0.870006             0.00686600657             0.00103601153           
       0.872646             0.00739558664             0.00112752077           
       0.875286             0.00696420006             0.00105263271           
       0.877927             0.00752172385             0.00105561673           
       0.880567             0.00814197301             0.00113783863           
       0.883208             0.00591274346            0.000960504766           
       0.885848             0.00706120225              0.0010898521           
       0.888488             0.00796601199             0.00108573285           
       0.891129             0.00701438987              0.0010461155           
       0.893769             0.00685562724            0.000989764844           
       0.896410             0.00679276983            0.000918567424           
       0.899050             0.00464021927            0.000834914831           
       0.901690             0.00800850394             0.00119479216           
       0.904331             0.00573976034            0.000896745612           
       0.906971             0.00888650821             0.00118703177           
       0.909611             0.00643529724            0.000919549664           
       0.912252             0.00657998246            0.000960416069           
       0.914892             0.00884235486             0.00121665228           
       0.917533             0.00700861024             0.00102467919           
       0.920173             0.00811900313             0.00102324416           
       0.922813              0.0094925627             0.00116106218           
       0.925454             0.00793517545            0.000955899949           
       0.928094              0.0092915168             0.00110428117           
       0.930734             0.00745707073             0.00106507241           
       0.933375             0.00701271165             0.00102269818           
       0.936015             0.00675014578            0.000911274466           
       0.938656             0.00763925317             0.00103997321           
       0.941296             0.00684918805            0.000892434637           
       0.943936             0.00760140613            0.000921977004           
       0.946577             0.00606516533              0.0008181138           
       0.949217             0.00679949569            0.000796572512           
       0.951858             0.00715908184            0.000855617221           
       0.954498             0.00932093936             0.00113004326           
       0.957138             0.00848352248             0.00102133876           
       0.959779             0.00957428962             0.00106959992           
       0.962419             0.00823429941            0.000985332883           
       0.965059             0.00885191901             0.00107447441           
       0.967700             0.00750566717             0.00101334218           
       0.970340             0.00791189427            0.000920653925           
       0.972981             0.00790095692            0.000838224084           
       0.975621             0.00755965228             0.00087225303           
       0.978261             0.00825928904            0.000866297177           
       0.980902             0.00814700624             0.00102941191           
       0.983542             0.00826139851            0.000917988999           
       0.986182              0.0082669678              0.0009015797           
       0.988823             0.00733007735            0.000824337933           
       0.991463             0.00715656033            0.000869010703           
       0.994104             0.00701937402            0.000839568775           
       0.996744             0.00648815722            0.000823312171           
       0.999384             0.00794084593            0.000814586544           
       1.002025             0.00677223268            0.000839625049           
       1.004665             0.00854290111            0.000861806057           
       1.007306              0.0086006974            0.000860290285           
       1.009946             0.00806762386            0.000849750843           
       1.012586             0.00730397383            0.000787464681           
       1.015227             0.00713177106            0.000835951411           
       1.017867             0.00823993959            0.000863572872           
       1.020507             0.00773086771            0.000810236228           
       1.023148             0.00918989377            0.000953202631           
       1.025788             0.00839442281            0.000835328685           
       1.028429             0.00730397943            0.000816326619           
       1.031069             0.00727391219            0.000766611939           
       1.033709             0.00745758793            0.000825135009           
       1.036350             0.00889372321            0.000809300996           
       1.038990             0.00793006933            0.000778242746           
       1.041630             0.00747902886            0.000788293073           
       1.044271             0.00865254393            0.000797405156           
       1.046911             0.00854835294            0.000833700839           
       1.049552             0.00944424406            0.000920663921           
       1.052192             0.00809265846            0.000778205329           
       1.054832             0.00792458062            0.000777086904           
       1.057473             0.00898173876            0.000815540565           
       1.060113              0.0092876508            0.000808805356           
       1.062754               0.007700719            0.000751925754           
       1.065394             0.00796095924             0.00080830117           
       1.068034             0.00740234566            0.000709171273           
       1.070675             0.00867575451            0.000800858048           
       1.073315             0.00920221526            0.000836621379           
       1.075955             0.00818856508            0.000745049214           
       1.078596             0.00818799999            0.000791812182           
       1.081236             0.00820521019            0.000759008257           
       1.083877              0.0089054573            0.000783639435           
       1.086517             0.00792189743             0.00079253072           
       1.089157             0.00801911742            0.000827370026           
       1.091798             0.00805299943             0.00072689972           
       1.094438             0.00819433671            0.000730884228           
       1.097078              0.0102117346            0.000782541847           
       1.099719             0.00974782369             0.00082698867           
       1.102359             0.00682910986             0.00064824788           
       1.105000             0.00887074213            0.000826145482           
       1.107640             0.00956555772            0.000820282526           
       1.110280             0.00931138203            0.000738434462           
       1.112921             0.00837690162            0.000752381831           
       1.115561             0.00867934015            0.000727869985           
       1.118202             0.00813976304            0.000705546053           
       1.120842             0.00944035193            0.000798580994           
       1.123482              0.0088879992            0.000771482168           
       1.126123             0.00792805615            0.000698878571           
       1.128763             0.00936593444            0.000764823848           
       1.131403             0.00904526778            0.000724247328           
       1.134044             0.00902634943            0.000744472503           
       1.136684             0.00997546868            0.000834424575           
       1.139325              0.0098339734             0.00076319997           
       1.141965             0.00887023123            0.000729630403           
       1.144605             0.00877151568            0.000691822717           
       1.147246             0.00964460889            0.000742422198           
       1.149886             0.00732254197            0.000644607135           
       1.152527             0.00916888555            0.000731800127           
       1.155167             0.00951015229            0.000708888625           
       1.157807             0.00830775998            0.000710384048           
       1.160448                0.01003697            0.000762493553           
       1.163088             0.00905451314             0.00069079438           
       1.165728              0.0101115151            0.000749507388           
       1.168369             0.00785404581            0.000666666087           
       1.171009             0.00851167786            0.000673523322           
       1.173650             0.00902490554            0.000711728992           
       1.176290             0.00980591672            0.000724989462           
       1.178930             0.00812601821            0.000646834104           
       1.181571             0.00883296227            0.000687757189           
       1.184211             0.00958292068            0.000718899198           
       1.186851             0.00896986963            0.000680003787           
       1.189492             0.00997377499             0.00071222375           
       1.192132             0.00849803882            0.000650048394           
       1.194773              0.0108499108            0.000737722162           
       1.197413             0.00894136411            0.000641669391           
       1.200053             0.00895335383            0.000658414231           
       1.202694             0.00871328797            0.000617663236           
       1.205334              0.0102175993            0.000720821617           
       1.207975              0.0101780517             0.00068671172           
       1.210615             0.00867265012            0.000699295048           
       1.213255             0.00925780908            0.000646983309           
       1.215896              0.0105733969            0.000703954796           
       1.218536              0.0100715937             0.00066062533           
       1.221176              0.0102991143            0.000726302553           
       1.223817              0.0108146566            0.000698648399           
       1.226457             0.00896080675            0.000648766337           
       1.229098             0.00996354978            0.000684070151           
       1.231738             0.00887264464            0.000648712602           
       1.234378             0.00973467926            0.000638488191           
       1.237019             0.00964185997            0.000654811748           
       1.239659             0.00999541639            0.000660901566           
       1.242299              0.0105097515            0.000669082142           
       1.244940              0.0105902764            0.000653212473           
       1.247580              0.0101399433            0.000658720291           
       1.250221              0.0105877746            0.000668956018           
       1.252861             0.00906897143            0.000589404409           
       1.255501             0.00808256678            0.000604174507           
       1.258142             0.00930705697            0.000609219288           
       1.260782              0.0106277204            0.000665095855           
       1.263423             0.00986590683            0.000615750759           
       1.266063              0.0103185342            0.000645441931           
       1.268703              0.0107804328             0.00065425558           
       1.271344              0.0100011391            0.000651521439           
       1.273984              0.0110012131            0.000659952524           
       1.276624              0.0105466999             0.00063403641           
       1.279265              0.0100798428            0.000630138034           
       1.281905              0.0116240017            0.000679688382           
       1.284546              0.0102085339            0.000615681788           
       1.287186              0.0110267788            0.000627790779           
       1.289826              0.0108380734              0.0006559542           
       1.292467              0.0103634733            0.000627303234           
       1.295107             0.00928956167             0.00058801282           
       1.297747              0.0105992387            0.000601036387           
       1.300388              0.0103453746            0.000647311515           
       1.303028              0.0112583208            0.000644652642           
       1.305669             0.00962364328            0.000610208807           
       1.308309              0.0104744691            0.000630342727           
       1.310949              0.0110446906            0.000646622541           
       1.313590              0.0106409074             0.00061485277           
       1.316230              0.0094929949            0.000619732624           
       1.318871               0.010840326             0.00064859546           
       1.321511              0.0107756522            0.000634671809           
       1.324151              0.0106584075            0.000612496546           
       1.326792              0.0100100037            0.000597243344           
       1.329432              0.0115376709            0.000636674824           
       1.332072              0.0110075018            0.000612607003           
       1.334713              0.0111213316             0.00063553201           
       1.337353              0.0107592056            0.000599482867           
       1.339994              0.0107935177            0.000630099876           
       1.342634              0.0114616184            0.000622645751           
       1.345274              0.0106306466            0.000620581482           
       1.347915              0.0119123365            0.000638786537           
       1.350555              0.0111489723            0.000628803604           
       1.353195              0.0113306535             0.00063701975           
       1.355836              0.0106447018            0.000607808556           
       1.358476               0.010925305            0.000598003842           
       1.361117              0.0111986874            0.000606270536           
       1.363757              0.0109678821            0.000618310818           
       1.366397              0.0119881418            0.000626868088           
       1.369038              0.0121167688            0.000636497375           
       1.371678              0.0119139321            0.000625583127           
       1.374319              0.0111762657            0.000600689419           
       1.376959               0.011136182             0.00059358125           
       1.379599              0.0119669695            0.000659441374           
       1.382240              0.0109768968            0.000593584272           
       1.384880              0.0116976425            0.000649054101           
       1.387520              0.0114098483            0.000608796588           
       1.390161              0.0120623329            0.000594513472           
       1.392801              0.0119130855            0.000615581407           
       1.395442               0.010686118            0.000590982571           
       1.398082              0.0116005548            0.000576622581           
       1.400722             0.00973221598            0.000553226082           
       1.403363              0.0113537309            0.000628982137           
       1.406003                0.01131042             0.00058751898           
       1.408644              0.0112098769            0.000612722668           
       1.411284              0.0113844953            0.000584695438           
       1.413924              0.0109054814            0.000570140904           
       1.416565               0.011607509            0.000585895246           
       1.419205              0.0104589934             0.00058015782           
       1.421845              0.0113033838            0.000602768238           
       1.424486              0.0108521743            0.000567716814           
       1.427126              0.0105340629            0.000581040009           
       1.429767              0.0104281558            0.000543932935           
       1.432407              0.0119250779            0.000608725005           
       1.435047              0.0111110885            0.000551837468           
       1.437688              0.0113627562             0.00056639593           
       1.440328              0.0112243799            0.000574539952           
       1.442968              0.0111400294            0.000585201499           
       1.445609              0.0110832515            0.000565191489           
       1.448249              0.0114512549            0.000589043957           
       1.450890              0.0103460307            0.000556242452           
       1.453530              0.0113786064             0.00061029101           
       1.456170               0.010922447            0.000580307848           
       1.458811              0.0113897644            0.000566649148           
       1.461451              0.0122084116            0.000588198916           
       1.464092              0.0111107233             0.00056480158           
       1.466732              0.0109894984            0.000556885027           
       1.469372               0.010055719            0.000520233753           
       1.472013              0.0104178287            0.000571095535           
       1.474653              0.0101132155            0.000554004169           
       1.477293              0.0112533093              0.0005967149           
       1.479934               0.011152021            0.000566822406           
       1.482574              0.0106638786            0.000536177582           
       1.485215              0.0111021038            0.000557273159           
       1.487855             0.00995770987            0.000534732794           
       1.490495             0.00948139791            0.000519865325           
       1.493136              0.0105594395            0.000541104444           
       1.495776              0.0113127043            0.000557521838           
       1.498416              0.0108365986            0.000563516387           
       1.501057              0.0115067592            0.000567882283           
       1.503697              0.0104903715            0.000530108624           
       1.506338               0.010034566            0.000527938306           
       1.508978              0.0103388748             0.00053061362           
       1.511618              0.0105797614            0.000571646186           
       1.514259              0.0114551818              0.0005742772           
       1.516899              0.0104098939            0.000533033931           
       1.519540              0.0101170161            0.000533955887           
       1.522180              0.0102331597            0.000541729431           
       1.524820              0.0116764074            0.000575424989           
       1.527461               0.010589197            0.000550691277           
       1.530101               0.010160687            0.000534038964           
       1.532741             0.00984502378            0.000522627282           
       1.535382              0.0111516041            0.000565181959           
       1.538022              0.0103576383             0.00051312751           
       1.540663              0.0110195436            0.000569261852           
       1.543303               0.010995615            0.000527994721           
       1.545943              0.0110844479            0.000561096316           
       1.548584              0.0103826842            0.000552792213           
       1.551224               0.010465734            0.000513148719           
       1.553864              0.0099912464             0.00052980316           
       1.556505              0.0103113416            0.000519937406           
       1.559145              0.0105888121             0.00053334084           
       1.561786               0.010032588            0.000519543667           
       1.564426              0.0102301944            0.000508316976           
       1.567066              0.0105618189            0.000541182491           
       1.569707             0.00993254487            0.000515385785           
       1.572347             0.00924028155            0.000513555188           
       1.574988             0.00962000174             0.00049876107           
       1.577628             0.00943767321            0.000515132639           
       1.580268              0.0106161763            0.000529354615           
       1.582909             0.00891697398            0.000514234208           
       1.585549              0.0103036538            0.000536726175           
       1.588189               0.010028785             0.00051796176           
       1.590830             0.00953868925            0.000504513114           
       1.593470               0.010405952            0.000547814559           
       1.596111             0.00970152816            0.000516417277           
       1.598751             0.00903308331            0.000482844681           
       1.601391             0.00900541199            0.000492741114           
       1.604032              0.0105571795            0.000544661102           
       1.606672             0.00943786382            0.000500350691           
       1.609312             0.00963692851            0.000527787153           
       1.611953             0.00955167515             0.00051418306           
       1.614593              0.0090013668            0.000489627911           
       1.617234             0.00941984993            0.000519100666           
       1.619874              0.0085242817             0.00049185775           
       1.622514             0.00929656706            0.000506648463           
       1.625155              0.0088257665            0.000496569095           
       1.627795             0.00990384674            0.000513135312           
       1.630436             0.00823071268            0.000465344927           
       1.633076             0.00999067918            0.000519412846           
       1.635716             0.00850787414             0.00047186236           
       1.638357             0.00981360597            0.000508115382           
       1.640997             0.00985430478            0.000524591645           
       1.643637             0.00928974697             0.00049564812           
       1.646278             0.00850301918            0.000489095526           
       1.648918             0.00858890144            0.000492900246           
       1.651559             0.00936025259            0.000518551343           
       1.654199              0.0087873423            0.000488658645           
       1.656839             0.00856380489            0.000482571609           
       1.659480             0.00879005811             0.00050726404           
       1.662120             0.00946280634            0.000495704801           
       1.664761             0.00889230053            0.000499146303           
       1.667401             0.00913454792             0.00048353168           
       1.670041             0.00859780848            0.000476263523           
       1.672682             0.00845352215            0.000470309316           
       1.675322             0.00811277118            0.000457770294           
       1.677962             0.00901763717            0.000477300541           
       1.680603             0.00859305985            0.000467362482           
       1.683243             0.00943535486            0.000510944673           
       1.685884             0.00894949748            0.000501290421           
       1.688524             0.00929376332            0.000500966533           
       1.691164             0.00950471295            0.000506735085           
       1.693805             0.00895748984            0.000497335564           
       1.696445             0.00890817665            0.000498841647           
       1.699085             0.00961724794            0.000500947152           
       1.701726             0.00857040192            0.000455554275           
       1.704366             0.00900794928            0.000492012047           
       1.707007             0.00895782537            0.000479704336           
       1.709647             0.00862431028            0.000476005063           
       1.712287              0.0085833981            0.000479008105           
       1.714928              0.0080187115            0.000466716363           
       1.717568             0.00964273055             0.00048211815           
       1.720209               0.008537097            0.000475153406           
       1.722849             0.00938778399            0.000495703256           
       1.725489             0.00915550942            0.000489943505           
       1.728130             0.00784028953            0.000481825254           
       1.730770              0.0085901824            0.000478988876           
       1.733410             0.00903614077            0.000483542685           
       1.736051             0.00880318952            0.000480591145           
       1.738691             0.00785143302            0.000444668163           
       1.741332             0.00808046112            0.000464297747           
       1.743972             0.00878884395            0.000500041288           
       1.746612             0.00851912197            0.000472741744           
       1.749253             0.00945707796            0.000507923196           
       1.751893             0.00941395992            0.000503044238           
       1.754533             0.00855099614            0.000478985749           
       1.757174             0.00910997163            0.000489763754           
       1.759814             0.00897690715            0.000478804287           
       1.762455             0.00912012681            0.000491470366           
       1.765095             0.00859469611             0.00045640704           
       1.767735             0.00853995744            0.000468986556           
       1.770376             0.00892688178            0.000480757253           
       1.773016             0.00997692542            0.000504842034           
       1.775657             0.00810884057            0.000448582398           
       1.778297             0.00843223606            0.000453501135           
       1.780937             0.00937656598            0.000504762398           
       1.783578             0.00891396235            0.000479847476           
       1.786218             0.00945829156            0.000515836597           
       1.788858             0.00875182009            0.000471268354           
       1.791499             0.00957821487            0.000487479378           
       1.794139             0.00963842107            0.000485041642           
       1.796780             0.00961872712            0.000482209902           
       1.799420             0.00927001997             0.00047076694           
       1.802060             0.00871574981            0.000460163147           
       1.804701             0.00874309906            0.000442285793           
       1.807341             0.00943759312            0.000482851675           
       1.809981             0.00937828132            0.000482936792           
       1.812622             0.00895192139            0.000463336857           
       1.815262             0.00941583134            0.000485284981           
       1.817903             0.00956525923            0.000481873288           
       1.820543             0.00938511229            0.000484751678           
       1.823183             0.00900573679            0.000474591975           
       1.825824             0.00902801543            0.000453966426           
       1.828464             0.00817775652            0.000450441868           
       1.831105             0.00821978106            0.000439112055           
       1.833745             0.00875991796            0.000462991279           
       1.836385             0.00947919718            0.000495369313           
       1.839026             0.00861486033            0.000470753045           
       1.841666             0.00852142513            0.000466533054           
       1.844306              0.0081663861            0.000444249198           
       1.846947             0.00895219671            0.000469209534           
       1.849587             0.00924440549             0.00052650917           
       1.852228             0.00821199626            0.000448722951           
       1.854868             0.00905268821            0.000497681382           
       1.857508             0.00868445303            0.000482673335           
       1.860149             0.00898345433            0.000499831292           
       1.862789             0.00787377873            0.000451673636           
       1.865429             0.00859750665            0.000492670146           
       1.868070             0.00953112295            0.000511817014           
       1.870710             0.00906859877             0.00048773405           
       1.873351             0.00901980791            0.000492433491           
       1.875991             0.00883369152            0.000495279798           
       1.878631             0.00922853679            0.000496532342           
       1.881272             0.00887397997            0.000483638263           
       1.883912              0.0089341894            0.000505031399           
       1.886553             0.00823629634             0.00047948389           
       1.889193             0.00937516567            0.000510687015           
       1.891833             0.00816075536            0.000494826931           
       1.894474             0.00895357549            0.000513792268           
       1.897114             0.00876938192            0.000492045404           
       1.899754             0.00824494605             0.00047910194           
       1.902395             0.00853245946            0.000477854915           
       1.905035             0.00890236956             0.00051698321           
       1.907676             0.00908015988            0.000492099691           
       1.910316             0.00899512673            0.000502794846           
       1.912956             0.00922058214            0.000497857604           
       1.915597              0.0084583236            0.000479499963           
       1.918237              0.0082858557            0.000490132076           
       1.920878             0.00925405871            0.000515856695           
       1.923518             0.00860066495            0.000497523032           
       1.926158             0.00890338253             0.00049963424           
       1.928799             0.00840936017            0.000479954152           
       1.931439              0.0081458008            0.000484762976           
       1.934079             0.00792045852            0.000498314502           
       1.936720              0.0086147027            0.000481512484           
       1.939360             0.00845022757            0.000508779103           
       1.942001             0.00837497513            0.000464241085           
       1.944641             0.00861465473            0.000480111614           
       1.947281             0.00908742272            0.000488564567           
       1.949922             0.00766604512            0.000463500726           
       1.952562             0.00916112788            0.000522568751           
       1.955202             0.00796067326            0.000486535069           
       1.957843             0.00927439387            0.000511529756           
       1.960483             0.00878247352            0.000520427262           
       1.963124             0.00832719508            0.000496362068           
       1.965764             0.00812747141            0.000462435893           
       1.968404             0.00721808777             0.00043168007           
       1.971045              0.0080456102            0.000464665086           
       1.973685             0.00848448909            0.000500516013           
       1.976326             0.00864029994            0.000498149061           
       1.978966             0.00856127423            0.000500217392           
       1.981606             0.00791279168            0.000490929108           
       1.984247             0.00805244414            0.000491986374           
       1.986887             0.00739542946            0.000465840412           
       1.989527             0.00858962337            0.000496638143           
       1.992168             0.00796461057            0.000496202405           
       1.994808             0.00766058198            0.000484553611           
       1.997449             0.00778591308            0.000478469184           
       2.000089             0.00851572399            0.000498407682           
       2.002729             0.00723975923            0.000459828934           
       2.005370             0.00733584496            0.000457889947           
       2.008010             0.00802113084            0.000499696082           
       2.010650             0.00805013296            0.000504334031           
       2.013291             0.00744330373            0.000465285526           
       2.015931             0.00857000676            0.000495731334           
       2.018572             0.00816226207            0.000517464123           
       2.021212             0.00748116495            0.000486503305           
       2.023852             0.00801526559            0.000476605602           
       2.026493             0.00754019324            0.000482918491           
       2.029133             0.00809803173             0.00049039207           
       2.031774             0.00792130145            0.000509008716           
       2.034414             0.00757005905            0.000457857131           
       2.037054             0.00780411767            0.000476664708           
       2.039695              0.0074855413            0.000463308442           
       2.042335             0.00863267637            0.000517057258           
       2.044975             0.00703660126            0.000461156548           
       2.047616              0.0074675924            0.000473889465           
       2.050256             0.00770846804            0.000486028165           
       2.052897             0.00832057579            0.000514265811           
       2.055537             0.00713034604            0.000460098737           
       2.058177             0.00816681923               0.000482197           
       2.060818             0.00711234123            0.000471400965           
       2.063458             0.00793262481             0.00051880213           
       2.066098             0.00866222739            0.000511415663           
       2.068739             0.00791537966            0.000496470958           
       2.071379             0.00802979147            0.000513087537           
       2.074020             0.00802508252            0.000501789519           
       2.076660             0.00684464986            0.000467163768           
       2.079300             0.00772637577            0.000508503869           
       2.081941             0.00768903333            0.000464466725           
       2.084581             0.00764896165            0.000488970018           
       2.087222             0.00720820052            0.000457776624           
       2.089862             0.00833850093            0.000536256908           
       2.092502             0.00813970018            0.000513590489           
       2.095143             0.00756964205            0.000511450262           
       2.097783             0.00747611152            0.000492101271           
       2.100423             0.00796731996            0.000489514925           
       2.103064              0.0071949839            0.000482690861           
       2.105704             0.00745887998             0.00048902882           
       2.108345             0.00748886137             0.00047076923           
       2.110985             0.00823754528            0.000527350981           
       2.113625             0.00808069358            0.000526864066           
       2.116266             0.00749350646            0.000514558927           
       2.118906              0.0072747796             0.00047248965           
       2.121546             0.00733722157            0.000465453173           
       2.124187             0.00720890149            0.000484290849           
       2.126827             0.00788302537            0.000512080667           
       2.129468             0.00746395687            0.000499556251           
       2.132108             0.00721599428            0.000477888742           
       2.134748             0.00851091878            0.000516985886           
       2.137389             0.00840710573            0.000536045239           
       2.140029              0.0072405281            0.000445361829           
       2.142670             0.00697725533            0.000467234328           
       2.145310             0.00683911344             0.00045024309           
       2.147950             0.00722544932            0.000476332217           
       2.150591             0.00841258588            0.000508781073           
       2.153231              0.0071524376            0.000482896425           
       2.155871             0.00733492025            0.000472423697           
       2.158512             0.00775077687            0.000506721735           
       2.161152             0.00714782483            0.000471363884           
       2.163793             0.00795338427            0.000494977859           
       2.166433             0.00727372541            0.000486087142           
       2.169073             0.00733610772             0.00047729887           
       2.171714             0.00660403343            0.000449472819           
       2.174354             0.00828906477            0.000526174102           
       2.176995              0.0081544339            0.000519687593           
       2.179635             0.00760074133            0.000530189793           
       2.182275             0.00644258214            0.000460869914           
       2.184916             0.00727803637            0.000473123169           
       2.187556             0.00774648247            0.000483219607           
       2.190196             0.00783980153            0.000507990397           
       2.192837             0.00742076321            0.000491538892           
       2.195477             0.00757441208            0.000473450588           
       2.198118             0.00675489727            0.000458561458           
       2.200758             0.00747574992             0.00049492253           
       2.203398              0.0071688677            0.000487758235           
       2.206039             0.00781420157            0.000481951575           
       2.208679             0.00721872238            0.000474004747           
       2.211319             0.00707606256            0.000472003587           
       2.213960             0.00672307184            0.000466244291           
       2.216600             0.00741013004            0.000506365023           
       2.219241             0.00721980607            0.000477692773           
       2.221881             0.00675728529            0.000463088559           
       2.224521             0.00735682929            0.000489116934           
       2.227162             0.00752552734            0.000484788162           
       2.229802             0.00603750209            0.000447815247           
       2.232443             0.00762682635            0.000495378866           
       2.235083             0.00836464105             0.00053408994           
       2.237723              0.0071590169            0.000474163506           
       2.240364             0.00778009414            0.000506481236           
       2.243004             0.00756260597            0.000495365779           
       2.245644             0.00753210401            0.000499314121           
       2.248285             0.00805071858            0.000505876477           
       2.250925             0.00682754607            0.000468694295           
       2.253566             0.00712797242            0.000511975475           
       2.256206             0.00681959598            0.000490765173           
       2.258846             0.00738871934            0.000485943546           
       2.261487             0.00680194919             0.00048937159           
       2.264127             0.00696677466            0.000478319435           
       2.266767             0.00747802039            0.000508762167           
       2.269408             0.00709652965            0.000497644617           
       2.272048             0.00713772582            0.000496107857           
       2.274689             0.00803669146             0.00053335928           
       2.277329              0.0072491558            0.000476952331           
       2.279969             0.00673074522            0.000489198522           
       2.282610             0.00732921162            0.000496286113           
       2.285250             0.00732323834            0.000474819643           
       2.287891             0.00733133508            0.000509359696           
       2.290531             0.00713040488            0.000509083865           
       2.293171              0.0075623861            0.000510694211           
       2.295812             0.00770645161            0.000513463415           
       2.298452             0.00763412885            0.000534420801           
       2.301092             0.00669528109            0.000465008798           
       2.303733             0.00828249933            0.000538067375           
       2.306373             0.00742805967            0.000517582804           
       2.309014             0.00762680413             0.00051423024           
       2.311654             0.00698588638            0.000513581391           
       2.314294             0.00663931124            0.000461278109           
       2.316935             0.00666355665            0.000464028799           
       2.319575             0.00727739415             0.00050809532           
       2.322215              0.0071979691             0.00052662359           
       2.324856             0.00686954966            0.000473001155           
       2.327496             0.00720360656            0.000515032456           
       2.330137             0.00687675757            0.000481536764           
       2.332777             0.00641455295            0.000479539474           
       2.335417             0.00704956459            0.000487709242           
       2.338058             0.00708585359            0.000503569312           
       2.340698              0.0072198703            0.000504314578           
       2.343339             0.00749659036            0.000525196873           
       2.345979             0.00707580572            0.000482731724           
       2.348619             0.00647424175            0.000478634614           
       2.351260             0.00744235776            0.000510184444           
       2.353900              0.0074449602            0.000508657196           
       2.356540             0.00714153247            0.000497476741           
       2.359181              0.0066325908            0.000472701524           
       2.361821             0.00741740172            0.000482876917           
       2.364462             0.00665203201            0.000478263725           
       2.367102             0.00665679073            0.000491668251           
       2.369742              0.0066018918            0.000515376387           
       2.372383             0.00684003272            0.000475014293           
       2.375023             0.00737735697             0.00051858534           
       2.377663             0.00717457313            0.000488981537           
       2.380304             0.00651122776             0.00047359543           
       2.382944             0.00740858705            0.000481165308           
       2.385585             0.00681960798            0.000492350288           
       2.388225             0.00715167232            0.000501825533           
       2.390865             0.00738813265            0.000504814764           
       2.393506             0.00690458379            0.000478808342           
       2.396146             0.00789450933            0.000553579104           
       2.398787              0.0079789277             0.00051288653           
       2.401427             0.00706921238            0.000465978199           
       2.404067             0.00690919029            0.000470949564           
       2.406708              0.0073671265            0.000480474685           
       2.409348             0.00711916408             0.00050098731           
       2.411988             0.00690079787             0.00048327008           
       2.414629             0.00691086593            0.000498684352           
       2.417269             0.00802086487            0.000543514633           
       2.419910             0.00732711811            0.000520683518           
       2.422550             0.00646787001            0.000468037935           
       2.425190             0.00746285114            0.000529951881           
       2.427831             0.00706694615            0.000512804386           
       2.430471             0.00751030515            0.000503637061           
       2.433112             0.00798028692            0.000505534503           
       2.435752             0.00689156644            0.000497180777           
       2.438392             0.00775215032            0.000508962419           
       2.441033             0.00694446247            0.000510525506           
       2.443673             0.00672386496            0.000502737599           
       2.446313             0.00777958721            0.000541243754           
       2.448954             0.00686095141            0.000483957813           
       2.451594             0.00662103623            0.000511188615           
       2.454235             0.00791071127            0.000524260324           
       2.456875             0.00744112134            0.000532033391           
       2.459515             0.00745040795            0.000546146801           
       2.462156              0.0074585458            0.000515920174           
       2.464796             0.00817456525            0.000533148495           
       2.467436             0.00743803354            0.000525914067           
       2.470077             0.00826916545            0.000525583521           
       2.472717             0.00703588028            0.000486908469           
       2.475358             0.00827662735            0.000533604863           
       2.477998             0.00791247708            0.000512938513           
       2.480638             0.00781164364            0.000518715871           
       2.483279             0.00733099575            0.000525197131           
       2.485919             0.00660063976            0.000480273518           
       2.488560             0.00687679405            0.000488847557           
       2.491200             0.00730759921            0.000518911838           
       2.493840              0.0076691399            0.000562495391           
       2.496481             0.00674010647            0.000518699897           
       2.499121              0.0063753178            0.000490675787           
       2.501761             0.00650376163            0.000502160347           
       2.504402             0.00708274209            0.000516379506           
       2.507042             0.00678954256            0.000501833147           
       2.509683             0.00725775772             0.00051091839           
       2.512323             0.00717435443            0.000533499184           
       2.514963             0.00711947132            0.000524888819           
       2.517604             0.00695345465            0.000538265121           
       2.520244             0.00607186838              0.0004715516           
       2.522884             0.00730031184            0.000524451806           
       2.525525             0.00731377527            0.000530893305           
       2.528165             0.00729869593            0.000522078866           
       2.530806             0.00652657375            0.000502297184           
       2.533446             0.00832006109            0.000555023396           
       2.536086             0.00687483913            0.000500005409           
       2.538727             0.00783616421            0.000512119567           
       2.541367             0.00650701813            0.000471267714           
       2.544008             0.00722960705            0.000513016942           
       2.546648             0.00737925123             0.00052718939           
       2.549288             0.00728184526            0.000534369178           
       2.551929             0.00809143992            0.000554313037           
       2.554569             0.00751016324            0.000514494652           
       2.557209             0.00688743816            0.000497227675           
       2.559850              0.0064941811             0.00048437421           
       2.562490             0.00694199907            0.000517599839           
       2.565131             0.00713792459            0.000544191413           
       2.567771             0.00628594757            0.000492374728           
       2.570411             0.00636766841            0.000490203019           
       2.573052              0.0075404583            0.000540156758           
       2.575692             0.00706893938            0.000519828646           
       2.578332             0.00747788874            0.000536864634           
       2.580973             0.00700945813            0.000514832038           
       2.583613             0.00709952014            0.000505791792           
       2.586254             0.00635743727            0.000477963062           
       2.588894             0.00701770298              0.0005214796           
       2.591534             0.00669755242            0.000527371887           
       2.594175             0.00655220149            0.000511774744           
       2.596815             0.00683431014             0.00052575784           
       2.599456             0.00715905137            0.000510281447           
       2.602096             0.00701072667            0.000508810616           
       2.604736             0.00789183089            0.000552638841           
       2.607377             0.00748757698            0.000524112576           
       2.610017              0.0069249077            0.000495214831           
       2.612657             0.00636846854            0.000505130065           
       2.615298             0.00653037336            0.000499395355           
       2.617938             0.00800855376            0.000591606012           
       2.620579             0.00680308239            0.000523449813           
       2.623219             0.00637262557            0.000505896724           
       2.625859             0.00756011911            0.000535745531           
       2.628500             0.00723004242            0.000520485532           
       2.631140             0.00640377477             0.00049738991           
       2.633780             0.00787063677            0.000550942375           
       2.636421             0.00736043414             0.00054588842           
       2.639061              0.0069967117            0.000501033145           
       2.641702             0.00709981218            0.000516395522           
       2.644342             0.00684787034            0.000509311389           
       2.646982             0.00738218211            0.000520902423           
       2.649623             0.00661411009            0.000516707009           
       2.652263             0.00716631783            0.000532447182           
       2.654904             0.00690662445            0.000523236601           
       2.657544             0.00699559568            0.000495998798           
       2.660184              0.0072438348             0.00053414323           
       2.662825             0.00709276968            0.000540806434           
       2.665465             0.00697339999            0.000518628825           
       2.668105             0.00629862292            0.000519533521           
       2.670746             0.00701824022            0.000506613329           
       2.673386             0.00872102644            0.000582006828           
       2.676027             0.00919884655            0.000588144865           
       2.678667              0.0101377874             0.00060245939           
       2.681307              0.0103303259             0.00059754539           
       2.683948              0.0154725877            0.000751376493           
       2.686588               0.011873626             0.00064729948           
       2.689229              0.0101282189            0.000584177997           
       2.691869              0.0109702478            0.000642570826           
       2.694509             0.00977018754            0.000606740254           
       2.697150              0.0081702676            0.000545840457           
       2.699790             0.00768185125            0.000554867713           
       2.702430             0.00787407955            0.000536981948           
       2.705071             0.00733451859            0.000535521315           
       2.707711             0.00690225157            0.000504214605           
       2.710352             0.00640985263            0.000513410798           
       2.712992             0.00682667709            0.000539637891           
       2.715632             0.00690704075            0.000503615263           
       2.718273             0.00709782686            0.000529088701           
       2.720913             0.00661165197            0.000509194036           
       2.723553             0.00671746433            0.000516696087           
       2.726194             0.00769430613            0.000578056747           
       2.728834             0.00777882559            0.000581495651           
       2.731475             0.00814198999            0.000549054148           
       2.734115             0.00620967251            0.000494376516           
       2.736755             0.00751338003            0.000548278383           
       2.739396             0.00746607199            0.000543382914           
       2.742036             0.00700738087             0.00055093877           
       2.744677             0.00639485955            0.000510665029           
       2.747317             0.00703856493            0.000531930314           
       2.749957             0.00752516107            0.000553869869           
       2.752598              0.0067802246            0.000531446672           
       2.755238             0.00701940084            0.000550500534           
       2.757878             0.00750585044            0.000564278934           
       2.760519             0.00817650181            0.000582704189           
       2.763159             0.00833373967            0.000582401515           
       2.765800             0.00750767105            0.000526794147           
       2.768440             0.00712226041            0.000516874276           
       2.771080             0.00731092313            0.000528046488           
       2.773721              0.0070527676            0.000532018737           
       2.776361             0.00805257092            0.000576321723           
       2.779001              0.0075078258            0.000576298382           
       2.781642             0.00582741067            0.000503982817           
       2.784282             0.00665897179            0.000547601889           
       2.786923             0.00659658788            0.000549829656           
       2.789563              0.0076466994            0.000570144247           
       2.792203             0.00755488553            0.000541370884           
       2.794844             0.00753513284            0.000592557485           
       2.797484             0.00642259714            0.000516297604           
       2.800125             0.00711192854            0.000571278504           
       2.802765             0.00796594275            0.000594205183           
       2.805405             0.00761503822            0.000582936601           
       2.808046             0.00586310501            0.000520496096           
       2.810686             0.00709742894            0.000526216811           
       2.813326             0.00723718322            0.000551949251           
       2.815967             0.00706798018            0.000560967862           
       2.818607              0.0070855521            0.000535982145           
       2.821248             0.00624983689            0.000492931469           
       2.823888             0.00606754578            0.000504158034           
       2.826528             0.00753209618            0.000543995814           
       2.829169             0.00758167667            0.000571677437           
       2.831809             0.00735996576            0.000570918156           
       2.834449             0.00739863968            0.000576033675           
       2.837090              0.0068086749             0.00053371456           
       2.839730             0.00617461088            0.000505774512           
       2.842371             0.00694238778            0.000537072505           
       2.845011              0.0067549964            0.000533997321           
       2.847651             0.00677369398             0.00053539259           
       2.850292              0.0063447044            0.000523246958           
       2.852932             0.00742600473            0.000578417861           
       2.855573             0.00777016103            0.000573935981           
       2.858213             0.00640084312            0.000547024141           
       2.860853             0.00706757906            0.000534704029           
       2.863494             0.00756164352            0.000572634884           
       2.866134             0.00654225306            0.000553612738           
       2.868774             0.00614531456            0.000527323846           
       2.871415             0.00667346955            0.000558076606           
       2.874055             0.00673644082            0.000535962774           
       2.876696             0.00593894004             0.00051685038           
       2.879336             0.00695772922             0.00053918095           
       2.881976             0.00679911026            0.000549752263           
       2.884617              0.0072460477            0.000559198505           
       2.887257             0.00666301459            0.000538997389           
       2.889897              0.0063822704            0.000516663058           
       2.892538             0.00787707635            0.000628805259           
       2.895178             0.00655761842             0.00051832581           
       2.897819             0.00680587177            0.000538657243           
       2.900459             0.00655473465            0.000518342148           
       2.903099             0.00746437638            0.000547478826           
       2.905740             0.00667996075            0.000531313419           
       2.908380             0.00830966708            0.000599325023           
       2.911021             0.00646805518            0.000537355376           
       2.913661             0.00740395927            0.000574746876           
       2.916301             0.00662263359            0.000544093999           
       2.918942             0.00719524577            0.000542472252           
       2.921582              0.0059970817            0.000518174431           
       2.924222             0.00649926934            0.000522607736           
       2.926863             0.00708030621            0.000568168286           
       2.929503             0.00844734724            0.000627951605           
       2.932144             0.00700800737            0.000549043611           
       2.934784              0.0071184018            0.000544277776           
       2.937424             0.00620081978             0.00051320395           
       2.940065             0.00649791434            0.000501138523           
       2.942705             0.00725676811            0.000528928803           
       2.945346             0.00704889306            0.000553229104           
       2.947986              0.0066889284            0.000549510041           
       2.950626             0.00682623887            0.000551996034           
       2.953267              0.0079889459            0.000587510473           
       2.955907             0.00724804389            0.000580512871           
       2.958547             0.00700660878            0.000538829019           
       2.961188             0.00690802141            0.000558180208           
       2.963828             0.00733751402            0.000562720846           
       2.966469             0.00740870721            0.000554698795           
       2.969109             0.00778279304            0.000576954121           
       2.971749             0.00726878628            0.000554098181           
       2.974390             0.00877808543            0.000598369045           
       2.977030             0.00686643755            0.000541045512           
       2.979670             0.00923913083            0.000610462805           
       2.982311             0.00809095077            0.000592095352           
       2.984951             0.00768884842            0.000548963177           
       2.987592             0.00754726865            0.000554779062           
       2.990232             0.00745615794            0.000573471115           
       2.992872             0.00801529123            0.000560065084           
       2.995513             0.00809255548             0.00055056257           
       2.998153              0.0121456918            0.000685821427           
       3.000794              0.0113721377            0.000642786378           
       3.003434              0.0115863736            0.000649792375           
       3.006074              0.0411023886             0.00120671379           
       3.008715               0.114925888             0.00194781673           
       3.011355               0.208188527             0.00252807582           
       3.013995               0.106009837             0.00180890094           
       3.016636              0.0653995665             0.00139128761           
       3.019276               0.133624944             0.00195486954           
       3.021917               0.481122453             0.00356675284           
       3.024557                1.52044291             0.00623390586           
       3.027197                1.17343087              0.0053393096           
       3.029838               0.535730423             0.00365886599           
       3.032478               0.268353449             0.00259219875           
       3.035118              0.0726793036             0.00136712388           
       3.037759              0.0895010992             0.00151515122           
       3.040399                0.11814534             0.00179568373           
       3.043040               0.499583173              0.0037378029           
       3.045680               0.397797858              0.0031381079           
       3.048320              0.0972383104             0.00158526737           
       3.050961               0.106260512             0.00168638024           
       3.053601              0.0871199183             0.00147064971           
       3.056242              0.0653546152             0.00135428073           
       3.058882              0.0599841664             0.00139177299           
       3.061522               0.046496148             0.00120221006           
       3.064163                 0.0575811             0.00132101673           
       3.066803               0.119747122             0.00200558205           
       3.069443               0.114333688             0.00205037374           
       3.072084              0.0406741399             0.00119081705           
       3.074724              0.0406607843             0.00132965236           
       3.077365              0.0795802569             0.00192560182           
       3.080005              0.0117622834            0.000744498138           
       3.082645              0.0127926982            0.000815651411           
       3.085286              0.0125027659            0.000812717391           
       3.087926             0.00947770066            0.000702146692           
       3.090566              0.0108357605            0.000735608254           
       3.093207              0.0106473326            0.000758791718           
       3.095847             0.00838397033            0.000645375103           
       3.098488             0.00733521251            0.000669357613           
       3.101128              0.0107017757            0.000813699071           
       3.103768             0.00982313845            0.000764913938           
       3.106409             0.00971260205            0.000809480977           
       3.109049              0.0093695932            0.000762978501           
       3.111690             0.00820503972            0.000701733271           
       3.114330             0.00849855699             0.00072936731           
       3.116970             0.00998506755            0.000796655585           
       3.119611              0.0112059239            0.000898333697           
       3.122251              0.0193459847             0.00123468138           
       3.124891              0.0348237565             0.00167195234           
       3.127532              0.0250156648             0.00138630952           
       3.130172              0.0149694278             0.00109093036           
       3.132813             0.00937338655            0.000849851797           
       3.135453              0.0077116173            0.000764496472           
       3.138093             0.00648804505            0.000759806102           
       3.140734             0.00719003995            0.000737928217           
       3.143374             0.00744344812            0.000794024463           
       3.146014             0.00784537492            0.000877578717           
       3.148655             0.00685730637            0.000762691074           
       3.151295             0.00615750305            0.000770178457           
       3.153936             0.00594239452            0.000730858594           
       3.156576             0.00690535958            0.000777137619           
       3.159216             0.00635745859            0.000749399489           
       3.161857             0.00680873886            0.000772385073           
       3.164497             0.00685128676            0.000814085911           
       3.167138             0.00826734842            0.000923996238           
       3.169778             0.00646967344            0.000803908196           
       3.172418             0.00574899367             0.00075010333           
       3.175059             0.00583773918            0.000670111391           
       3.177699             0.00654578762             0.00075140964           
       3.180339             0.00742579988            0.000857488242           
       3.182980             0.00623291505            0.000812231848           
       3.185620             0.00615497169            0.000822000674           
       3.188261             0.00566927024            0.000802979634           
       3.190901             0.00673941429            0.000805198261           
       3.193541             0.00531252293            0.000751182062           
       3.196182             0.00565391769            0.000807601364           
       3.198822             0.00494833394            0.000755783392           
       3.201463             0.00489806426            0.000738979847           
       3.204103             0.00826184286            0.000953912305           
       3.206743             0.00528514816            0.000762882766           
       3.209384             0.00578984321            0.000862686641           
       3.212024             0.00524406175            0.000765447847           
       3.214664             0.00751167518             0.00104175355           
       3.217305             0.00614023901            0.000895308909           
       3.219945             0.00373211237            0.000718425802           
       3.222586             0.00626671279            0.000886710539           
       3.225226             0.00680325816             0.00102491248           
       3.227866             0.00516101916            0.000815900995           
       3.230507             0.00637586048            0.000940057008           
       3.233147             0.00620092463            0.000934557007           
       3.235787             0.00602914917            0.000943062359           
       3.238428             0.00652963737             0.00105908131           
       3.241068             0.00556974706            0.000914612642           
       3.243709             0.00464155619            0.000862617742           
       3.246349             0.00625180071            0.000912620535           
       3.248989             0.00481858309            0.000946052747           
       3.251630             0.00498697813            0.000926805052           
       3.254270             0.00466514508            0.000801139251           
       3.256911             0.00655105916             0.00103585775           
       3.259551             0.00493356471            0.000967775859           
       3.262191             0.00574384749             0.00106662794           
       3.264832             0.00798984021             0.00131442126           
       3.267472              0.0060703424             0.00107479278           
       3.270112             0.00485900304             0.00106268388           
       3.272753             0.00448279411            0.000934285671           
       3.275393               0.005884145              0.0010921831           
       3.278034             0.00464233577            0.000970658547           
       3.280674             0.00404803918            0.000983571359           
       3.283314             0.00361897298            0.000831736585           
       3.285955             0.00635381771             0.00113709774           
       3.288595             0.00908861324             0.00151301721           
       3.291235             0.00798491947             0.00145787346           
       3.293876             0.00435972341             0.00109272376           
       3.296516             0.00830457554             0.00144784149           
       3.299157             0.00640126155             0.00125517285           
       3.301797             0.00737425098              0.0015367222           
       3.304437               0.005755743             0.00117624011           
       3.307078             0.00784997943             0.00151317214           
       3.309718             0.00342807743             0.00103213068           
       3.312359              0.0062311776             0.00139186654           
       3.314999             0.00570354333             0.00131110275           
       3.317639             0.00414408939             0.00106882865           
       3.320280             0.00591330362             0.00135745734           
       3.322920             0.00516217451              0.0012896629           
       3.325560              0.0041655637             0.00115928897           
       3.328201             0.00600674907             0.00125376575           
       3.330841             0.00541646906             0.00144899764           
       3.333482              0.0055392086             0.00138506676           
       3.336122             0.00379296246             0.00114666276           
       3.338762             0.00552908167              0.0015992382           
       3.341403             0.00415056467             0.00132400346           
       3.344043             0.00538451637              0.0014478295           
       3.346683             0.00567130513             0.00151696877           
       3.349324             0.00408906264             0.00144823966           
       3.351964               0.004537493             0.00161324972           
       3.354605             0.00300579016             0.00150164458           
       3.357245             0.00854709982             0.00228430963           
       3.359885             0.00272998742             0.00103326443           
       3.362526             0.00423974006             0.00161027112           
       3.365166             0.00271390586             0.00121514362           
       3.367807              0.0115881616             0.00321350142           
       3.370447             0.00675943111             0.00203586943           
       3.373087             0.00629379874             0.00210077011           
       3.375728             0.00445416015             0.00199454687           
       3.378368           -2.62747679e-05                         0           
       3.381008             0.00216985169             0.00154036767           
       3.383649             0.00281072252             0.00140638043           
       3.386289             0.00685980655               0.002600341           
       3.388930             0.00990381783             0.00494218509           
       3.391570             0.00616770293             0.00275893771           
       3.394210             0.00197521476             0.00197586515           
       3.396851             0.00979019781             0.00492061822           
       3.399491              0.0121893091             0.00549206378           
       3.402131               0.004891456             0.00492222647           
       3.404772           -2.64746976e-05                         0           
       3.407412                       nan                       nan           
       3.410053            -2.6539905e-05                         0           
       3.412693                       nan                       nan           
       3.415333           -2.65906222e-05                         0           
