################################################################################
# EDF_DataBlockID                     0.Image.Psd
# EDF_BinarySize                      2105344
# EDF_HeaderSize                      2560
# ByteOrder                           LowByteFirst
# DataType                            FloatValue
# Dim_1                               512
# Dim_2                               1028
# Image                               0
# HeaderID                            EH:000000:000000:000000
# Size                                2105344
# Center_1                            304.9000
# Center_2                            588.7000
# Comment                             Xenocs_Cell_Window - 20251028_20perc_iodine_1.23mg
# DDummy                              0.6
# Date                                2025-10-31T03:24:52
# Delta                               21.910000
# Dummy                               -1.5
# ExposureTime                        360
# Gamma                               15.360000
# Intensity1                          8.57603e-10
# PSize_1                             7.5e-05
# PSize_2                             7.5e-05
# Pressure                            0.0328121
# SampleDistance                      0.115750
# SampleEnvKind                       large
# SampleEnvPN                         ElectroChemical cell
# SampleEnvSN                         1141
# Thickness                           0
# Wavelength                          1.541891e-10
# Wavelength                          1.54189e-10
# aux                                 0
# aux_dial                            0.002375
# beamx                               588.434
# beamx_dial                          588.434
# beamz                               657.808
# beamz_dial                          657.808
# det0x                               0
# det0x_dial                          6.36945
# det0xvd                             0
# det0xvd_dial                        0
# det0y                               450.002
# det0y_dial                          481.635
# det0z                               0
# det0z_dial                          1.23302
# det0zvd                             0
# det0zvd_dial                        0
# mag                                 1.818
# mag_dial                            1.818
# om                                  0.2499
# om_dial                             -0.610199
# phi                                 -0.0120535
# phi_dial                            0
# ry                                  0.599993
# ry_dial                             0.599993
# s1bot                               0.8
# s1bot_dial                          -1.66094
# s1hl                                0.8
# s1hl_dial                           -0.608437
# s1hr                                0.8
# s1hr_dial                           0.970938
# s1top                               0.8
# s1top_dial                          -0.461562
# s2bot                               0.45
# s2bot_dial                          1.36109
# s2hl                                0.45
# s2hl_dial                           -0.83375
# s2hr                                0.45
# s2hr_dial                           -0.118594
# s2top                               0.45
# s2top_dial                          1.44734
# w2theta                             32
# w2theta_dial                        32
# waxsch                              19.2605
# waxsch_dial                         -32.7355
# waxsh                               137.085
# waxsh_dial                          -43.5338
# waxsth                              26.0607
# waxsth_dial                         -19.4086
# waxsz                               67.0407
# waxsz_dial                          -23.7954
# wind                                65.9854
# wind_dial                           66.0041
# wpsi                                124
# wpsi_dial                           124
# wstod                               115
# wstod_dial                          115
# x                                   0
# x_dial                              1.00969
# z                                   0
# z_dial                              13.3172
# CountCutoff                         6807993
# DetectorModel                       Dectris EIGER2 Si 500K, S/N E-01-0554
# ThresholdSetting                    4023.88989258
# Saturation                          0
# FlatField                           Corrected
# BackgroundReductionExtra            0.02
# BackgroundCorrectionConstant        0.0026712
# Detector                            0
# Monitor                             0
# Pil_Roi0                            0
# SumForIntensity1                    3.08737e+08
# TransmittedFlux                     857603
# det                                 0
# mon                                 0
# pilai0                              3.08737e+08
# pilai1                              776593
# pilct0                              5.34576e+08
# pilct1                              776593
# pilroi0                             0
# pilroi1                             0
# sec                                 1
# title                               20251028_20perc_iodine_1.23mg_1_00555.edf
# usaxs0                              0
# Operation                           Azimuthal average I(q)
# Error_model                         ErrorModel.poisson
# Geometrical_correction              True
# Transmission_correction             True
# Thickness_correction                False
# Binning mode                        Uniform
# Binning factor                      1.0
# Psi                                 0.0
# Omega                               0.2499
# MaskInvalidPixels                   True
# DetectorEdge                        3
# MaskFiles                           ['WAXS_corrected.edf']
################################################################################
    q(A⁻¹)                Intensity(a.u.)            Sigma_I(a.u.)            
       0.693100             0.00411385723               0.004269682           
       0.695741             0.00843633507             0.00498948305           
       0.698381           -2.36548072e-05                         0           
       0.701021               0.017602538              0.0124804811           
       0.703662             0.00571421802             0.00410451219           
       0.706302              0.0103207505             0.00427066927           
       0.708942             0.00568570462              0.0040912263           
       0.711583           -2.35863484e-05                         0           
       0.714223              0.0116892673             0.00586463131           
       0.716864             0.00748785069             0.00307111756           
       0.719504             0.00879304324                0.00359133           
       0.722144             0.00498664371             0.00250459031           
       0.724785             0.00638026868             0.00225986978           
       0.727425             0.00728519731             0.00326681572           
       0.730065              0.0101139933             0.00272274223           
       0.732706             0.00975820877             0.00224584092           
       0.735346             0.00785449666             0.00262649895           
       0.737987             0.00656647863             0.00169699823           
       0.740627             0.00679382162             0.00257548293           
       0.743267             0.00345195925             0.00122963607           
       0.745908             0.00673509474             0.00186347832           
       0.748548              0.0100743499             0.00210075516           
       0.751189             0.00476595105             0.00194696543           
       0.753829             0.00334108778             0.00149848534           
       0.756469             0.00647967145             0.00168274534           
       0.759110             0.00867240064                0.00205155           
       0.761750              0.0068192223             0.00160857208           
       0.764390             0.00536802109             0.00149377668           
       0.767031             0.00710313133             0.00148799904           
       0.769671              0.0102186628             0.00222632931           
       0.772312             0.00532276665             0.00122324214           
       0.774952             0.00768451592             0.00198477689           
       0.777592             0.00843351104             0.00151448451           
       0.780233             0.00708176683             0.00167438456           
       0.782873             0.00541751315             0.00140064158           
       0.785513              0.0074543654             0.00175645142           
       0.788154              0.0074673698             0.00147061335           
       0.790794             0.00743672476             0.00175454521           
       0.793435             0.00631968671             0.00145302037           
       0.796075              0.0080823569              0.0015829205           
       0.798715             0.00688106115             0.00172595927           
       0.801356             0.00606386111             0.00139448347           
       0.803996             0.00766110569             0.00159800154           
       0.806637             0.00778767852             0.00128217615           
       0.809277             0.00520571329             0.00113465842           
       0.811917             0.00453537577            0.000990077759           
       0.814558             0.00581421671              0.0011650864           
       0.817198             0.00695518841             0.00121063162           
       0.819838             0.00495681262             0.00103435836           
       0.822479             0.00505415232             0.00122648725           
       0.825119              0.0057822694             0.00111655921           
       0.827760             0.00683527203             0.00122971179           
       0.830400             0.00601904569             0.00108608661           
       0.833040             0.00556287304             0.00109391575           
       0.835681             0.00832017716             0.00152088254           
       0.838321             0.00704314412             0.00117448208           
       0.840961             0.00554685898             0.00113561902           
       0.843602             0.00723304584             0.00118920955           
       0.846242             0.00563435574             0.00104943399           
       0.848883             0.00594200024             0.00110287452           
       0.851523             0.00699524777             0.00118176954           
       0.854163             0.00810621105             0.00135288028           
       0.856804             0.00584503198              0.0010329274           
       0.859444             0.00735544359             0.00113532769           
       0.862085             0.00799790683             0.00123389157           
       0.864725              0.0069882979             0.00118037114           
       0.867365             0.00753816676             0.00113679367           
       0.870006             0.00747719536             0.00107888716           
       0.872646             0.00650526518             0.00105527322           
       0.875286             0.00567713678            0.000948418683           
       0.877927             0.00660658341            0.000987256981           
       0.880567              0.0082538312             0.00114324106           
       0.883208             0.00806837283             0.00111967547           
       0.885848             0.00629270904             0.00102669453           
       0.888488             0.00588710121            0.000931424019           
       0.891129               0.005718685            0.000942598954           
       0.893769             0.00883171661             0.00112105048           
       0.896410             0.00826402538             0.00101106154           
       0.899050             0.00747867676             0.00105774136           
       0.901690             0.00868512131             0.00124164886           
       0.904331               0.006413676            0.000945954111           
       0.906971             0.00631580355            0.000998631489           
       0.909611             0.00679611148            0.000943007859           
       0.912252             0.00809468854             0.00106301967           
       0.914892             0.00650636836             0.00104146818           
       0.917533             0.00713310754             0.00103158621           
       0.920173              0.0084626683             0.00104249927           
       0.922813             0.00676665627            0.000978239019           
       0.925454             0.00767107587            0.000937899903           
       0.928094             0.00572528931            0.000865026191           
       0.930734             0.00773044507             0.00108215989           
       0.933375             0.00829776786             0.00111014399           
       0.936015             0.00658844957            0.000898417946           
       0.938656             0.00591974077             0.00091357083           
       0.941296             0.00728683321            0.000918587365           
       0.943936             0.00868228016            0.000983295833           
       0.946577             0.00689833336            0.000870680194           
       0.949217             0.00844777539            0.000886037951           
       0.951858              0.0073258121            0.000863719891           
       0.954498             0.00779563481             0.00103130032           
       0.957138             0.00744017602            0.000954481451           
       0.959779             0.00630376048            0.000866088187           
       0.962419              0.0071479421            0.000916124173           
       0.965059             0.00676765041            0.000937541496           
       0.967700              0.0078668906             0.00103527853           
       0.970340             0.00714562135            0.000873112793           
       0.972981              0.0093633948            0.000910607317           
       0.975621             0.00691549243            0.000832525055           
       0.978261             0.00794984442            0.000848142961           
       0.980902             0.00814193715             0.00102694744           
       0.983542             0.00710749551            0.000849695206           
       0.986182               0.008335705            0.000903433832           
       0.988823             0.00731638161            0.000821851518           
       0.991463              0.0084011492            0.000939585889           
       0.994104             0.00798191283             0.00089341812           
       0.996744             0.00760924071             0.00088975143           
       0.999384             0.00708019632            0.000767574746           
       1.002025             0.00684694765            0.000842484918           
       1.004665             0.00814723661            0.000839858646           
       1.007306             0.00856073412             0.00085650099           
       1.009946              0.0078473906               0.000836326           
       1.012586             0.00853191265             0.00084931513           
       1.015227             0.00771048832            0.000867396091           
       1.017867             0.00793942161            0.000845912787           
       1.020507             0.00753099335            0.000798027485           
       1.023148             0.00865395577            0.000923063339           
       1.025788             0.00786435649            0.000806840614           
       1.028429             0.00729264636            0.000813993515           
       1.031069               0.008540092            0.000828928376           
       1.033709             0.00832968319            0.000870230389           
       1.036350             0.00784830012            0.000758665354           
       1.038990             0.00852730482            0.000805335166           
       1.041630             0.00927778173            0.000876155843           
       1.044271             0.00767576418            0.000749483584           
       1.046911              0.0064027956            0.000720025729           
       1.049552             0.00823630373            0.000857981415           
       1.052192             0.00874268853            0.000807170494           
       1.054832             0.00835407003              0.0007962046           
       1.057473             0.00804483391            0.000770225832           
       1.060113              0.0084168789            0.000768353014           
       1.062754             0.00878202219            0.000801310377           
       1.065394             0.00931239717             0.00087239955           
       1.068034             0.00832017447            0.000750286014           
       1.070675             0.00715552304            0.000725799709           
       1.073315             0.00840825442            0.000798049568           
       1.075955             0.00797500635             0.00073373757           
       1.078596             0.00745685203            0.000754058787           
       1.081236             0.00893330858            0.000790318218           
       1.083877             0.00851899984            0.000764850677           
       1.086517             0.00883676038            0.000835299492           
       1.089157             0.00713754565             0.00077894201           
       1.091798              0.0082796675            0.000735523065           
       1.094438             0.00856178348            0.000745534917           
       1.097078             0.00858200136            0.000715889975           
       1.099719             0.00964282024            0.000820808684           
       1.102359             0.00834691952            0.000715181626           
       1.105000             0.00766156648            0.000766177726           
       1.107640              0.0100776888            0.000840200553           
       1.110280             0.00879163897            0.000716034564           
       1.112921             0.00935332545            0.000793366384           
       1.115561             0.00925033025            0.000749865297           
       1.118202              0.0084089695             0.00071562426           
       1.120842             0.00915127481            0.000784620871           
       1.123482             0.00853379884            0.000754378444           
       1.126123             0.00882476436            0.000735807321           
       1.128763             0.00976517379            0.000779327558           
       1.131403             0.00876423612            0.000711422183           
       1.134044             0.00898561875            0.000741243273           
       1.136684             0.00953665374            0.000814165357           
       1.139325             0.00842854797            0.000705089735           
       1.141965             0.00793636755            0.000688716549           
       1.144605             0.00939433854            0.000714471287           
       1.147246             0.00830566262            0.000687527322           
       1.149886              0.0072901993            0.000641841885           
       1.152527             0.00906870383            0.000726274832           
       1.155167             0.00857135421             0.00067158838           
       1.157807             0.00985742977            0.000772195482           
       1.160448             0.00912251509            0.000725414679           
       1.163088              0.0102267586            0.000732621108           
       1.165728              0.0084623312            0.000684237688           
       1.168369              0.0087633522            0.000702733993           
       1.171009             0.00975232111            0.000719437756           
       1.173650             0.00854455889            0.000691086371           
       1.176290             0.00987013994             0.00072584423           
       1.178930              0.0104674851            0.000732604142           
       1.181571              0.0104107992            0.000745106181           
       1.184211               0.008419966            0.000672463012           
       1.186851              0.0098093952            0.000709632606           
       1.189492              0.0095264867            0.000694619917           
       1.192132             0.00933872785             0.00068002421           
       1.194773             0.00965663168            0.000694523204           
       1.197413             0.00939555357            0.000656394299           
       1.200053             0.00892747183            0.000656092026           
       1.202694             0.00909495725            0.000629731228           
       1.205334              0.0113373535            0.000757710651           
       1.207975             0.00966574259             0.00066781155           
       1.210615             0.00915870072            0.000717126307           
       1.213255             0.00878225043            0.000628834058           
       1.215896             0.00992248015            0.000680521428           
       1.218536             0.00969714023            0.000646877643           
       1.221176              0.0100518399            0.000716035567           
       1.223817              0.0104596676            0.000685654646           
       1.226457              0.0101461437            0.000688905158           
       1.229098             0.00884777895            0.000643287193           
       1.231738             0.00907119482            0.000654564154           
       1.234378              0.0101610566            0.000650962037           
       1.237019             0.00978142583            0.000658159745           
       1.239659              0.0103101893            0.000669828828           
       1.242299             0.00883539275             0.00061219577           
       1.244940             0.00989835244            0.000630197185           
       1.247580              0.0103616646            0.000664495776           
       1.250221              0.0104153191            0.000662103208           
       1.252861             0.00968185471             0.00060772601           
       1.255501              0.0113525524             0.00071454352           
       1.258142              0.0107079562            0.000652101099           
       1.260782             0.00882922073            0.000604950093           
       1.263423              0.0114855577            0.000662989537           
       1.266063             0.00988526015            0.000630429321           
       1.268703             0.00963544938            0.000617247734           
       1.271344              0.0110670955            0.000683935247           
       1.273984             0.00969413749            0.000618217326           
       1.276624              0.0110868068            0.000648714081           
       1.279265                0.01038759            0.000638352252           
       1.281905             0.00952365218            0.000613942867           
       1.284546              0.0104260692             0.00062091064           
       1.287186             0.00970852484            0.000587843072           
       1.289826              0.0106696648            0.000649481882           
       1.292467              0.0105793905            0.000632483739           
       1.295107              0.0114488742            0.000651425501           
       1.297747              0.0118065906            0.000633023541           
       1.300388              0.0111124598            0.000669482924           
       1.303028              0.0102854539            0.000614886374           
       1.305669              0.0103613346            0.000631845278           
       1.308309              0.0103452356            0.000625136861           
       1.310949              0.0102736226            0.000622343342           
       1.313590              0.0101048012            0.000597915578           
       1.316230              0.0115544582            0.000682294246           
       1.318871              0.0108049078            0.000646185851           
       1.321511             0.00993414677            0.000608116648           
       1.324151               0.010430316            0.000604644903           
       1.326792              0.0111096328            0.000627882287           
       1.329432              0.0116612672            0.000638742269           
       1.332072              0.0109561201            0.000609902126           
       1.334713              0.0106422415            0.000620397114           
       1.337353              0.0109851024            0.000604481352           
       1.339994              0.0101959283            0.000611132608           
       1.342634              0.0115095935            0.000622647473           
       1.345274              0.0113189821            0.000639023511           
       1.347915              0.0114272205            0.000624340865           
       1.350555              0.0110249154            0.000623992569           
       1.353195              0.0102386802            0.000604284685           
       1.355836              0.0116781969              0.0006353048           
       1.358476              0.0100606293             0.00057265617           
       1.361117              0.0109850175              0.0005992078           
       1.363757              0.0109522515            0.000616582709           
       1.366397              0.0109017356            0.000596543653           
       1.369038              0.0113219272            0.000613984723           
       1.371678              0.0104892548            0.000585765735           
       1.374319              0.0116650129            0.000612404561           
       1.376959             0.00997415039            0.000560588457           
       1.379599              0.0102171567            0.000608055622           
       1.382240              0.0113735557            0.000602955003           
       1.384880              0.0101394576            0.000603022157           
       1.387520              0.0107188988            0.000588845744           
       1.390161              0.0115476691            0.000580480175           
       1.392801              0.0113586642            0.000599834131           
       1.395442              0.0110742288            0.000600365347           
       1.398082              0.0112692806            0.000567145567           
       1.400722               0.010522372            0.000574047438           
       1.403363             0.00973955719            0.000581343471           
       1.406003              0.0114498904            0.000589898621           
       1.408644              0.0106954175            0.000597250575           
       1.411284              0.0108907066            0.000570683116           
       1.413924              0.0120061897            0.000596975571           
       1.416565              0.0109958687            0.000569061774           
       1.419205               0.011852067            0.000616300379           
       1.421845              0.0115759921            0.000608722582           
       1.424486              0.0116480407            0.000586940391           
       1.427126              0.0112990609            0.000600514417           
       1.429767               0.010123187            0.000534803711           
       1.432407              0.0107596917            0.000577011704           
       1.435047              0.0113801521            0.000557315465           
       1.437688              0.0112508344             0.00056242527           
       1.440328              0.0104740916            0.000553849055           
       1.442968              0.0115283106            0.000594072262           
       1.445609              0.0110629867            0.000563498019           
       1.448249              0.0111991099            0.000581309066           
       1.450890              0.0113500777            0.000581394402           
       1.453530              0.0119251106            0.000623473247           
       1.456170              0.0112567108            0.000587893158           
       1.458811              0.0095391013            0.000517493357           
       1.461451              0.0101136843            0.000534248752           
       1.464092              0.0111113646            0.000563641051           
       1.466732              0.0114466927            0.000567166799           
       1.469372              0.0109562561            0.000541897603           
       1.472013              0.0109426084            0.000584083272           
       1.474653              0.0109367532            0.000574919169           
       1.477293              0.0111864738             0.00059370067           
       1.479934              0.0111057531            0.000564466806           
       1.482574              0.0108950785            0.000540829556           
       1.485215              0.0112779309            0.000560498402           
       1.487855              0.0110957231            0.000563286148           
       1.490495              0.0115435041             0.00057242379           
       1.493136              0.0105494336            0.000539721128           
       1.495776              0.0106592666            0.000540053156           
       1.498416              0.0120549732             0.00059311289           
       1.501057               0.010789972            0.000548764674           
       1.503697              0.0109603196            0.000540723475           
       1.506338              0.0110215065            0.000552139144           
       1.508978              0.0107588634            0.000540155911           
       1.511618              0.0108439067            0.000577532516           
       1.514259              0.0100904475            0.000537860899           
       1.516899              0.0111504124            0.000550517778           
       1.519540              0.0108637306            0.000552157317           
       1.522180             0.00992920685            0.000532511528           
       1.524820              0.0104933466            0.000544358848           
       1.527461               0.010123223             0.00053731661           
       1.530101              0.0107387675            0.000547876671           
       1.532741              0.0100274541            0.000526348285           
       1.535382              0.0106812266            0.000551981299           
       1.538022             0.00998180746            0.000502682426           
       1.540663              0.0103699738            0.000551078273           
       1.543303              0.0107265244            0.000520407456           
       1.545943               0.010322065            0.000540328479           
       1.548584              0.0109282475            0.000565948009           
       1.551224              0.0106503054            0.000516575273           
       1.553864              0.0119329072            0.000577792662           
       1.556505             0.00905365398            0.000486182813           
       1.559145              0.0106955858             0.00053490627           
       1.561786              0.0113577614            0.000551640465           
       1.564426             0.00969416929            0.000493789841           
       1.567066             0.00977552493            0.000519563465           
       1.569707             0.00946387543             0.00050203137           
       1.572347              0.0100334249            0.000534027105           
       1.574988              0.0106884685            0.000524634556           
       1.577628             0.00979257636            0.000523635719           
       1.580268             0.00950200917            0.000499763512           
       1.582909             0.00959618079            0.000532347973           
       1.585549             0.00900955419             0.00050084458           
       1.588189              0.0090471131            0.000490933567           
       1.590830             0.00923683259            0.000495431739           
       1.593470             0.00886792015            0.000504658657           
       1.596111             0.00979506901            0.000517819761           
       1.598751              0.0106229802            0.000522524683           
       1.601391             0.00875095436            0.000484717721           
       1.604032              0.0102098082            0.000534509441           
       1.606672             0.00930697502            0.000495833773           
       1.609312             0.00911596791             0.00051225366           
       1.611953             0.00961496908            0.000514808986           
       1.614593             0.00925947902            0.000495563594           
       1.617234              0.0087178381            0.000498342784           
       1.619874             0.00951568766            0.000518590901           
       1.622514             0.00972969011            0.000517236436           
       1.625155             0.00903857983            0.000501473225           
       1.627795             0.00858231642            0.000476679404           
       1.630436             0.00949956912            0.000498887241           
       1.633076             0.00967743614            0.000510140164           
       1.635716               0.009150796            0.000488346888           
       1.638357             0.00893836164             0.00048391733           
       1.640997               0.009420914            0.000511857504           
       1.643637             0.00900546929            0.000486988691           
       1.646278             0.00860204661            0.000490910348           
       1.648918              0.0093371041            0.000512850173           
       1.651559             0.00817384436            0.000483565537           
       1.654199             0.00897132996            0.000492719114           
       1.656839             0.00926364624            0.000500856768           
       1.659480              0.0081715341            0.000488072324           
       1.662120              0.0091593182            0.000486674849           
       1.664761              0.0084896708            0.000486698937           
       1.667401              0.0088171792            0.000474067757           
       1.670041             0.00890410825            0.000483662964           
       1.672682             0.00903774159            0.000485276068           
       1.675322             0.00838743358            0.000464485029           
       1.677962             0.00853115124            0.000463279996           
       1.680603             0.00853534538            0.000464819841           
       1.683243              0.0087049985            0.000489748694           
       1.685884              0.0079016235            0.000470048236           
       1.688524             0.00944446604            0.000503959684           
       1.691164             0.00811632461            0.000467288783           
       1.693805             0.00846783734            0.000482543853           
       1.696445             0.00934281658            0.000509801825           
       1.699085             0.00988315542            0.000506767201           
       1.701726             0.00838412933            0.000449637678           
       1.704366             0.00897331649            0.000490042158           
       1.707007             0.00900695367            0.000480015756           
       1.709647              0.0082428931            0.000464390578           
       1.712287             0.00908543614            0.000491790692           
       1.714928             0.00803981774             0.00046635648           
       1.717568             0.00881262462            0.000459939048           
       1.720209             0.00895885674            0.000485734795           
       1.722849             0.00835090634            0.000466553245           
       1.725489             0.00934779744            0.000494030287           
       1.728130             0.00862614149            0.000504342977           
       1.730770             0.00834411958            0.000471095195           
       1.733410             0.00824089441            0.000460812953           
       1.736051              0.0090176178            0.000485395596           
       1.738691             0.00939531972            0.000485413146           
       1.741332             0.00847909454            0.000474621517           
       1.743972             0.00794005636            0.000474292177           
       1.746612             0.00911991391            0.000488108179           
       1.749253             0.00945540275            0.000506820017           
       1.751893             0.00873024636            0.000483423141           
       1.754533             0.00906086892            0.000492031991           
       1.757174             0.00874576118            0.000478873844           
       1.759814             0.00847783961            0.000464335023           
       1.762455             0.00819769913             0.00046498299           
       1.765095             0.00888034243            0.000462962813           
       1.767735             0.00949372403            0.000493452123           
       1.770376             0.00832207216            0.000463218475           
       1.773016             0.00820229215            0.000456792476           
       1.775657             0.00785503699            0.000440586458           
       1.778297             0.00786636437            0.000437107451           
       1.780937             0.00918156711            0.000498445495           
       1.783578             0.00797616265            0.000452959109           
       1.786218             0.00831137772            0.000482543525           
       1.788858             0.00866137902            0.000467850167           
       1.791499             0.00933082664            0.000480140347           
       1.794139             0.00901329805             0.00046807142           
       1.796780             0.00864016944            0.000456071183           
       1.799420             0.00894542235            0.000461487803           
       1.802060             0.00897066531            0.000465871308           
       1.804701             0.00953510861            0.000460921846           
       1.807341             0.00897671069            0.000469932966           
       1.809981             0.00861061956            0.000461785238           
       1.812622             0.00893794183            0.000462010303           
       1.815262              0.0088834889            0.000470385014           
       1.817903             0.00918856424            0.000471305479           
       1.820543              0.0088800747            0.000470545987           
       1.823183             0.00891077365            0.000471099509           
       1.825824             0.00947176997            0.000464020684           
       1.828464             0.00846645295             0.00045736886           
       1.831105             0.00798028917            0.000431766288           
       1.833745             0.00899099945             0.00046808094           
       1.836385             0.00844809764            0.000466677608           
       1.839026             0.00867683704            0.000471458986           
       1.841666             0.00886237687             0.00047478347           
       1.844306             0.00816377855            0.000443252798           
       1.846947             0.00786611166            0.000438910786           
       1.849587             0.00823622409            0.000495934937           
       1.852228              0.0085149846            0.000455973944           
       1.854868             0.00849715182            0.000481164395           
       1.857508             0.00773695912            0.000454633468           
       1.860149             0.00853277476            0.000486117304           
       1.862789             0.00821459742            0.000460384254           
       1.865429             0.00775169249            0.000466833952           
       1.868070             0.00807032508            0.000469983247           
       1.870710             0.00800468981            0.000457277061           
       1.873351              0.0080430113            0.000464036837           
       1.875991             0.00875487631            0.000492038048           
       1.878631             0.00927614364            0.000496774198           
       1.881272             0.00799705953            0.000458163803           
       1.883912             0.00926347117            0.000513182525           
       1.886553             0.00816676119            0.000476460768           
       1.889193             0.00831327754            0.000479894375           
       1.891833             0.00841582064            0.000501453382           
       1.894474             0.00852138083            0.000500194005           
       1.897114             0.00852898299            0.000484243157           
       1.899754             0.00795983653            0.000469764587           
       1.902395             0.00775412005             0.00045458948           
       1.905035             0.00850646362            0.000504303908           
       1.907676             0.00864211631            0.000479082799           
       1.910316             0.00844381362            0.000486128042           
       1.912956             0.00843148306            0.000475085899           
       1.915597             0.00808451181            0.000467807855           
       1.918237             0.00845378498            0.000494042399           
       1.920878             0.00826934683             0.00048662311           
       1.923518             0.00837000381            0.000489783538           
       1.926158             0.00795240911            0.000471214032           
       1.928799             0.00817590122            0.000472259034           
       1.931439             0.00827816953            0.000487667584           
       1.934079             0.00820649771            0.000506175909           
       1.936720             0.00742134038            0.000445987576           
       1.939360             0.00817096171            0.000499258917           
       1.942001             0.00816848262            0.000457526954           
       1.944641             0.00852564948            0.000476629798           
       1.947281             0.00842643621            0.000469480708           
       1.949922             0.00816969733             0.00047748738           
       1.952562             0.00800939293            0.000487599154           
       1.955202             0.00786953502            0.000482734087           
       1.957843             0.00833105902            0.000483807303           
       1.960483             0.00784825004            0.000490944286           
       1.963124             0.00844974469            0.000498959378           
       1.965764             0.00809452446             0.00046053608           
       1.968404             0.00726965867            0.000432316797           
       1.971045             0.00897445153             0.00048973223           
       1.973685              0.0076802319             0.00047521099           
       1.976326             0.00771772132            0.000469822307           
       1.978966             0.00812584398            0.000486315378           
       1.981606             0.00767850845            0.000482599125           
       1.984247             0.00852801556            0.000505251238           
       1.986887             0.00783108563            0.000478366357           
       1.989527             0.00710972077            0.000450892969           
       1.992168             0.00769282443            0.000486646588           
       1.994808             0.00753347996            0.000479515832           
       1.997449             0.00769064659            0.000474542161           
       2.000089             0.00708057024            0.000453526049           
       2.002729              0.0079942537            0.000482189087           
       2.005370             0.00763045417            0.000466020918           
       2.008010             0.00837586767            0.000509562228           
       2.010650             0.00947147273            0.000545908283           
       2.013291             0.00790189956            0.000478405986           
       2.015931             0.00769693156            0.000468822862           
       2.018572             0.00857827215            0.000529381874           
       2.021212             0.00631326032             0.00044598701           
       2.023852              0.0080385192            0.000476301984           
       2.026493             0.00689904453            0.000460968502           
       2.029133             0.00770821925            0.000477446717           
       2.031774             0.00716899306            0.000483225906           
       2.034414             0.00737431139            0.000450957137           
       2.037054             0.00768838872             0.00047213146           
       2.039695             0.00828674753            0.000486457431           
       2.042335             0.00746172532            0.000479711045           
       2.044975             0.00803402253            0.000491731027           
       2.047616             0.00685472503            0.000453081105           
       2.050256             0.00802549214            0.000494888562           
       2.052897             0.00750035495            0.000487243496           
       2.055537             0.00741771642            0.000468300941           
       2.058177             0.00725509421            0.000453538063           
       2.060818             0.00811441776            0.000502466413           
       2.063458             0.00668244114            0.000475176599           
       2.066098             0.00738647462            0.000471272415           
       2.068739             0.00886554292            0.000524330139           
       2.071379             0.00786391516            0.000506702354           
       2.074020             0.00739750565             0.00048076591           
       2.076660             0.00698743219            0.000471027776           
       2.079300             0.00772521884            0.000507406381           
       2.081941             0.00793932019            0.000470982286           
       2.084581             0.00755465941            0.000484933976           
       2.087222             0.00771807613             0.00047270358           
       2.089862             0.00854653458            0.000541773947           
       2.092502             0.00756027087            0.000493941625           
       2.095143             0.00781968479            0.000518745733           
       2.097783             0.00723085134              0.0004829537           
       2.100423             0.00774823296            0.000481731809           
       2.103064             0.00721625215             0.00048239655           
       2.105704             0.00743791223            0.000487323495           
       2.108345             0.00728031259             0.00046320087           
       2.110985             0.00810930694            0.000522139923           
       2.113625             0.00725098958            0.000498043276           
       2.116266             0.00789113403            0.000526934294           
       2.118906             0.00785446009            0.000489930784           
       2.121546             0.00796511682            0.000483949933           
       2.124187             0.00647301099            0.000457951061           
       2.126827             0.00622188097             0.00045399069           
       2.129468             0.00692112221             0.00048004536           
       2.132108             0.00794483067            0.000500397594           
       2.134748              0.0089059422            0.000527745551           
       2.137389             0.00738025322            0.000501196466           
       2.140029             0.00787160918            0.000463397634           
       2.142670             0.00800988004            0.000499573763           
       2.145310              0.0075843966            0.000473153275           
       2.147950              0.0069409199            0.000465886605           
       2.150591             0.00708277028            0.000465867002           
       2.153231             0.00760323904            0.000496844463           
       2.155871             0.00705087776             0.00046222108           
       2.158512              0.0073559329            0.000492617659           
       2.161152             0.00789675266            0.000494410632           
       2.163793              0.0078958768             0.00049215755           
       2.166433             0.00790547364            0.000505700997           
       2.169073             0.00671132738            0.000455570872           
       2.171714             0.00734155732            0.000472919345           
       2.174354             0.00785927536            0.000511283921           
       2.176995             0.00686554838            0.000475857848           
       2.179635             0.00764315388            0.000530559223           
       2.182275             0.00677848515             0.00047174671           
       2.184916              0.0074816238            0.000478695362           
       2.187556             0.00750490682            0.000474634288           
       2.190196             0.00774558918            0.000503876818           
       2.192837               0.007920523            0.000506762779           
       2.195477             0.00722133163            0.000461320783           
       2.198118             0.00822989581            0.000505102506           
       2.200758             0.00677939192            0.000470326439           
       2.203398             0.00710886149            0.000484700574           
       2.206039             0.00701125079             0.00045556781           
       2.208679             0.00796194507            0.000496771062           
       2.211319             0.00814639781            0.000505389779           
       2.213960             0.00634692734            0.000452069903           
       2.216600             0.00730509395            0.000501715903           
       2.219241             0.00667351582            0.000458307994           
       2.221881             0.00708272987            0.000473121238           
       2.224521             0.00737737589            0.000488778952           
       2.227162              0.0066230074            0.000453842683           
       2.229802             0.00745658359            0.000496631606           
       2.232443             0.00695841096            0.000472187801           
       2.235083             0.00751314889            0.000505121578           
       2.237723             0.00798152388            0.000499618511           
       2.240364             0.00709104075            0.000482525318           
       2.243004             0.00779559046            0.000501890474           
       2.245644             0.00776591708            0.000505948426           
       2.248285             0.00786326092            0.000498910549           
       2.250925             0.00680096171            0.000466806283           
       2.253566             0.00761906886            0.000528215671           
       2.256206             0.00729993026            0.000506696551           
       2.258846             0.00675298304            0.000463599803           
       2.261487             0.00716009203            0.000501043628           
       2.264127             0.00769059959            0.000501506338           
       2.266767             0.00668137445            0.000479897593           
       2.269408              0.0067541359            0.000484479469           
       2.272048             0.00730226508            0.000500747917           
       2.274689             0.00669358885            0.000485741159           
       2.277329             0.00759888126            0.000487304328           
       2.279969             0.00680613518            0.000490905645           
       2.282610             0.00820917774            0.000524140238           
       2.285250             0.00721258727            0.000470237017           
       2.287891             0.00752240858            0.000514879597           
       2.290531             0.00743050638            0.000518603714           
       2.293171             0.00787557062            0.000520075873           
       2.295812             0.00740142389            0.000502150728           
       2.298452             0.00677642216            0.000502455978           
       2.301092             0.00665281014            0.000462565787           
       2.303733             0.00772919657            0.000518701271           
       2.306373             0.00715734105            0.000507004932           
       2.309014             0.00689782883            0.000488018968           
       2.311654             0.00755864484             0.00053310735           
       2.314294             0.00780594942            0.000499123913           
       2.316935             0.00747240323            0.000490361334           
       2.319575             0.00759923128            0.000518127039           
       2.322215             0.00713433225            0.000523198109           
       2.324856             0.00691873596            0.000473702445           
       2.327496             0.00656308167            0.000490577573           
       2.330137             0.00711794375             0.00048888763           
       2.332777             0.00699631652             0.00049976987           
       2.335417              0.0072306978            0.000492906022           
       2.338058             0.00820634439             0.00054079444           
       2.340698              0.0079909099            0.000529455082           
       2.343339             0.00689934509            0.000502791996           
       2.345979              0.0068829653            0.000475116224           
       2.348619             0.00740084972            0.000510675026           
       2.351260             0.00727693957            0.000503431639           
       2.353900             0.00734637293            0.000504225341           
       2.356540             0.00745179083            0.000507109308           
       2.359181             0.00690723255            0.000481383965           
       2.361821             0.00773126028             0.00049196009           
       2.364462             0.00723698806            0.000497809735           
       2.367102              0.0067364125            0.000493569404           
       2.369742              0.0064940796            0.000510085878           
       2.372383              0.0076257084             0.00050050897           
       2.375023             0.00701959282            0.000504800733           
       2.377663             0.00670707281            0.000471796939           
       2.380304             0.00728038053            0.000499743645           
       2.382944             0.00698368533            0.000466190184           
       2.385585             0.00736004703            0.000510421507           
       2.388225             0.00720219323            0.000502545647           
       2.390865             0.00701257801            0.000490792298           
       2.393506             0.00733860165            0.000492599304           
       2.396146             0.00700468958            0.000520362204           
       2.398787             0.00672777163            0.000469979408           
       2.401427             0.00669786158            0.000452628971           
       2.404067             0.00700610095            0.000473252807           
       2.406708             0.00806190052            0.000501573225           
       2.409348             0.00747134277            0.000512160093           
       2.411988             0.00717673174            0.000491810495           
       2.414629             0.00670803512            0.000490288098           
       2.417269             0.00668319168            0.000495092994           
       2.419910             0.00645093635            0.000487542851           
       2.422550             0.00677608978            0.000478061939           
       2.425190             0.00798947032             0.00054718883           
       2.427831             0.00756391639            0.000529423702           
       2.430471             0.00704334001            0.000486712384           
       2.433112             0.00692805691            0.000470047181           
       2.435752             0.00739359743            0.000513898601           
       2.438392             0.00709025915            0.000485735515           
       2.441033             0.00658789703            0.000496210225           
       2.443673             0.00793832803            0.000545118067           
       2.446313             0.00714413018            0.000517587145           
       2.448954             0.00743605978            0.000502783423           
       2.451594             0.00744544459            0.000540950702           
       2.454235             0.00640042421             0.00047058468           
       2.456875             0.00669245388            0.000503508227           
       2.459515             0.00713918843            0.000533504357           
       2.462156             0.00802228511            0.000533947622           
       2.464796             0.00783332644            0.000520814597           
       2.467436              0.0082563459            0.000552934694           
       2.470077             0.00788035277            0.000512009371           
       2.472717             0.00859148231            0.000536928354           
       2.475358             0.00752453233            0.000507723207           
       2.477998             0.00781064764            0.000508565364           
       2.480638             0.00673728313            0.000480723004           
       2.483279             0.00696097535            0.000510704976           
       2.485919             0.00750583712            0.000511080573           
       2.488560             0.00680516744            0.000485281827           
       2.491200             0.00653369166            0.000489643188           
       2.493840             0.00678561693            0.000528000687           
       2.496481             0.00787001609            0.000559325699           
       2.499121             0.00759004042            0.000534268948           
       2.501761             0.00648273858            0.000500303502           
       2.504402             0.00833460174            0.000558991096           
       2.507042             0.00650308598            0.000490109381           
       2.509683             0.00698672708            0.000500243405           
       2.512323             0.00659262817            0.000510347295           
       2.514963             0.00732092592            0.000531154219           
       2.517604             0.00775971521             0.00056743092           
       2.520244             0.00660878186            0.000490933804           
       2.522884             0.00602835767            0.000475585457           
       2.525525             0.00846717105            0.000570032726           
       2.528165             0.00872990611             0.00056978688           
       2.530806             0.00818824978            0.000561445803           
       2.533446              0.0122400347            0.000671790006           
       2.536086             0.00887031608            0.000566770399           
       2.538727             0.00587499285            0.000442504261           
       2.541367             0.00647829178            0.000469246576           
       2.544008             0.00611970308            0.000471013893           
       2.546648             0.00606204519            0.000476830776           
       2.549288             0.00707113343            0.000525483851           
       2.551929             0.00771960366            0.000540298633           
       2.554569             0.00670140658            0.000484990622           
       2.557209              0.0068219671            0.000493827678           
       2.559850             0.00682471035             0.00049551306           
       2.562490             0.00771964522            0.000544684113           
       2.565131              0.0086918747            0.000599261829           
       2.567771             0.00725901055            0.000528011365           
       2.570411             0.00665231656            0.000499995846           
       2.573052             0.00739699201            0.000533878828           
       2.575692             0.00727459673            0.000526237413           
       2.578332             0.00683410976            0.000512165654           
       2.580973             0.00749769565            0.000531350907           
       2.583613             0.00717153906            0.000507291568           
       2.586254             0.00777147736            0.000527350384           
       2.588894             0.00655893408            0.000503095747           
       2.591534             0.00641693882            0.000515130238           
       2.594175             0.00707852727            0.000530824382           
       2.596815             0.00708948373            0.000534367333           
       2.599456             0.00695730076            0.000501991783           
       2.602096             0.00731357791            0.000518601505           
       2.604736              0.0072029696            0.000526868812           
       2.607377             0.00708580723            0.000508794933           
       2.610017              0.0072217693            0.000504664358           
       2.612657             0.00711178134            0.000532683313           
       2.615298             0.00626990872            0.000488315244           
       2.617938             0.00678811929            0.000543531157           
       2.620579             0.00785281193            0.000561214602           
       2.623219             0.00592316986            0.000486714113           
       2.625859             0.00744712151            0.000530618807           
       2.628500             0.00723509278            0.000519582448           
       2.631140              0.0069989005            0.000518905217           
       2.633780             0.00746462954            0.000535426117           
       2.636421             0.00741410438            0.000546733511           
       2.639061             0.00714812596            0.000505370336           
       2.641702             0.00683347882            0.000505561675           
       2.644342             0.00792989519            0.000546932243           
       2.646982             0.00716881914             0.00051225003           
       2.649623             0.00767380371             0.00055540293           
       2.652263             0.00752256398            0.000544384342           
       2.654904             0.00773097236            0.000552428957           
       2.657544             0.00768968282            0.000518939427           
       2.660184             0.00780495755            0.000553290116           
       2.662825              0.0066078941            0.000520906335           
       2.665465             0.00668141601            0.000506597217           
       2.668105             0.00686213498            0.000541146156           
       2.670746             0.00746023293            0.000521234161           
       2.673386             0.00891938592            0.000587362122           
       2.676027             0.00780579343            0.000540655133           
       2.678667             0.00968020949            0.000587479542           
       2.681307              0.0118057109            0.000637461765           
       2.683948              0.0156452335            0.000753982614           
       2.686588              0.0115138075             0.00063608805           
       2.689229             0.00890705881            0.000546688572           
       2.691869             0.00958165606            0.000599276509           
       2.694509             0.00975978259            0.000605153585           
       2.697150             0.00703912895            0.000505593197           
       2.699790             0.00766229569             0.00055300638           
       2.702430             0.00700485795            0.000505421409           
       2.705071             0.00675446342             0.00051283843           
       2.707711             0.00744950506            0.000522730594           
       2.710352             0.00724783578            0.000544802797           
       2.712992             0.00581730543            0.000497110423           
       2.715632             0.00690655529            0.000502548292           
       2.718273             0.00643479014            0.000502721154           
       2.720913             0.00654606442            0.000505606483           
       2.723553              0.0067888887            0.000518353473           
       2.726194             0.00669488469             0.00053808573           
       2.728834             0.00726619137            0.000560837507           
       2.731475              0.0085084084            0.000560103439           
       2.734115             0.00779042025            0.000552583748           
       2.736755             0.00757533609            0.000549387253           
       2.739396             0.00746831357            0.000542332143           
       2.742036             0.00568921645            0.000495388456           
       2.744677             0.00615521359            0.000499961264           
       2.747317             0.00736346971            0.000542935342           
       2.749957             0.00676992067            0.000524246826           
       2.752598             0.00675096735            0.000529193907           
       2.755238             0.00660777082            0.000533002675           
       2.757878             0.00857526706            0.000601882743           
       2.760519             0.00877311271            0.000602331265           
       2.763159              0.0093465222            0.000615491036           
       2.765800              0.0073286846            0.000519392315           
       2.768440             0.00817597861            0.000552637114           
       2.771080             0.00873032132            0.000575831401           
       2.773721             0.00770905408            0.000555062475           
       2.776361             0.00690136001            0.000532425972           
       2.779001             0.00659110013            0.000538844484           
       2.781642             0.00741312165            0.000567247593           
       2.784282             0.00688711337            0.000555743186           
       2.786923              0.0071649599            0.000571833438           
       2.789563             0.00747530806            0.000562543959           
       2.792203             0.00710061815            0.000523749004           
       2.794844             0.00721933002             0.00057879885           
       2.797484             0.00759840157            0.000560402508           
       2.800125             0.00675515193            0.000555604727           
       2.802765             0.00656387811            0.000538260213           
       2.805405             0.00697021462            0.000556547885           
       2.808046              0.0067007374            0.000555276277           
       2.810686             0.00683595467            0.000515356739           
       2.813326             0.00742998873            0.000558087921           
       2.815967             0.00708829389            0.000560602923           
       2.818607             0.00677160203             0.00052288161           
       2.821248             0.00774113377            0.000547455307           
       2.823888             0.00608192533            0.000503703401           
       2.826528             0.00760550066            0.000545501204           
       2.829169             0.00607809942             0.00051079484           
       2.831809             0.00630924517            0.000527495598           
       2.834449             0.00664883912            0.000544927878           
       2.837090             0.00662965526            0.000525554072           
       2.839730             0.00652488483            0.000518839161           
       2.842371             0.00752095142            0.000557839236           
       2.845011             0.00697040057            0.000541314382           
       2.847651             0.00666518464            0.000529980442           
       2.850292             0.00557457374            0.000489441768           
       2.852932             0.00636597433            0.000534429849           
       2.855573              0.0067021111             0.00053192259           
       2.858213             0.00645615765            0.000548238013           
       2.860853             0.00704435616            0.000532712579           
       2.863494             0.00716357741            0.000556197281           
       2.866134             0.00591990573            0.000525525726           
       2.868774             0.00720817614            0.000569917809           
       2.871415             0.00621423054            0.000537410116           
       2.874055             0.00679594366            0.000537203015           
       2.876696             0.00752659831            0.000580635946           
       2.879336             0.00680307948            0.000532044222           
       2.881976             0.00814787934             0.00060056146           
       2.884617             0.00759081103            0.000571154598           
       2.887257             0.00755400951            0.000572709284           
       2.889897             0.00640549131            0.000516523653           
       2.892538             0.00679065166            0.000582617526           
       2.895178             0.00615398059            0.000501074158           
       2.897819             0.00708233185            0.000548343802           
       2.900459             0.00582975689            0.000487818615           
       2.903099              0.0070743771            0.000531874104           
       2.905740              0.0074062159            0.000558285302           
       2.908380             0.00749561009            0.000568026075           
       2.911021             0.00626347489            0.000527687238           
       2.913661             0.00665720664            0.000543857106           
       2.916301             0.00600683393            0.000517101223           
       2.918942             0.00769778505             0.00055992748           
       2.921582              0.0070430074            0.000560375641           
       2.924222             0.00707444374            0.000544106476           
       2.926863             0.00736737056            0.000578364204           
       2.929503             0.00808604937            0.000613095849           
       2.932144             0.00612823084            0.000512355385           
       2.934784              0.0071787017            0.000545439375           
       2.937424             0.00702078719             0.00054494481           
       2.940065             0.00716007479            0.000524957031           
       2.942705             0.00721593779            0.000526339745           
       2.945346             0.00790561217            0.000584664186           
       2.947986             0.00795590091            0.000598048248           
       2.950626             0.00733829886             0.00057113279           
       2.953267             0.00706601387            0.000551381634           
       2.955907             0.00675649364            0.000559314802           
       2.958547             0.00746793108            0.000555125751           
       2.961188             0.00705660324            0.000562975669           
       2.963828              0.0072164776              0.0005568976           
       2.966469             0.00624915015            0.000508382587           
       2.969109             0.00754533146            0.000566900552           
       2.971749             0.00748309476            0.000561035803           
       2.974390             0.00699894357            0.000533187112           
       2.977030             0.00697020745            0.000543982707           
       2.979670             0.00823295826            0.000575063478           
       2.982311             0.00909856381            0.000626574152           
       2.984951             0.00777339462            0.000550823046           
       2.987592             0.00739668915            0.000548072512           
       2.990232             0.00645756081            0.000532577029           
       2.992872             0.00773259029            0.000548953458           
       2.995513             0.00849690684            0.000562974143           
       2.998153              0.0115718007            0.000668027857           
       3.000794              0.0128531512            0.000681937539           
       3.003434               0.011313154            0.000640747436           
       3.006074              0.0425772207             0.00122561363           
       3.008715               0.117564072             0.00196594177           
       3.011355               0.201437592             0.00248156777           
       3.013995               0.106789201             0.00181175534           
       3.016636              0.0684076809             0.00141995996           
       3.019276               0.130496003              0.0019278214           
       3.021917               0.487532004             0.00358295165           
       3.024557                1.54429994             0.00626953294           
       3.027197                1.16473424             0.00530840379           
       3.029838               0.535175881             0.00364935233           
       3.032478               0.262321837             0.00255756164           
       3.035118              0.0689752544             0.00132905614           
       3.037759              0.0888931778             0.00150685059           
       3.040399               0.121356104             0.00181612837           
       3.043040               0.501020718             0.00373537767           
       3.045680               0.401040575             0.00314430734           
       3.048320              0.0934263912             0.00155064644           
       3.050961               0.106766899             0.00168687168           
       3.053601              0.0881620316             0.00147633694           
       3.056242              0.0609542861             0.00130516937           
       3.058882              0.0525521748             0.00129998882           
       3.061522              0.0424128409              0.0011458156           
       3.064163              0.0544241708              0.0012816175           
       3.066803               0.115241911             0.00196339327           
       3.069443               0.112490366             0.00202954072           
       3.072084              0.0448745649             0.00124818845           
       3.074724              0.0401328925             0.00131824049           
       3.077365              0.0799533716             0.00192608917           
       3.080005              0.0134902822            0.000795650783           
       3.082645              0.0122325125            0.000795931199           
       3.085286              0.0142997492            0.000867351019           
       3.087926              0.0109951948            0.000754695923           
       3.090566              0.0100313022            0.000706300858           
       3.093207              0.0116210737            0.000791078312           
       3.095847             0.00859720132            0.000652168877           
       3.098488             0.00996619735             0.00077859351           
       3.101128             0.00924594461            0.000754754519           
       3.103768              0.0099010643            0.000766341885           
       3.106409             0.00913511483            0.000783411668           
       3.109049             0.00797209606            0.000702315697           
       3.111690             0.00854505957            0.000714633634           
       3.114330               0.007887283            0.000701183344           
       3.116970             0.00784871144            0.000704836625           
       3.119611              0.0132558537            0.000975016325           
       3.122251              0.0184649919             0.00120372761           
       3.124891              0.0352173803             0.00167787185           
       3.127532              0.0240089952             0.00135529973           
       3.130172              0.0148266941             0.00108345473           
       3.132813             0.00777908384            0.000772597574           
       3.135453             0.00721874316             0.00073812128           
       3.138093             0.00618949159            0.000740572392           
       3.140734             0.00633301379            0.000691111091           
       3.143374             0.00750446026            0.000795610876           
       3.146014              0.0073155742            0.000845663567           
       3.148655             0.00673530022            0.000754300763           
       3.151295             0.00526668366            0.000710807245           
       3.153936             0.00652560549            0.000764288289           
       3.156576             0.00546821156             0.00069011524           
       3.159216             0.00648892401            0.000755530754           
       3.161857              0.0067029232            0.000764762942           
       3.164497             0.00751280235            0.000850705671           
       3.167138             0.00945618347            0.000986141437           
       3.169778             0.00705285172            0.000837609961           
       3.172418             0.00750176671            0.000855068949           
       3.175059             0.00628101267            0.000693639269           
       3.177699             0.00644138369            0.000743840075           
       3.180339             0.00610571484            0.000775923655           
       3.182980             0.00610427976            0.000802131932           
       3.185620             0.00679220408            0.000861705148           
       3.188261             0.00588581052             0.00081646631           
       3.190901             0.00516580614             0.00070348523           
       3.193541             0.00768637086            0.000901674209           
       3.196182             0.00573897589            0.000811958221           
       3.198822             0.00515111146            0.000769506863           
       3.201463              0.0064351673            0.000845268057           
       3.204103             0.00658330167            0.000849739964           
       3.206743              0.0066896225            0.000856493766           
       3.209384             0.00702654092            0.000948384925           
       3.212024             0.00645222252            0.000847287025           
       3.214664             0.00662214899            0.000976090855           
       3.217305             0.00738932689            0.000980114666           
       3.219945             0.00855966637             0.00108574332           
       3.222586             0.00586487375            0.000856023109           
       3.225226             0.00429657506            0.000812799986           
       3.227866             0.00654039443            0.000916570504           
       3.230507             0.00591301751            0.000903407209           
       3.233147             0.00603230427            0.000919842288           
       3.235787             0.00584949615            0.000926970272           
       3.238428             0.00564718115            0.000982867133           
       3.241068             0.00551971217            0.000908598173           
       3.243709             0.00573574493            0.000956920096           
       3.246349             0.00556144838            0.000858965676           
       3.248989             0.00444024825            0.000906261397           
       3.251630             0.00583928503             0.00100079166           
       3.254270             0.00572761096            0.000885842208           
       3.256911             0.00635551221             0.00101815481           
       3.259551             0.00621581303             0.00108402057           
       3.262191              0.0068901575             0.00116578983           
       3.264832             0.00688074543             0.00121724347           
       3.267472             0.00568118822             0.00103760467           
       3.270112             0.00780528327             0.00134406113           
       3.272753             0.00503590718            0.000988185167           
       3.275393             0.00565499419             0.00106847417           
       3.278034             0.00585191636              0.0010875305           
       3.280674             0.00306857079            0.000854566323           
       3.283314             0.00531865763             0.00100620931           
       3.285955             0.00385223234              0.0008835494           
       3.288595             0.00477576787             0.00109448759           
       3.291235             0.00607468142             0.00126893826           
       3.293876             0.00544316907              0.0012184312           
       3.296516             0.00551047877             0.00117693139           
       3.299157             0.00862264418             0.00145373473           
       3.301797             0.00700346802             0.00149446987           
       3.304437             0.00739800044             0.00133075053           
       3.307078              0.0046167139             0.00115801647           
       3.309718             0.00557054296              0.0013129625           
       3.312359             0.00619802845             0.00138526702           
       3.314999             0.00449262984             0.00116120488           
       3.317639              0.0041216157             0.00106370563           
       3.320280             0.00370177329             0.00107179121           
       3.322920             0.00769674086               0.001571475           
       3.325560             0.00540706306             0.00131804341           
       3.328201             0.00883459945             0.00151734476           
       3.330841             0.00654650665             0.00158967568           
       3.333482             0.00377452554              0.0011409647           
       3.336122             0.00618731958             0.00146147668           
       3.338762             0.00551655919             0.00159409784           
       3.341403             0.00717069925             0.00173664265           
       3.344043              0.0050005193             0.00139234161           
       3.346683             0.00525536803             0.00145723932           
       3.349324             0.00408514478             0.00144452966           
       3.351964             0.00280685428             0.00126618664           
       3.354605             0.00448815249             0.00183111579           
       3.357245             0.00478197948             0.00170507551           
       3.359885             0.00506177168             0.00140403073           
       3.362526             0.00782299171             0.00218278019           
       3.365166             0.00598058608             0.00180009852           
       3.367807             0.00524668019             0.00215778267           
       3.370447              0.0042430713             0.00160964162           
       3.373087             0.00622240194              0.0020844684           
       3.375728             0.00790566813             0.00265170253           
       3.378368             0.00378934085              0.0027246282           
       3.381008             0.00216579041             0.00153571902           
       3.383649             0.00210059805             0.00121327566           
       3.386289             0.00295404737             0.00170285346           
       3.388930             0.00745311664             0.00427839446           
       3.391570              0.0085112137             0.00323422403           
       3.394210             0.00194167846             0.00195493795           
       3.396851             0.00484833973             0.00345552977           
       3.399491             0.00491769752             0.00348113699           
       3.402131             0.00976853941               0.006941471           
       3.404772           -2.63644897e-05                         0           
       3.407412                       nan                       nan           
       3.410053           -2.64294256e-05                         0           
       3.412693                       nan                       nan           
       3.415333           -2.64799317e-05                         0           
