################################################################################
# EDF_DataBlockID                     0.Image.Psd
# EDF_BinarySize                      2105344
# EDF_HeaderSize                      2560
# ByteOrder                           LowByteFirst
# DataType                            FloatValue
# Dim_1                               512
# Dim_2                               1028
# Image                               0
# HeaderID                            EH:000000:000000:000000
# Size                                2105344
# Center_1                            304.9000
# Center_2                            588.7000
# Comment                             Xenocs_Cell_Window - 20251028_20perc_iodine_1.23mg
# DDummy                              0.6
# Date                                2025-10-30T06:37:27
# Delta                               21.910000
# Dummy                               -1.5
# ExposureTime                        360
# Gamma                               15.360000
# Intensity1                          8.53694e-10
# PSize_1                             7.5e-05
# PSize_2                             7.5e-05
# Pressure                            0.0324821
# SampleDistance                      0.115750
# SampleEnvKind                       large
# SampleEnvPN                         ElectroChemical cell
# SampleEnvSN                         1141
# Thickness                           0
# Wavelength                          1.541891e-10
# Wavelength                          1.54189e-10
# aux                                 0
# aux_dial                            0.002375
# beamx                               588.434
# beamx_dial                          588.434
# beamz                               657.808
# beamz_dial                          657.808
# det0x                               0
# det0x_dial                          6.36945
# det0xvd                             0
# det0xvd_dial                        0
# det0y                               450.002
# det0y_dial                          481.635
# det0z                               0
# det0z_dial                          1.23302
# det0zvd                             0
# det0zvd_dial                        0
# mag                                 1.818
# mag_dial                            1.818
# om                                  0.2499
# om_dial                             -0.610199
# phi                                 -0.0120535
# phi_dial                            0
# ry                                  0.599993
# ry_dial                             0.599993
# s1bot                               0.8
# s1bot_dial                          -1.66094
# s1hl                                0.8
# s1hl_dial                           -0.608437
# s1hr                                0.8
# s1hr_dial                           0.970938
# s1top                               0.8
# s1top_dial                          -0.461562
# s2bot                               0.45
# s2bot_dial                          1.36109
# s2hl                                0.45
# s2hl_dial                           -0.83375
# s2hr                                0.45
# s2hr_dial                           -0.118594
# s2top                               0.45
# s2top_dial                          1.44734
# w2theta                             32
# w2theta_dial                        32
# waxsch                              19.2605
# waxsch_dial                         -32.7355
# waxsh                               137.085
# waxsh_dial                          -43.5338
# waxsth                              26.0607
# waxsth_dial                         -19.4086
# waxsz                               67.0407
# waxsz_dial                          -23.7954
# wind                                65.9854
# wind_dial                           66.0041
# wpsi                                124
# wpsi_dial                           124
# wstod                               115
# wstod_dial                          115
# x                                   0
# x_dial                              1.00969
# z                                   0
# z_dial                              13.3172
# CountCutoff                         6807993
# DetectorModel                       Dectris EIGER2 Si 500K, S/N E-01-0554
# ThresholdSetting                    4023.88989258
# Saturation                          0
# FlatField                           Corrected
# BackgroundReductionExtra            0.02
# BackgroundCorrectionConstant        0.0026712
# Detector                            0
# Monitor                             0
# Pil_Roi0                            0
# SumForIntensity1                    3.0733e+08
# TransmittedFlux                     853694
# det                                 0
# mon                                 0
# pilai0                              3.0733e+08
# pilai1                              768621
# pilct0                              5.32466e+08
# pilct1                              768621
# pilroi0                             0
# pilroi1                             0
# sec                                 1
# title                               20251028_20perc_iodine_1.23mg_1_00366.edf
# usaxs0                              0
# Operation                           Azimuthal average I(q)
# Error_model                         ErrorModel.poisson
# Geometrical_correction              True
# Transmission_correction             True
# Thickness_correction                False
# Binning mode                        Uniform
# Binning factor                      1.0
# Psi                                 0.0
# Omega                               0.2499
# MaskInvalidPixels                   True
# DetectorEdge                        3
# MaskFiles                           ['WAXS_corrected.edf']
################################################################################
    q(A⁻¹)                Intensity(a.u.)            Sigma_I(a.u.)            
       0.693100             0.00413269427             0.00428923255           
       0.695741             0.00552629321             0.00404750724           
       0.698381             0.00857966416             0.00617758421           
       0.701021           -2.37453103e-05                         0           
       0.703662             0.00562451823             0.00408148159           
       0.706302             0.00859138629             0.00390538591           
       0.708942             0.00287508474             0.00291594086           
       0.711583             0.00221436332             0.00221596869           
       0.714223           -2.36867718e-05                         0           
       0.716864             0.00248440688             0.00177305107           
       0.719504             0.00878860976             0.00359863525           
       0.722144             0.00883838366             0.00334203491           
       0.724785             0.00866664424             0.00263986335           
       0.727425             0.00142883113             0.00145006163           
       0.730065             0.00579769458             0.00206616449           
       0.732706             0.00351299096             0.00135059297           
       0.735346             0.00528607307             0.00215961663           
       0.737987             0.00875611313             0.00196409656           
       0.740627             0.00586407133              0.0023982434           
       0.743267              0.0074568182             0.00181139254           
       0.745908             0.00465643098             0.00155299875           
       0.748548             0.00612853507             0.00164224252           
       0.751189             0.00560869309             0.00211692913           
       0.753829             0.00808128508             0.00233582769           
       0.756469              0.0100689811             0.00210245494           
       0.759110              0.0048155694             0.00153224528           
       0.761750             0.00647123024             0.00157057457           
       0.764390              0.0091465623             0.00195433742           
       0.767031             0.00907209815             0.00168548011           
       0.769671             0.00439746389              0.0014638128           
       0.772312             0.00675733679             0.00138141299           
       0.774952             0.00874306926             0.00212191228           
       0.777592             0.00653740305             0.00133645792           
       0.780233             0.00676343386              0.0016400612           
       0.782873             0.00834104287             0.00174192414           
       0.785513             0.00623758963             0.00161039063           
       0.788154             0.00811131701             0.00153621638           
       0.790794             0.00995968957             0.00203511353           
       0.793435             0.00673100709             0.00150298962           
       0.796075             0.00559817701             0.00132039975           
       0.798715             0.00432919002             0.00137213926           
       0.801356             0.00676102366             0.00147583229           
       0.803996             0.00603524373             0.00142157869           
       0.806637             0.00401277349            0.000922482295           
       0.809277             0.00670326909             0.00129050704           
       0.811917             0.00587855738             0.00112977011           
       0.814558             0.00750207076             0.00132646298           
       0.817198             0.00912210892             0.00138962373           
       0.819838             0.00756756828             0.00128097302           
       0.822479             0.00926689709             0.00166455472           
       0.825119             0.00888578752             0.00138730704           
       0.827760             0.00957060182             0.00145843504           
       0.830400             0.00509273235             0.00100130895           
       0.833040             0.00517143476             0.00105713842           
       0.835681             0.00529252382             0.00121577394           
       0.838321             0.00708454931             0.00118062303           
       0.840961              0.0102498484             0.00154724772           
       0.843602             0.00606497194             0.00109145091           
       0.846242             0.00684530195             0.00115936806           
       0.848883             0.00968293353             0.00141109183           
       0.851523             0.00542132727             0.00104274013           
       0.854163             0.00680312513             0.00124221473           
       0.856804             0.00675914124             0.00111330496           
       0.859444             0.00702465067               0.001112042           
       0.862085             0.00820105482             0.00125232115           
       0.864725               0.005992804             0.00109556954           
       0.867365             0.00602665159             0.00101877634           
       0.870006             0.00624227201            0.000988029785           
       0.872646             0.00566398814            0.000986928324           
       0.875286             0.00698225422             0.00105420551           
       0.877927             0.00810743298             0.00109616383           
       0.880567             0.00733293873             0.00108004309           
       0.883208             0.00731875562             0.00106883297           
       0.885848             0.00806512469              0.0011649841           
       0.888488             0.00650936472             0.00098165304           
       0.891129             0.00811465344             0.00112539734           
       0.893769             0.00643128567            0.000958834247           
       0.896410             0.00678978085            0.000918547628           
       0.899050             0.00645871685             0.00098521782           
       0.901690              0.0074727353             0.00115436375           
       0.904331             0.00799930652             0.00105885078           
       0.906971             0.00826222562             0.00114480497           
       0.909611             0.00881010232             0.00107613702           
       0.912252             0.00657170043            0.000960002006           
       0.914892             0.00735133965             0.00110956298           
       0.917533             0.00864774272             0.00113843844           
       0.920173             0.00822129687             0.00102987448           
       0.922813             0.00780753505             0.00105319048           
       0.925454             0.00784051867            0.000950370134           
       0.928094             0.00679593251            0.000944598166           
       0.930734             0.00805986377              0.0011075034           
       0.933375             0.00786733943             0.00108343946           
       0.936015             0.00861555557             0.00102972316           
       0.938656             0.00652630476            0.000961427602           
       0.941296             0.00732278953             0.00092295677           
       0.943936             0.00681102656            0.000872902263           
       0.946577             0.00784932541            0.000930882305           
       0.949217             0.00707675855            0.000812812484           
       0.951858             0.00787376535            0.000897487273           
       0.954498             0.00782090385             0.00103533265           
       0.957138             0.00836267219             0.00101423935           
       0.959779             0.00728830074            0.000933399228           
       0.962419             0.00800686013            0.000971822572           
       0.965059             0.00822796282             0.00103611923           
       0.967700             0.00653719729            0.000945896193           
       0.970340             0.00694730724            0.000862880463           
       0.972981             0.00665875405            0.000769667212           
       0.975621             0.00715257937            0.000848611927           
       0.978261             0.00816821014            0.000861678445           
       0.980902             0.00751022256             0.00098855942           
       0.983542             0.00959817151            0.000989671708           
       0.986182               0.010151976            0.000999292216           
       0.988823             0.00834890216            0.000879937657           
       0.991463             0.00622886815            0.000810893347           
       0.994104             0.00762579965            0.000875257807           
       0.996744             0.00836420426            0.000934980126           
       0.999384             0.00878120513             0.00085677566           
       1.002025              0.0085568337            0.000943978729           
       1.004665             0.00812080798            0.000840412851           
       1.007306             0.00722492383            0.000788644053           
       1.009946             0.00842876489            0.000868734291           
       1.012586             0.00916412413            0.000882232746           
       1.015227             0.00665281017             0.00080755315           
       1.017867             0.00688442857            0.000789509096           
       1.020507             0.00885344036             0.00086724096           
       1.023148             0.00610794634            0.000777255502           
       1.025788             0.00713583456            0.000770318934           
       1.028429             0.00748472359            0.000826529355           
       1.031069             0.00865155927            0.000836228485           
       1.033709             0.00929799979            0.000921524318           
       1.036350             0.00735174356            0.000735952282           
       1.038990             0.00932083112            0.000843898317           
       1.041630             0.00714294664             0.00077053083           
       1.044271              0.0085281488            0.000791809538           
       1.046911             0.00733112802             0.00077221926           
       1.049552             0.00771815384            0.000832454395           
       1.052192              0.0086859514            0.000806386974           
       1.054832             0.00900742091            0.000828643802           
       1.057473             0.00852338775            0.000794616709           
       1.060113             0.00740120593            0.000722151862           
       1.062754             0.00829497951            0.000780554429           
       1.065394             0.00811547585            0.000816269771           
       1.068034             0.00849562207            0.000759889175           
       1.070675              0.0086603796            0.000800306958           
       1.073315              0.0081602672            0.000787990834           
       1.075955             0.00840460073            0.000754963253           
       1.078596              0.0106451136            0.000903014291           
       1.081236              0.0087071933            0.000782036367           
       1.083877             0.00799534285            0.000742664949           
       1.086517             0.00863907415            0.000827792162           
       1.089157               0.008619533            0.000857955133           
       1.091798              0.0089086866            0.000764695826           
       1.094438             0.00794908743            0.000720006697           
       1.097078             0.00838253108            0.000709139389           
       1.099719             0.00918346659            0.000802851575           
       1.102359             0.00627858905            0.000621693456           
       1.105000             0.00784976706            0.000777304445           
       1.107640             0.00837353298            0.000767624612           
       1.110280             0.00895827067            0.000724441274           
       1.112921             0.00905077971            0.000782214389           
       1.115561             0.00832647129            0.000713061786           
       1.118202             0.00962707592            0.000767454957           
       1.120842             0.00952983496            0.000802516146           
       1.123482             0.00910371802            0.000780943293           
       1.126123             0.00812267767            0.000707545196           
       1.128763             0.00898895698            0.000749422499           
       1.131403              0.0104335063            0.000777996315           
       1.134044             0.00829183192            0.000713680856           
       1.136684             0.00909251519             0.00079679878           
       1.139325             0.00905810768            0.000732620019           
       1.141965              0.0101889138            0.000782141999           
       1.144605              0.0087878917            0.000692605692           
       1.147246             0.00929091657            0.000728826458           
       1.149886              0.0098464903            0.000747637564           
       1.152527             0.00735037206            0.000655352677           
       1.155167               0.010062684            0.000729335579           
       1.157807             0.00905463842            0.000741776376           
       1.160448             0.00940139038            0.000738103252           
       1.163088             0.00960749341            0.000711717268           
       1.165728             0.00944553227            0.000724548116           
       1.168369              0.0096227057            0.000738068145           
       1.171009             0.00943489795            0.000709250849           
       1.173650             0.00919850988            0.000718684495           
       1.176290             0.00836151868            0.000669601453           
       1.178930              0.0103546883            0.000730312512           
       1.181571             0.00865009911            0.000680735978           
       1.184211             0.00921888106             0.00070525207           
       1.186851             0.00996425064             0.00071684754           
       1.189492              0.0087100928            0.000665708759           
       1.192132              0.0101394786            0.000710199492           
       1.194773             0.00958009899            0.000693347503           
       1.197413             0.00908135425            0.000646801403           
       1.200053             0.00931719617            0.000671792524           
       1.202694             0.00854120797            0.000611655069           
       1.205334              0.0086456021            0.000663188828           
       1.207975             0.00999230988            0.000680551964           
       1.210615              0.0102598395            0.000760748377           
       1.213255             0.00935985561            0.000650668455           
       1.215896             0.00927195609            0.000659339963           
       1.218536             0.00886162573            0.000619796382           
       1.221176              0.0104534405            0.000731869198           
       1.223817              0.0099243888            0.000669407228           
       1.226457             0.00900277368            0.000650412875           
       1.229098              0.0101484669            0.000690525981           
       1.231738             0.00966666935            0.000677252215           
       1.234378              0.0104094259            0.000660376557           
       1.237019              0.0094343451             0.00064785549           
       1.239659              0.0106163365            0.000681255286           
       1.242299               0.010340555            0.000663806271           
       1.244940             0.00995250922            0.000633363932           
       1.247580              0.0111702654            0.000691514412           
       1.250221              0.0104671261            0.000665265745           
       1.252861             0.00964676006            0.000608010827           
       1.255501              0.0103938316            0.000685270121           
       1.258142              0.0114062047            0.000674565696           
       1.260782              0.0111499674            0.000681376562           
       1.263423              0.0105764099            0.000637663855           
       1.266063              0.0100008644             0.00063555502           
       1.268703               0.010472239            0.000644963772           
       1.271344              0.0109424812            0.000681629052           
       1.273984              0.0106038304             0.00064805222           
       1.276624              0.0110849022            0.000650141738           
       1.279265              0.0116631207            0.000677957408           
       1.281905               0.010321577            0.000640606373           
       1.284546              0.0108758556            0.000635612673           
       1.287186              0.0093552638            0.000578368766           
       1.289826              0.0105358846            0.000646873243           
       1.292467              0.0105967407            0.000634449743           
       1.295107              0.0102392992            0.000617462392           
       1.297747              0.0106313291            0.000602065054           
       1.300388             0.00804493838            0.000570936482           
       1.303028              0.0108206037            0.000632122012           
       1.305669              0.0109111178            0.000649874576           
       1.308309              0.0116609736            0.000665218553           
       1.310949             0.00971932655            0.000606706101           
       1.313590              0.0111494571            0.000629498751           
       1.316230              0.0107453262            0.000659475625           
       1.318871              0.0106860171            0.000644090475           
       1.321511             0.00981052442            0.000605703035           
       1.324151              0.0110792135            0.000624594507           
       1.326792              0.0116848655            0.000645404918           
       1.329432              0.0118568326             0.00064554892           
       1.332072              0.0108214228            0.000607527539           
       1.334713               0.011139829            0.000636186586           
       1.337353              0.0112729548             0.00061375037           
       1.339994              0.0119409181            0.000662877017           
       1.342634              0.0113547414            0.000619858971           
       1.345274              0.0127689647            0.000680272674           
       1.347915              0.0113272988            0.000623026713           
       1.350555             0.00950664694            0.000580761072           
       1.353195              0.0112188327            0.000633994465           
       1.355836              0.0103411092            0.000599197278           
       1.358476               0.011577118            0.000615706348           
       1.361117              0.0108332551            0.000596415055           
       1.363757              0.0103122807            0.000599665459           
       1.366397              0.0117382064            0.000620422169           
       1.369038              0.0114036588            0.000617606026           
       1.371678              0.0108969883            0.000598407351           
       1.374319              0.0111935296            0.000601272527           
       1.376959              0.0111082439            0.000592953898           
       1.379599              0.0108160458            0.000627053463           
       1.382240               0.010145314            0.000570770544           
       1.384880              0.0104814617            0.000614509871           
       1.387520               0.011418478            0.000609147681           
       1.390161              0.0106573049            0.000558928112           
       1.392801              0.0118880344             0.00061505592           
       1.395442              0.0109865441            0.000599351305           
       1.398082              0.0114994337            0.000574217869           
       1.400722              0.0109980355            0.000588221029           
       1.403363              0.0113888173            0.000630078322           
       1.406003              0.0109832276            0.000579073564           
       1.408644              0.0105035709            0.000593223331           
       1.411284              0.0108172393            0.000570055638           
       1.413924               0.010220882            0.000552064952           
       1.416565              0.0110335911            0.000571340636           
       1.419205              0.0107787692            0.000589076916           
       1.421845              0.0117502149            0.000614688713           
       1.424486              0.0116346575            0.000587944578           
       1.427126              0.0108538327            0.000589910134           
       1.429767              0.0121857724            0.000588104286           
       1.432407              0.0106750187            0.000576051171           
       1.435047               0.010899647            0.000546670085           
       1.437688              0.0115888014            0.000572115549           
       1.440328                0.01105211            0.000570227117           
       1.442968              0.0106287686            0.000571728638           
       1.445609               0.010628991            0.000553597666           
       1.448249              0.0105167136            0.000564608482           
       1.450890              0.0118172417            0.000594595366           
       1.453530               0.012595009            0.000642211216           
       1.456170              0.0120645942            0.000610015741           
       1.458811               0.011254413            0.000563383995           
       1.461451              0.0108708586            0.000555153106           
       1.464092              0.0107722494            0.000556242474           
       1.466732              0.0107915639            0.000551956703           
       1.469372              0.0117087482            0.000561478856           
       1.472013              0.0112544798            0.000593702782           
       1.474653              0.0110351787            0.000578821026           
       1.477293              0.0102438781            0.000569436324           
       1.479934             0.00988834764            0.000533848829           
       1.482574              0.0112148871             0.00054996458           
       1.485215              0.0103769916            0.000538874245           
       1.487855              0.0112501233            0.000568488832           
       1.490495              0.0109590207            0.000559019233           
       1.493136              0.0114187242            0.000562802051           
       1.495776              0.0107476366              0.0005435273           
       1.498416               0.012284211            0.000600094854           
       1.501057              0.0108482557            0.000551503123           
       1.503697              0.0110006484             0.00054295619           
       1.506338              0.0108585366            0.000549295117           
       1.508978              0.0107569393            0.000541342751           
       1.511618             0.00975155527            0.000548924391           
       1.514259              0.0106243668            0.000553169619           
       1.516899              0.0109661445            0.000547198499           
       1.519540              0.0104318825            0.000542308877           
       1.522180              0.0107490383            0.000555326721           
       1.524820              0.0113995002            0.000568673794           
       1.527461              0.0111391465            0.000564922474           
       1.530101              0.0112590656            0.000562275027           
       1.532741              0.0113538885            0.000561360971           
       1.535382             0.00954961563            0.000523116931           
       1.538022             0.00998503739            0.000503913493           
       1.540663              0.0116084967            0.000584392293           
       1.543303              0.0113012174            0.000535388012           
       1.545943              0.0109217728            0.000557074353           
       1.548584              0.0110492096            0.000570372938           
       1.551224              0.0112213133            0.000531454952           
       1.553864              0.0101629172            0.000534441428           
       1.556505              0.0110334829            0.000537942678           
       1.559145              0.0109708563            0.000542984829           
       1.561786              0.0108445374            0.000540265571           
       1.564426              0.0105524232            0.000516362843           
       1.567066              0.0106867001             0.00054448059           
       1.569707             0.00967544514            0.000508772767           
       1.572347               0.010990603            0.000560197919           
       1.574988              0.0102156861            0.000514073189           
       1.577628             0.00924200099            0.000509865724           
       1.580268              0.0100477407            0.000515089933           
       1.582909              0.0115900644            0.000586382971           
       1.585549             0.00925245581            0.000508711867           
       1.588189             0.00916973595            0.000495379653           
       1.590830             0.00999619225            0.000516572902           
       1.593470              0.0096350008            0.000527235627           
       1.596111              0.0103736499            0.000534112441           
       1.598751             0.00978389782            0.000502610561           
       1.601391              0.0107665677             0.00053887974           
       1.604032              0.0088160504            0.000497823796           
       1.606672              0.0108767857            0.000537247186           
       1.609312             0.00955717521            0.000525703032           
       1.611953             0.00899554061            0.000499088816           
       1.614593             0.00870975656            0.000481727187           
       1.617234             0.00964872225            0.000525473366           
       1.619874             0.00903312775            0.000506425902           
       1.622514             0.00919086072            0.000503859824           
       1.625155             0.00885521697            0.000497495648           
       1.627795             0.00955915184            0.000504226699           
       1.630436             0.00868040687            0.000477983072           
       1.633076              0.0101811843            0.000524445714           
       1.635716             0.00916913515            0.000489953885           
       1.638357              0.0102404402            0.000519150838           
       1.640997             0.00882968414            0.000496669133           
       1.643637             0.00915188958            0.000492054398           
       1.646278             0.00913145679            0.000506947933           
       1.648918             0.00877733124            0.000498376644           
       1.651559             0.00878689201            0.000502518246           
       1.654199             0.00947301531            0.000507466228           
       1.656839             0.00883733669            0.000490315133           
       1.659480             0.00947132925             0.00052665945           
       1.662120             0.00823579067            0.000462542891           
       1.664761             0.00894400844            0.000500694827           
       1.667401             0.00849510648            0.000466393006           
       1.670041             0.00883980226             0.00048301534           
       1.672682             0.00897221698            0.000484619438           
       1.675322             0.00959454733            0.000497922154           
       1.677962             0.00816178723            0.000454176222           
       1.680603             0.00874306124            0.000471517591           
       1.683243              0.0093588333            0.000508969577           
       1.685884             0.00873951588            0.000495472985           
       1.688524             0.00810796424            0.000468009893           
       1.691164             0.00902379658              0.0004938469           
       1.693805             0.00879410397            0.000492876786           
       1.696445             0.00820743904            0.000478914889           
       1.699085             0.00870238048            0.000476619439           
       1.701726             0.00906081731            0.000468499822           
       1.704366             0.00876732111            0.000485492403           
       1.707007             0.00925561504            0.000487709484           
       1.709647             0.00857101447            0.000474626203           
       1.712287              0.0085568052            0.000478360453           
       1.714928               0.008622959            0.000484077732           
       1.717568             0.00824639289            0.000445935132           
       1.720209             0.00823373993            0.000466727642           
       1.722849             0.00817334852            0.000462622177           
       1.725489             0.00896451067             0.00048490231           
       1.728130             0.00924200273            0.000523230156           
       1.730770             0.00830855053            0.000471165062           
       1.733410              0.0087758117             0.00047662101           
       1.736051             0.00738781146            0.000440351877           
       1.738691             0.00957091992            0.000491048766           
       1.741332             0.00923520682            0.000496464304           
       1.743972              0.0077713838            0.000470300433           
       1.746612             0.00883527523            0.000481529378           
       1.749253             0.00848000367            0.000481065037           
       1.751893             0.00822460608            0.000470287863           
       1.754533             0.00728718656            0.000442262781           
       1.757174              0.0083470842            0.000468901625           
       1.759814             0.00875296005             0.00047288806           
       1.762455             0.00903805304            0.000489351081           
       1.765095             0.00904122766            0.000468206012           
       1.767735             0.00881258687            0.000476508286           
       1.770376             0.00957292029            0.000497948451           
       1.773016              0.0086172002            0.000469273951           
       1.775657              0.0073940378            0.000428439883           
       1.778297             0.00886992626            0.000465214472           
       1.780937             0.00897570144            0.000493952854           
       1.783578             0.00979573406            0.000503121088           
       1.786218             0.00911736214            0.000506555011           
       1.788858             0.00832513135            0.000459727883           
       1.791499             0.00869383719            0.000464521611           
       1.794139             0.00947763519            0.000481074441           
       1.796780             0.00966960019            0.000483579401           
       1.799420             0.00757260661            0.000425573455           
       1.802060             0.00880254548            0.000462540544           
       1.804701              0.0087230905            0.000441867124           
       1.807341             0.00904059628            0.000472680697           
       1.809981             0.00913766727            0.000476795938           
       1.812622             0.00887929596            0.000461545155           
       1.815262             0.00880791386            0.000469450986           
       1.817903             0.00930686799            0.000475414549           
       1.820543             0.00955554886            0.000489230602           
       1.823183             0.00938752443            0.000484643639           
       1.825824             0.00892070884            0.000451350037           
       1.828464             0.00913312459             0.00047612125           
       1.831105             0.00904866386            0.000460811888           
       1.833745             0.00868818532            0.000461183266           
       1.836385             0.00801536054            0.000455607709           
       1.839026             0.00802964526            0.000454572761           
       1.841666             0.00742550051            0.000435587472           
       1.844306             0.00833448902            0.000448887383           
       1.846947             0.00838441205            0.000454176374           
       1.849587             0.00840078434             0.00050201024           
       1.852228             0.00828740705            0.000450868048           
       1.854868             0.00870472299            0.000488119663           
       1.857508             0.00898147459            0.000490955474           
       1.860149             0.00789377273            0.000468630208           
       1.862789             0.00836221584            0.000465564693           
       1.865429             0.00834343015            0.000485432127           
       1.868070             0.00808460963            0.000471474731           
       1.870710             0.00752177146            0.000444282555           
       1.873351              0.0078680462            0.000460011406           
       1.875991             0.00768518547            0.000462054163           
       1.878631             0.00834769381            0.000472335497           
       1.881272             0.00801130373            0.000459620341           
       1.883912             0.00801675145            0.000478493699           
       1.886553             0.00912912471            0.000504904009           
       1.889193             0.00853948871            0.000487491992           
       1.891833             0.00731044254             0.00046843161           
       1.894474             0.00932508381            0.000524447353           
       1.897114             0.00841889714              0.0004822081           
       1.899754              0.0082937628            0.000480613579           
       1.902395             0.00866721303            0.000481709141           
       1.905035             0.00814071133            0.000494471219           
       1.907676             0.00842220462            0.000474029588           
       1.910316             0.00863709661            0.000492784767           
       1.912956             0.00787492031            0.000460187979           
       1.915597             0.00754440359            0.000452944612           
       1.918237             0.00899297848             0.00051071949           
       1.920878             0.00751116499            0.000464839267           
       1.923518             0.00774379452            0.000472182946           
       1.926158             0.00827441362            0.000481758628           
       1.928799             0.00822482147            0.000474753011           
       1.931439              0.0079004876            0.000477502566           
       1.934079             0.00767278347            0.000490558773           
       1.936720             0.00755269777            0.000450946135           
       1.939360              0.0078671721            0.000491010297           
       1.942001             0.00809458062            0.000456494131           
       1.944641              0.0074661036            0.000447050403           
       1.947281             0.00774123804            0.000451017117           
       1.949922               0.008344743            0.000483679218           
       1.952562             0.00763258829             0.00047707987           
       1.955202             0.00796673596             0.00048681693           
       1.957843             0.00758355314            0.000462648026           
       1.960483             0.00844805034            0.000510523893           
       1.963124             0.00768102659            0.000476809678           
       1.965764             0.00778128687            0.000452569972           
       1.968404             0.00767818828            0.000445314164           
       1.971045              0.0080004852            0.000463452173           
       1.973685             0.00721240129            0.000461563313           
       1.976326             0.00792988036            0.000477325279           
       1.978966             0.00786835296            0.000479642559           
       1.981606             0.00796916912            0.000492772712           
       1.984247             0.00745399251            0.000473445401           
       1.986887             0.00826956432            0.000492700483           
       1.989527             0.00806870699            0.000481438918           
       1.992168             0.00955376902            0.000543563357           
       1.994808             0.00763614797            0.000483876278           
       1.997449             0.00743498253            0.000467654787           
       2.000089              0.0075267834            0.000468667523           
       2.002729             0.00811566322            0.000486947851           
       2.005370              0.0073091402            0.000457146495           
       2.008010             0.00724447935            0.000474982867           
       2.010650             0.00751644676            0.000487426629           
       2.013291             0.00723579701            0.000458845071           
       2.015931             0.00779896795            0.000472999376           
       2.018572             0.00802981918            0.000513350596           
       2.021212             0.00730057424            0.000480690902           
       2.023852             0.00758861385            0.000463839385           
       2.026493             0.00776327643            0.000490107483           
       2.029133             0.00720456227            0.000462640569           
       2.031774             0.00734012077            0.000490077499           
       2.034414              0.0071267628            0.000444337239           
       2.037054             0.00719610041            0.000457810672           
       2.039695             0.00774969264            0.000471505821           
       2.042335             0.00693542552            0.000463541558           
       2.044975              0.0075730047             0.00047850583           
       2.047616             0.00745142576            0.000473470203           
       2.050256             0.00777458005             0.00048820484           
       2.052897             0.00813634826            0.000508641673           
       2.055537             0.00747774216            0.000471267176           
       2.058177             0.00731955071            0.000456590063           
       2.060818             0.00767977883            0.000489942082           
       2.063458              0.0075980385            0.000507843911           
       2.066098             0.00705530299            0.000461639839           
       2.068739             0.00831820262            0.000509048231           
       2.071379             0.00773959649            0.000503830789           
       2.074020             0.00724369228            0.000476829417           
       2.076660             0.00729920085            0.000482522315           
       2.079300             0.00739548257            0.000497594783           
       2.081941             0.00732515469            0.000453433232           
       2.084581             0.00662593139            0.000455187856           
       2.087222             0.00785388339             0.00047793476           
       2.089862             0.00661839885            0.000477849998           
       2.092502             0.00689755324             0.00047287517           
       2.095143              0.0085100838            0.000542398979           
       2.097783             0.00770159935            0.000499566461           
       2.100423             0.00718166244            0.000464845375           
       2.103064             0.00731702117            0.000486863851           
       2.105704              0.0089749068            0.000536535954           
       2.108345             0.00826113165            0.000494545388           
       2.110985             0.00726754646            0.000495428482           
       2.113625             0.00649580532            0.000472472975           
       2.116266             0.00735980072            0.000510048898           
       2.118906             0.00756077888             0.00048178343           
       2.121546             0.00731967291            0.000464988516           
       2.124187             0.00702248029            0.000478082881           
       2.126827              0.0075120457            0.000499985305           
       2.129468             0.00794025756            0.000515351262           
       2.132108              0.0080804247            0.000505803715           
       2.134748             0.00794854577            0.000499712848           
       2.137389             0.00748000065            0.000505725925           
       2.140029             0.00718294602            0.000443675434           
       2.142670             0.00754200635            0.000485872248           
       2.145310             0.00714632888            0.000460335919           
       2.147950             0.00770067194            0.000491844761           
       2.150591             0.00761075779            0.000484023395           
       2.153231             0.00750619652            0.000494792523           
       2.155871             0.00821894116            0.000500182073           
       2.158512             0.00755684703            0.000500441645           
       2.161152             0.00715714294            0.000471764666           
       2.163793              0.0076409337            0.000485254104           
       2.166433             0.00763419015            0.000498084905           
       2.169073             0.00727497805            0.000475400475           
       2.171714             0.00737420509            0.000475053607           
       2.174354             0.00708306463             0.00048648955           
       2.176995             0.00695742522            0.000480126774           
       2.179635             0.00779055268            0.000536875682           
       2.182275             0.00771491967            0.000504429285           
       2.184916              0.0073907136            0.000476866159           
       2.187556             0.00729325121            0.000468963535           
       2.190196             0.00701721001            0.000480697006           
       2.192837             0.00749335635            0.000494035326           
       2.195477             0.00772997127            0.000478382569           
       2.198118              0.0078798633            0.000495374593           
       2.200758             0.00747881782            0.000495122349           
       2.203398             0.00723682329            0.000490161869           
       2.206039             0.00683311914             0.00045077187           
       2.208679             0.00722781097            0.000474397209           
       2.211319             0.00743345481            0.000483872601           
       2.213960             0.00647515654            0.000457657937           
       2.216600             0.00782717312             0.00052052245           
       2.219241             0.00788269547            0.000499240134           
       2.221881             0.00681646559            0.000465204341           
       2.224521             0.00728029809            0.000486662802           
       2.227162             0.00727968099            0.000476898464           
       2.229802             0.00737852446            0.000495155037           
       2.232443             0.00779119142            0.000500787747           
       2.235083              0.0081671576            0.000527852306           
       2.237723             0.00687819618            0.000464862938           
       2.240364             0.00808592216             0.00051644244           
       2.243004             0.00690635927            0.000473479368           
       2.245644             0.00801729781            0.000515247524           
       2.248285             0.00747263547            0.000487472671           
       2.250925             0.00617555401            0.000445842558           
       2.253566             0.00705641259            0.000509500186           
       2.256206             0.00718078536             0.00050369379           
       2.258846             0.00796971527            0.000504787797           
       2.261487             0.00725486925            0.000505502221           
       2.264127             0.00772858969            0.000503893182           
       2.266767               0.007192843            0.000499066005           
       2.269408              0.0068933477             0.00049056618           
       2.272048             0.00693086903            0.000488963264           
       2.274689             0.00737935392            0.000511183221           
       2.277329             0.00677108596            0.000461048522           
       2.279969             0.00773480064            0.000524522755           
       2.282610             0.00722647971            0.000492893507           
       2.285250             0.00655013414            0.000449146895           
       2.287891             0.00730237094            0.000508453451           
       2.290531             0.00778901225            0.000532181339           
       2.293171             0.00700962341            0.000491773436           
       2.295812             0.00729573145            0.000499692589           
       2.298452             0.00729551029            0.000522537736           
       2.301092             0.00740219335            0.000489038653           
       2.303733             0.00695780136            0.000493262591           
       2.306373             0.00660407347            0.000488128659           
       2.309014             0.00700262026            0.000492836444           
       2.311654             0.00730837153            0.000525406015           
       2.314294             0.00722545248             0.00048130466           
       2.316935             0.00698028759            0.000475023131           
       2.319575             0.00691594892            0.000495415221           
       2.322215             0.00760180091            0.000541302181           
       2.324856             0.00717588654            0.000483528481           
       2.327496             0.00718277942            0.000514389485           
       2.330137             0.00728636016             0.00049576872           
       2.332777             0.00706176432            0.000503250236           
       2.335417             0.00723175385            0.000494069299           
       2.338058             0.00687442162            0.000496097984           
       2.340698              0.0076291208            0.000518513755           
       2.343339             0.00736732422            0.000520752477           
       2.345979             0.00646344627            0.000461462244           
       2.348619             0.00704241402            0.000499294331           
       2.351260              0.0080726994             0.00053145628           
       2.353900             0.00674743658              0.0004843392           
       2.356540             0.00745177039            0.000508268292           
       2.359181             0.00735154301            0.000497760996           
       2.361821             0.00700799163             0.00046945454           
       2.364462             0.00695828992            0.000489246523           
       2.367102             0.00654519504            0.000487626412           
       2.369742             0.00712717239            0.000535593329           
       2.372383             0.00680492082            0.000473887592           
       2.375023             0.00752400026            0.000523818037           
       2.377663              0.0074357768            0.000497901933           
       2.380304             0.00648974953            0.000472907541           
       2.382944             0.00634453095            0.000445361411           
       2.385585             0.00823469076            0.000541133411           
       2.388225             0.00782731361            0.000525099409           
       2.390865             0.00739452435            0.000505133346           
       2.393506             0.00800804436             0.00051575376           
       2.396146             0.00692980045            0.000518756669           
       2.398787             0.00735402268            0.000492490347           
       2.401427              0.0077695007            0.000488610562           
       2.404067             0.00764468796            0.000495480898           
       2.406708             0.00658661871            0.000454400625           
       2.409348             0.00634665393            0.000473119496           
       2.411988             0.00684083774             0.00048126149           
       2.414629             0.00767193739            0.000525530884           
       2.417269             0.00789007457            0.000539172095           
       2.419910             0.00758675031            0.000529933459           
       2.422550             0.00695112517            0.000485304344           
       2.425190             0.00738482708             0.00052727894           
       2.427831             0.00728353653            0.000520706745           
       2.430471              0.0069929411             0.00048607696           
       2.433112             0.00653533433            0.000457574343           
       2.435752             0.00659684397            0.000486530053           
       2.438392             0.00617121465            0.000454198987           
       2.441033             0.00701875833            0.000513351084           
       2.443673             0.00694864434            0.000511173262           
       2.446313             0.00688801134            0.000509386885           
       2.448954             0.00750256113            0.000506181556           
       2.451594             0.00685991846            0.000520431864           
       2.454235             0.00726936581            0.000502659273           
       2.456875             0.00748662109            0.000533763454           
       2.459515              0.0072965188            0.000540584305           
       2.462156             0.00673470942            0.000490344234           
       2.464796              0.0071687685             0.00049937218           
       2.467436             0.00706485971            0.000512653236           
       2.470077             0.00784826908            0.000512134524           
       2.472717             0.00700117373            0.000485802502           
       2.475358             0.00670185015            0.000480260254           
       2.477998             0.00678404582            0.000475050384           
       2.480638             0.00788357961             0.00052120223           
       2.483279             0.00779077223            0.000541523523           
       2.485919             0.00761678079            0.000516021224           
       2.488560             0.00655473064            0.000477357858           
       2.491200             0.00870912984             0.00056660423           
       2.493840             0.00651516966            0.000518554867           
       2.496481             0.00650361455            0.000509619916           
       2.499121             0.00735634568            0.000527182499           
       2.501761             0.00678387855            0.000512962186           
       2.504402             0.00763707865            0.000536312756           
       2.507042             0.00701145799            0.000510069631           
       2.509683             0.00733435178            0.000513709245           
       2.512323             0.00745939581            0.000544102077           
       2.514963             0.00621767718            0.000490618303           
       2.517604             0.00779797701            0.000570128974           
       2.520244             0.00729492175            0.000516969093           
       2.522884             0.00805646412            0.000551052947           
       2.525525              0.0130305073            0.000708766719           
       2.528165              0.0116766854            0.000660479709           
       2.530806              0.0143250706            0.000744308049           
       2.533446              0.0137641272            0.000714017051           
       2.536086             0.00760415974            0.000525963079           
       2.538727              0.0073119015            0.000494790079           
       2.541367             0.00797873542            0.000521951227           
       2.544008              0.0067348527            0.000495250159           
       2.546648             0.00667472326            0.000501491246           
       2.549288             0.00654288113            0.000506630585           
       2.551929             0.00691148201            0.000512405743           
       2.554569             0.00663320312            0.000483619759           
       2.557209             0.00606120816            0.000466543612           
       2.559850             0.00707248521            0.000505581355           
       2.562490             0.00702249896            0.000520695603           
       2.565131             0.00713940364             0.00054435584           
       2.567771             0.00655510861            0.000502905672           
       2.570411             0.00626467882            0.000486319158           
       2.573052              0.0072752945            0.000530679662           
       2.575692             0.00626400728            0.000489435445           
       2.578332             0.00744532521            0.000535800782           
       2.580973             0.00643986165             0.00049356894           
       2.583613             0.00735474818            0.000514905338           
       2.586254             0.00726106428            0.000510904403           
       2.588894             0.00619156019            0.000489921043           
       2.591534             0.00760611687            0.000562116874           
       2.594175              0.0061927527            0.000497637739           
       2.596815             0.00809672302            0.000572373171           
       2.599456             0.00696153547            0.000503292862           
       2.602096             0.00790512334            0.000540399804           
       2.604736             0.00693167379            0.000518033434           
       2.607377             0.00699730033            0.000506763585           
       2.610017              0.0074016502            0.000512079203           
       2.612657              0.0074095528            0.000544964138           
       2.615298             0.00668789156            0.000505482723           
       2.617938             0.00725730071            0.000563286447           
       2.620579             0.00639840231             0.00050774326           
       2.623219             0.00698329432            0.000529686679           
       2.625859             0.00634745777             0.00049099872           
       2.628500             0.00583797801             0.00046779511           
       2.631140             0.00733964461            0.000532601855           
       2.633780             0.00744880592            0.000536081454           
       2.636421               0.006927569            0.000529698578           
       2.639061             0.00713572456            0.000506086459           
       2.641702               0.007813449            0.000541834482           
       2.644342             0.00716448989            0.000521056084           
       2.646982             0.00791211888            0.000539382204           
       2.649623             0.00718189182            0.000538535434           
       2.652263              0.0075948478            0.000548244457           
       2.654904             0.00638285941            0.000503105478           
       2.657544             0.00709983173            0.000499779587           
       2.660184             0.00650203833            0.000506156052           
       2.662825             0.00688598855            0.000532970635           
       2.665465             0.00702294269            0.000520571199           
       2.668105             0.00672944339            0.000537114099           
       2.670746             0.00774761199            0.000532393372           
       2.673386             0.00886945738            0.000587055303           
       2.676027             0.00852341314            0.000566253115           
       2.678667             0.00960687528            0.000586588409           
       2.681307             0.00946544956            0.000572098386           
       2.683948               0.016351034            0.000772564859           
       2.686588              0.0127552391            0.000671033325           
       2.689229              0.0107947343            0.000603213213           
       2.691869             0.00969793495             0.00060428057           
       2.694509              0.0099631039            0.000612822779           
       2.697150             0.00831597635             0.00055079554           
       2.699790             0.00692495491              0.0005269279           
       2.702430             0.00871426186            0.000565016723           
       2.705071             0.00680511111            0.000515934746           
       2.707711             0.00815429741            0.000548150121           
       2.710352             0.00703500514            0.000537971659           
       2.712992             0.00643940589             0.00052421189           
       2.715632             0.00686737223            0.000502266694           
       2.718273             0.00697497098            0.000524593857           
       2.720913              0.0073321264              0.0005363268           
       2.723553             0.00700081181            0.000527585561           
       2.726194             0.00690322137            0.000547643397           
       2.728834             0.00878300158            0.000618012338           
       2.731475             0.00729436563            0.000519792334           
       2.734115             0.00755367809            0.000545367097           
       2.736755             0.00700741424            0.000529600702           
       2.739396             0.00764901697             0.00055010921           
       2.742036             0.00749484627            0.000569892642           
       2.744677             0.00643246125             0.00051226586           
       2.747317             0.00639468108            0.000507117195           
       2.749957             0.00654129473            0.000516497127           
       2.752598             0.00778565874            0.000569602052           
       2.755238             0.00715189342            0.000555781967           
       2.757878             0.00759013491            0.000567550935           
       2.760519             0.00767712739             0.00056474183           
       2.763159             0.00906480787            0.000607530442           
       2.765800             0.00844305103            0.000558758628           
       2.768440             0.00764711649            0.000535686941           
       2.771080             0.00849816351            0.000569422735           
       2.773721             0.00690085958            0.000526362509           
       2.776361             0.00704841508            0.000539299053           
       2.779001              0.0072885493             0.00056793295           
       2.781642             0.00675536392            0.000542735844           
       2.784282             0.00728012068            0.000572686375           
       2.786923             0.00724924565             0.00057650238           
       2.789563             0.00649947304            0.000525742423           
       2.792203             0.00818472307            0.000563597628           
       2.794844             0.00660552962            0.000554913213           
       2.797484             0.00701064119            0.000539522859           
       2.800125              0.0073275649            0.000579989645           
       2.802765             0.00565598359            0.000500792858           
       2.805405             0.00654765123            0.000540647578           
       2.808046             0.00738693841            0.000584348711           
       2.810686             0.00666705077            0.000510114049           
       2.813326             0.00555874107             0.00048382555           
       2.815967             0.00699155146            0.000558037405           
       2.818607             0.00730376006              0.0005442807           
       2.821248             0.00764828472            0.000545406662           
       2.823888             0.00677717092             0.00053293052           
       2.826528             0.00690912841            0.000521117278           
       2.829169             0.00607487213            0.000511827014           
       2.831809             0.00624640429            0.000526062341           
       2.834449             0.00726101682            0.000570764387           
       2.837090             0.00652331519            0.000522514257           
       2.839730             0.00638241837            0.000514317129           
       2.842371             0.00664256889            0.000525451614           
       2.845011             0.00619589093            0.000511522346           
       2.847651              0.0069041242            0.000540629923           
       2.850292             0.00763619244            0.000574150383           
       2.852932             0.00755243971            0.000583436949           
       2.855573             0.00737382049            0.000559217733           
       2.858213              0.0069721952            0.000571029942           
       2.860853             0.00779990331            0.000561835194           
       2.863494             0.00623525955            0.000520095602           
       2.866134             0.00715491917            0.000579069888           
       2.868774             0.00647053288            0.000541204735           
       2.871415             0.00662366268            0.000556100507           
       2.874055             0.00669414525             0.00053438364           
       2.876696             0.00616639059            0.000526759159           
       2.879336             0.00815271728            0.000583765172           
       2.881976             0.00716346809            0.000564402411           
       2.884617             0.00728375034            0.000560762734           
       2.887257             0.00810290117             0.00059450808           
       2.889897             0.00828099196             0.00058863652           
       2.892538              0.0067835281            0.000583643514           
       2.895178             0.00606082259            0.000498404278           
       2.897819             0.00540831004            0.000480272394           
       2.900459             0.00635101548            0.000510324905           
       2.903099             0.00742244735            0.000546047391           
       2.905740             0.00748040928            0.000562357798           
       2.908380             0.00703528435            0.000551566191           
       2.911021             0.00670011558            0.000547018607           
       2.913661             0.00789483852            0.000593611691           
       2.916301             0.00765130529            0.000584941654           
       2.918942             0.00625805763            0.000506011868           
       2.921582             0.00662400231            0.000544693817           
       2.924222             0.00676296234            0.000533209971           
       2.926863             0.00725693664            0.000575325794           
       2.929503             0.00779308987            0.000603263508           
       2.932144             0.00726450213            0.000559111862           
       2.934784             0.00749016271             0.00055842029           
       2.937424              0.0080772231            0.000585844944           
       2.940065             0.00735868171            0.000533404922           
       2.942705             0.00683132427            0.000513291718           
       2.945346             0.00773353275            0.000579588466           
       2.947986             0.00704527418            0.000564069374           
       2.950626             0.00624578344            0.000528110606           
       2.953267             0.00638542037            0.000525353743           
       2.955907              0.0065123686            0.000550373031           
       2.958547             0.00663108339            0.000524294738           
       2.961188             0.00672812752            0.000550973757           
       2.963828             0.00803077435            0.000588821224           
       2.966469             0.00657011575            0.000522466837           
       2.969109              0.0065442288            0.000529162412           
       2.971749             0.00676856531            0.000534798645           
       2.974390             0.00759325049            0.000556633438           
       2.977030               0.008283234            0.000594366384           
       2.979670             0.00847955385             0.00058494679           
       2.982311             0.00979203131            0.000651500091           
       2.984951             0.00805094199             0.00056185225           
       2.987592             0.00697773807            0.000533542108           
       2.990232             0.00746753327            0.000574022337           
       2.992872              0.0081603072            0.000565221028           
       2.995513             0.00857916967             0.00056698645           
       2.998153              0.0116618504            0.000672155669           
       3.000794              0.0123294926            0.000669428848           
       3.003434              0.0108170956            0.000627975053           
       3.006074              0.0315753568             0.00105786705           
       3.008715              0.0962976256             0.00178333593           
       3.011355               0.229612194             0.00265549436           
       3.013995               0.140152278              0.0020803097           
       3.016636              0.0794481849             0.00153376098           
       3.019276               0.139359318             0.00199677086           
       3.021917               0.499586629             0.00363527121           
       3.024557                1.36002781             0.00589705646           
       3.027197                1.13379443             0.00524940064           
       3.029838               0.593780693             0.00385276567           
       3.032478               0.264130088             0.00257223033           
       3.035118              0.0685991581             0.00132845882           
       3.037759              0.0791068204             0.00142473788           
       3.040399               0.106692129             0.00170676588           
       3.043040               0.413031632             0.00339930681           
       3.045680               0.393609291             0.00312216272           
       3.048320               0.114881276               0.001723434           
       3.050961               0.115918942             0.00176170412           
       3.053601              0.0903664268             0.00149809819           
       3.056242               0.068456997             0.00138632707           
       3.058882              0.0602517398             0.00139515063           
       3.061522              0.0459977948             0.00119598735           
       3.064163              0.0571524084             0.00131635133           
       3.066803                0.11852241             0.00199569578           
       3.069443               0.115513623             0.00206133576           
       3.072084              0.0404382412             0.00118759455           
       3.074724              0.0408917154             0.00133368759           
       3.077365              0.0740682021             0.00185808652           
       3.080005              0.0131895406            0.000788531129           
       3.082645               0.013229115            0.000829612185           
       3.085286              0.0140949766            0.000863087634           
       3.087926              0.0105439885            0.000740738699           
       3.090566              0.0112175369            0.000748603514           
       3.093207              0.0122069923            0.000812629751           
       3.095847             0.00844050505            0.000647675948           
       3.098488             0.00885039285            0.000735392749           
       3.101128             0.00910472601            0.000750681218           
       3.103768              0.0103700028            0.000786073383           
       3.106409              0.0100456502            0.000823406114           
       3.109049             0.00905981315            0.000750408535           
       3.111690             0.00900233313            0.000735183034           
       3.114330             0.00849075051            0.000729176981           
       3.116970             0.00738614703            0.000685315078           
       3.119611              0.0103311472             0.00086272889           
       3.122251              0.0141250531             0.00105521446           
       3.124891              0.0331487346             0.00163157023           
       3.127532              0.0257943558             0.00140800026           
       3.130172              0.0161402324             0.00113301466           
       3.132813              0.0104608972            0.000897977824           
       3.135453             0.00755476724            0.000756832035           
       3.138093             0.00677374447            0.000776508948           
       3.140734             0.00651335898            0.000702485209           
       3.143374             0.00796798943            0.000821688835           
       3.146014             0.00686588279            0.000821133244           
       3.148655             0.00693706612             0.00076726611           
       3.151295             0.00606064818            0.000764248856           
       3.153936             0.00584845889            0.000725202929           
       3.156576             0.00584697379            0.000715247863           
       3.159216             0.00617049408            0.000738444404           
       3.161857             0.00508113981            0.000667370979           
       3.164497             0.00830667879            0.000896569758           
       3.167138             0.00816244856            0.000918297756           
       3.169778             0.00538370061            0.000733486185           
       3.172418             0.00684836477            0.000818850903           
       3.175059             0.00614714337            0.000687776827           
       3.177699             0.00699013511             0.00077664903           
       3.180339             0.00722705031            0.000846103134           
       3.182980             0.00571124483            0.000777653285           
       3.185620             0.00626133306            0.000829237166           
       3.188261             0.00728644274            0.000910510462           
       3.190901              0.0057747425            0.000745494209           
       3.193541             0.00561025338            0.000772097683           
       3.196182             0.00657234203            0.000870900607           
       3.198822             0.00566326298            0.000808699957           
       3.201463             0.00578446438            0.000803226712           
       3.204103              0.0052815586            0.000762846659           
       3.206743             0.00509157922            0.000748930788           
       3.209384             0.00667062045            0.000926166351           
       3.212024             0.00401402172            0.000669819486           
       3.214664              0.0060513899            0.000935212643           
       3.217305             0.00625333654            0.000903696043           
       3.219945              0.0042723715            0.000768821079           
       3.222586              0.0048805727            0.000782678816           
       3.225226              0.0067979842             0.00102471854           
       3.227866             0.00525391337            0.000823374461           
       3.230507              0.0064974983            0.000949170185           
       3.233147             0.00648280076            0.000955751791           
       3.235787             0.00367497776            0.000736420663           
       3.238428             0.00637314737             0.00104652104           
       3.241068             0.00538787482            0.000899734602           
       3.243709             0.00577413195            0.000962312536           
       3.246349             0.00529928189            0.000840392943           
       3.248989             0.00596648199             0.00105293377           
       3.251630              0.0051656141            0.000943445575           
       3.254270             0.00644903066            0.000942125732           
       3.256911             0.00524238375            0.000926819096           
       3.259551             0.00474139339            0.000948928689           
       3.262191              0.0043310662            0.000926392711           
       3.264832             0.00538350344             0.00107915602           
       3.267472             0.00550590077             0.00102380807           
       3.270112             0.00463474047             0.00103807667           
       3.272753             0.00388744127            0.000870208706           
       3.275393             0.00649608787             0.00114779922           
       3.278034              0.0040142976             0.00090279512           
       3.280674             0.00548814924             0.00114546728           
       3.283314             0.00479160365            0.000957237689           
       3.285955             0.00651564373             0.00115171572           
       3.288595             0.00606425916             0.00123614707           
       3.291235             0.00608940621             0.00127338064           
       3.293876              0.0043729273             0.00109459449           
       3.296516             0.00479546255              0.0011004334           
       3.299157             0.00837239825             0.00143576017           
       3.301797              0.0067043707             0.00146555334           
       3.304437             0.00676064129             0.00127504481           
       3.307078              0.0052146788             0.00123354237           
       3.309718             0.00435010285             0.00116290798           
       3.312359             0.00373110346              0.0010772522           
       3.314999             0.00452169433             0.00116761903           
       3.317639             0.00690404978             0.00137984943           
       3.320280             0.00436292187             0.00116623489           
       3.322920             0.00580834229             0.00136827117           
       3.325560             0.00608978476             0.00140198058           
       3.328201             0.00573857341             0.00122570184           
       3.330841             0.00385027722             0.00122191714           
       3.333482             0.00764833488             0.00162785795           
       3.336122             0.00343741154             0.00109181338           
       3.338762             0.00274748063             0.00112756135           
       3.341403             0.00803547977             0.00184258548           
       3.344043             0.00464830196             0.00134548062           
       3.346683               0.010132623             0.00202806695           
       3.349324             0.00771559756             0.00198975475           
       3.351964             0.00456057691              0.0016176692           
       3.354605             0.00601763195             0.00212513658           
       3.357245             0.00481411983             0.00171470827           
       3.359885             0.00707942602             0.00166424167           
       3.362526             0.00242187153             0.00121728186           
       3.365166             0.00268539603             0.00120898414           
       3.367807              0.0035864189             0.00178808411           
       3.370447             0.00552662421             0.00184124265           
       3.373087             0.00277532351             0.00139529206           
       3.375728             0.00531903297             0.00218003711           
       3.378368             0.00595111882             0.00342228958           
       3.381008             0.00554290262             0.00246243176           
       3.383649             0.00629123774             0.00210449592           
       3.386289             0.00391048669             0.00196370383           
       3.388930             0.00248913613             0.00247815359           
       3.391570             0.00856192609             0.00325126314           
       3.394210             0.00593499376             0.00342567758           
       3.396851              0.0123376081             0.00552491543           
       3.399491             0.00712942842             0.00420106688           
       3.402131             0.00482060101             0.00488741617           
       3.404772           -2.64852107e-05                         0           
       3.407412                       nan                       nan           
       3.410053           -2.65504439e-05                         0           
       3.412693                       nan                       nan           
       3.415333           -2.66011813e-05                         0           
