################################################################################
# EDF_DataBlockID                     0.Image.Psd
# EDF_BinarySize                      4366944
# EDF_HeaderSize                      2560
# ByteOrder                           LowByteFirst
# DataType                            FloatValue
# Dim_1                               1028
# Dim_2                               1062
# Image                               0
# HeaderID                            EH:000000:000000:000000
# Size                                4366944
# Center_1                            607.5200
# Center_2                            651.5500
# Comment                             Xenocs_Cell_Window - 20251028_20perc_iodine_1.23mg
# DDummy                              0.6
# Date                                2025-10-31T10:00:45
# Delta                               0
# Dummy                               -1.5
# ExposureTime                        360
# Gamma                               0
# Intensity1                          8.52121e-10
# PSize_1                             7.5e-05
# PSize_2                             7.5e-05
# Pressure                            0.0328026
# SampleDistance                      0.450002
# SampleEnvKind                       large
# SampleEnvPN                         ElectroChemical cell
# SampleEnvSN                         1141
# Thickness                           0
# Wavelength                          1.541891e-10
# Wavelength                          1.54189e-10
# aux                                 0
# aux_dial                            0.002375
# beamx                               588.434
# beamx_dial                          588.434
# beamz                               657.808
# beamz_dial                          657.808
# det0x                               0
# det0x_dial                          6.36945
# det0xvd                             0
# det0xvd_dial                        0
# det0y                               450.002
# det0y_dial                          481.635
# det0z                               0
# det0z_dial                          1.23302
# det0zvd                             0
# det0zvd_dial                        0
# mag                                 1.818
# mag_dial                            1.818
# om                                  0.2499
# om_dial                             -0.610199
# phi                                 -0.0120535
# phi_dial                            0
# ry                                  0.599993
# ry_dial                             0.599993
# s1bot                               0.8
# s1bot_dial                          -1.66094
# s1hl                                0.8
# s1hl_dial                           -0.608437
# s1hr                                0.8
# s1hr_dial                           0.970938
# s1top                               0.8
# s1top_dial                          -0.461562
# s2bot                               0.45
# s2bot_dial                          1.36109
# s2hl                                0.45
# s2hl_dial                           -0.83375
# s2hr                                0.45
# s2hr_dial                           -0.118594
# s2top                               0.45
# s2top_dial                          1.44734
# w2theta                             32
# w2theta_dial                        32
# waxsch                              19.2605
# waxsch_dial                         -32.7355
# waxsh                               137.085
# waxsh_dial                          -43.5338
# waxsth                              26.0607
# waxsth_dial                         -19.4086
# waxsz                               67.0407
# waxsz_dial                          -23.7954
# wind                                65.9854
# wind_dial                           66.0041
# wpsi                                124
# wpsi_dial                           124
# wstod                               115
# wstod_dial                          115
# x                                   0
# x_dial                              1.00969
# z                                   0
# z_dial                              13.3172
# CountCutoff                         15302352
# DetectorModel                       Dectris EIGER2 Si 1M, S/N E-02-0362
# ThresholdSetting                    4023.88989258
# Saturation                          0
# FlatField                           Corrected
# BackgroundReductionExtra            0.02
# BackgroundCorrectionConstant        0.0026712
# Detector                            0
# Monitor                             0
# Pil_Roi0                            0
# SumForIntensity1                    3.06763e+08
# TransmittedFlux                     852121
# det                                 0
# mon                                 0
# pilai0                              3.06763e+08
# pilai1                              782556
# pilct0                              5.31034e+08
# pilct1                              782556
# pilroi0                             0
# pilroi1                             0
# sec                                 1
# title                               20251028_20perc_iodine_1.23mg_0_00615.edf
# usaxs0                              0
# Operation                           Azimuthal average I(q)
# Error_model                         ErrorModel.poisson
# Geometrical_correction              True
# Transmission_correction             True
# Thickness_correction                False
# Binning mode                        Uniform
# Binning factor                      1.0
# Psi                                 0.0
# Omega                               0.2499
# MaskInvalidPixels                   True
# DetectorEdge                        3
# MaskFiles                           ['20251028_20perc_iodine_1.23mg_0_00012_mask.edf']
################################################################################
    q(A⁻¹)                Intensity(a.u.)            Sigma_I(a.u.)            
       0.000340                371664.634                120.577505           
       0.001019                359246.794                 72.594342           
       0.001698                349867.235                50.6574117           
       0.002377                330918.957                44.0653504           
       0.003056                307878.989                35.9221634           
       0.003735                253496.371                28.7465801           
       0.004415                205163.469                25.8613048           
       0.005094                 153071.48                19.3454266           
       0.005773                101110.893                14.5564978           
       0.006452                58969.4098                10.6512501           
       0.007131                32365.0448                7.64422945           
       0.007810                16141.0983                5.35731337           
       0.008490                8053.92649                 3.3544157           
       0.009169                3837.93293                2.28850783           
       0.009848                1184.98076                1.22946149           
       0.010527                460.111298               0.766109754           
       0.011206                115.955528               0.367061454           
       0.011885                53.8452226               0.232399243           
       0.012564                25.0721435               0.162812829           
       0.013244                16.8861935               0.124916194           
       0.013923                12.4022555               0.108780953           
       0.014602                9.42327237              0.0879403766           
       0.015281                7.34195124              0.0790172791           
       0.015960                6.11633242              0.0716040838           
       0.016639                4.96817974              0.0609404311           
       0.017319                4.05642226               0.054208979           
       0.017998                3.46959118              0.0479634226           
       0.018677                2.91745965              0.0455531686           
       0.019356                 2.4150397              0.0409522157           
       0.020035                2.09583128              0.0357920591           
       0.020714                1.91113285              0.0345403074           
       0.021394                1.62193134              0.0301069558           
       0.022073                1.37323357              0.0288225352           
       0.022752                1.25680872              0.0263771634           
       0.023431                1.05535799              0.0234623059           
       0.024110                1.00196561              0.0238343828           
       0.024789               0.861505453              0.0205251678           
       0.025469               0.825866826              0.0207092695           
       0.026148               0.721816813              0.0181910682           
       0.026827               0.678885905              0.0179241249           
       0.027506               0.639842194              0.0176520046           
       0.028185               0.549199855              0.0155958523           
       0.028864               0.498816559              0.0147798711           
       0.029544               0.456276679              0.0137075587           
       0.030223               0.445241475              0.0137349517           
       0.030902                0.39087377              0.0129868499           
       0.031581               0.371632582              0.0120377266           
       0.032260               0.355288738              0.0119705998           
       0.032939               0.310217747              0.0107853367           
       0.033619               0.282803349              0.0104491009           
       0.034298               0.272439205              0.0099805996           
       0.034977               0.262034719             0.00959580619           
       0.035656               0.219713705             0.00901934845           
       0.036335                0.22865294             0.00892381601           
       0.037014               0.209673808             0.00857092747           
       0.037693               0.192226018              0.0078946147           
       0.038373               0.187952373             0.00788297036           
       0.039052               0.170459428             0.00753911504           
       0.039731               0.161339012              0.0071637222           
       0.040410               0.156739956             0.00701354122           
       0.041089               0.151144921             0.00677934156           
       0.041768               0.144739974             0.00666880555           
       0.042448               0.138877103             0.00648165736           
       0.043127               0.129144738             0.00610279663           
       0.043806               0.127021634             0.00609755285           
       0.044485               0.122748729             0.00587097795           
       0.045164               0.124584467             0.00603128971           
       0.045843               0.110121563             0.00543861043           
       0.046523               0.105701465              0.0053467437           
       0.047202               0.111929842             0.00554046271           
       0.047881              0.0954317778             0.00501721521           
       0.048560               0.100170736             0.00518713096           
       0.049239              0.0816726257             0.00449725906           
       0.049918              0.0821613867               0.004598875           
       0.050598              0.0888920606             0.00471176961           
       0.051277              0.0888227275             0.00469498622           
       0.051956               0.086209306             0.00459635465           
       0.052635              0.0775876293             0.00426792581           
       0.053314              0.0720614504             0.00423338257           
       0.053993              0.0811194623             0.00436838276           
       0.054673              0.0813975382             0.00427838907           
       0.055352              0.0749145154             0.00416476386           
       0.056031              0.0734208219             0.00403640419           
       0.056710              0.0679399056             0.00397797045           
       0.057389              0.0685784111             0.00385398421           
       0.058068              0.0620399431              0.0037034446           
       0.058748              0.0669966268             0.00389655273           
       0.059427              0.0636679277              0.0037342079           
       0.060106              0.0592695142             0.00363701364           
       0.060785              0.0591411359             0.00352421724           
       0.061464              0.0662020611             0.00381854167           
       0.062143              0.0551754206             0.00345064586           
       0.062822              0.0594550311             0.00353993578           
       0.063502              0.0592454741             0.00352737844           
       0.064181              0.0606540171              0.0035313748           
       0.064860              0.0510507806             0.00328912293           
       0.065539               0.058656936             0.00349116975           
       0.066218              0.0510037467             0.00318575443           
       0.066897              0.0508631325             0.00320591894           
       0.067577               0.047576419             0.00313039618           
       0.068256              0.0468686895             0.00318334828           
       0.068935               0.048955216             0.00320082952           
       0.069614              0.0476735981             0.00319009755           
       0.070293              0.0496315062             0.00328495972           
       0.070972              0.0455444416             0.00312375865           
       0.071652              0.0413304053             0.00298119562           
       0.072331              0.0450255065             0.00305615229           
       0.073010              0.0371532889             0.00283959138           
       0.073689              0.0369420998             0.00281594984           
       0.074368              0.0424108606             0.00301170277           
       0.075047              0.0420943912             0.00296819497           
       0.075727              0.0362026902              0.0027356468           
       0.076406              0.0370257835             0.00282176993           
       0.077085              0.0354310903              0.0027087477           
       0.077764              0.0401741414             0.00287425402           
       0.078443              0.0364654192             0.00275532634           
       0.079122              0.0388094768             0.00281519865           
       0.079802              0.0350346562             0.00270315472           
       0.080481              0.0360543126             0.00264970957           
       0.081160              0.0369365372             0.00273696533           
       0.081839              0.0367235435              0.0026853714           
       0.082518              0.0358634064             0.00265597171           
       0.083197              0.0356588013             0.00260723431           
       0.083876              0.0317017644             0.00241747118           
       0.084556              0.0314199078              0.0024736335           
       0.085235              0.0337405104             0.00251382976           
       0.085914              0.0340397814             0.00254948171           
       0.086593              0.0292651066             0.00234870998           
       0.087272              0.0327907609             0.00245102318           
       0.087951              0.0291733031             0.00236409856           
       0.088631               0.029487853             0.00229585403           
       0.089310               0.030792721             0.00239586053           
       0.089989              0.0296997582             0.00232544874           
       0.090668              0.0307117776             0.00239083914           
       0.091347              0.0299272998             0.00237332062           
       0.092026              0.0326800164             0.00237054491           
       0.092706              0.0293371295             0.00232755612           
       0.093385              0.0266479095             0.00218424841           
       0.094064              0.0282173103             0.00227380722           
       0.094743              0.0302070184             0.00231675738           
       0.095422              0.0260761907             0.00212852443           
       0.096101              0.0291817734             0.00229808435           
       0.096781              0.0280004911             0.00221885854           
       0.097460              0.0257151333             0.00206837672           
       0.098139              0.0256152731             0.00204847246           
       0.098818              0.0270661547             0.00207975626           
       0.099497              0.0291556398             0.00216297354           
       0.100176              0.0256375099              0.0019750468           
       0.100856              0.0274348424             0.00204179587           
       0.101535              0.0258056296             0.00197642304           
       0.102214              0.0276524756             0.00204593757           
       0.102893              0.0280008652             0.00203532809           
       0.103572              0.0251786799             0.00190152281           
       0.104251              0.0267973415             0.00196893937           
       0.104931              0.0223332206             0.00178110786           
       0.105610              0.0258194626             0.00192325452           
       0.106289              0.0237274528             0.00181301146           
       0.106968              0.0243077657             0.00184049436           
       0.107647               0.025292658             0.00187853714           
       0.108326              0.0242253489             0.00181387946           
       0.109005              0.0247077132             0.00182032354           
       0.109685              0.0240326817             0.00177514743           
       0.110364              0.0225881149              0.0017405167           
       0.111043              0.0211882807             0.00167903862           
       0.111722              0.0236605182              0.0017526047           
       0.112401              0.0217912511             0.00168662664           
       0.113080              0.0230728816             0.00171562853           
       0.113760               0.026643652             0.00187440398           
       0.114439              0.0236179441             0.00173958067           
       0.115118              0.0212688654              0.0016383572           
       0.115797              0.0216328117             0.00166762248           
       0.116476              0.0226207016             0.00167975148           
       0.117155              0.0233411004             0.00172005115           
       0.117835              0.0216708514             0.00162441895           
       0.118514              0.0207452468             0.00160950144           
       0.119193              0.0187608925             0.00153060084           
       0.119872              0.0203291467             0.00157336356           
       0.120551              0.0246293732             0.00172025822           
       0.121230              0.0235356865             0.00166470704           
       0.121910              0.0219810253             0.00162433476           
       0.122589              0.0220062428             0.00162694101           
       0.123268              0.0200090651              0.0015213038           
       0.123947              0.0206264325             0.00155458441           
       0.124626              0.0204777114             0.00153003082           
       0.125305              0.0204987892             0.00153833023           
       0.125985              0.0219398726              0.0015791358           
       0.126664              0.0216073517             0.00155219596           
       0.127343              0.0207588282             0.00153904841           
       0.128022              0.0212340225             0.00154462522           
       0.128701              0.0223282278              0.0015756722           
       0.129380              0.0184978136              0.0014162022           
       0.130059              0.0200941505             0.00147947389           
       0.130739              0.0192922911             0.00145984844           
       0.131418              0.0190882621             0.00144804295           
       0.132097              0.0198806573             0.00145884064           
       0.132776              0.0163860237             0.00131845141           
       0.133455              0.0194677407              0.0014482588           
       0.134134              0.0209600801             0.00149795796           
       0.134814              0.0224378817             0.00153389637           
       0.135493              0.0180426065             0.00138104794           
       0.136172              0.0219186729             0.00151068974           
       0.136851               0.018828328             0.00140829139           
       0.137530              0.0185450516             0.00136445119           
       0.138209              0.0197803837             0.00142570766           
       0.138889               0.019454527              0.0014201481           
       0.139568              0.0193272324             0.00141488256           
       0.140247              0.0222679618             0.00151672303           
       0.140926              0.0204217563             0.00141095727           
       0.141605              0.0188511726             0.00139005584           
       0.142284              0.0200891474             0.00141119479           
       0.142964              0.0179410549             0.00133871495           
       0.143643              0.0186047153             0.00136152829           
       0.144322              0.0182907409             0.00132174181           
       0.145001              0.0207573443             0.00143694787           
       0.145680              0.0166410715             0.00125616743           
       0.146359              0.0217318773             0.00144075868           
       0.147039              0.0188893311              0.0013542903           
       0.147718              0.0171292666             0.00126837211           
       0.148397              0.0178815957             0.00131606454           
       0.149076              0.0197504055             0.00134022008           
       0.149755              0.0179365421             0.00129691646           
       0.150434              0.0166449186             0.00124985808           
       0.151114              0.0198088565             0.00135594094           
       0.151793              0.0172100186             0.00126387978           
       0.152472              0.0168709928             0.00122926473           
       0.153151              0.0184792215             0.00129895908           
       0.153830                0.01640263             0.00121488343           
       0.154509              0.0175095521             0.00124996998           
       0.155188              0.0184063157             0.00128110565           
       0.155868              0.0189916854              0.0012920572           
       0.156547              0.0179901123             0.00126560361           
       0.157226              0.0188390693             0.00126348871           
       0.157905               0.017245324              0.0012190176           
       0.158584              0.0184831376             0.00125971538           
       0.159263              0.0162083304             0.00118399198           
       0.159943              0.0157744046             0.00116890682           
       0.160622              0.0179272819              0.0012220738           
       0.161301              0.0175647493             0.00122583351           
       0.161980              0.0190329037             0.00125434286           
       0.162659              0.0168214424              0.0011922917           
       0.163338              0.0163843678             0.00116710918           
       0.164018              0.0180143601              0.0012173645           
       0.164697              0.0186688888             0.00125519569           
       0.165376              0.0163832688             0.00115016061           
       0.166055              0.0173239982             0.00119052099           
       0.166734              0.0167735956             0.00116620867           
       0.167413              0.0176952033             0.00119865699           
       0.168093              0.0184611159             0.00123590458           
       0.168772               0.017849265              0.0011797115           
       0.169451              0.0160902342             0.00114068177           
       0.170130              0.0172251745             0.00116473163           
       0.170809              0.0160515089             0.00113776918           
       0.171488              0.0166853269             0.00114944016           
       0.172168              0.0184638893             0.00119753517           
       0.172847              0.0141793847             0.00106321993           
       0.173526              0.0167075332             0.00113210237           
       0.174205              0.0154589643             0.00109399488           
       0.174884              0.0175147855             0.00115839955           
       0.175563              0.0147301493             0.00106686599           
       0.176243              0.0175453701             0.00117601333           
       0.176922              0.0170327203             0.00112850948           
       0.177601              0.0148164457             0.00106409888           
       0.178280              0.0171543811             0.00113219791           
       0.178959              0.0184217166             0.00118271217           
       0.179638               0.017056158             0.00113475521           
       0.180317              0.0173065126             0.00113472588           
       0.180997              0.0159868965             0.00109652654           
       0.181676              0.0170382807             0.00111992186           
       0.182355              0.0177153945             0.00114881682           
       0.183034              0.0159719039             0.00107331474           
       0.183713              0.0154155394              0.0010672968           
       0.184392              0.0174065558             0.00113378543           
       0.185072              0.0164091055             0.00108827585           
       0.185751              0.0172393897             0.00111857213           
       0.186430              0.0165651512             0.00108880029           
       0.187109              0.0186190818             0.00116718462           
       0.187788              0.0180171454               0.001145332           
       0.188467              0.0170167823             0.00109990957           
       0.189147              0.0158436712             0.00107206747           
       0.189826              0.0175162902             0.00110730334           
       0.190505              0.0181159922             0.00114463622           
       0.191184              0.0147912293             0.00101937466           
       0.191863              0.0166911599             0.00108514786           
       0.192542              0.0149948984             0.00103823039           
       0.193222              0.0161555451             0.00105351192           
       0.193901              0.0158216711             0.00105654319           
       0.194580              0.0162100084             0.00105072382           
       0.195259              0.0150669507             0.00102463459           
       0.195938              0.0171832747             0.00109684391           
       0.196617               0.015811953             0.00103748007           
       0.197297              0.0169024283             0.00107703849           
       0.197976              0.0174412365             0.00107726514           
       0.198655              0.0163470945             0.00105431955           
       0.199334              0.0149151944            0.000998204518           
       0.200013              0.0148213981            0.000994509163           
       0.200692              0.0152117599             0.00101358082           
       0.201371              0.0168502206             0.00105475743           
       0.202051              0.0150838692             0.00100104737           
       0.202730              0.0164197135              0.0010340024           
       0.203409              0.0135212433            0.000944610297           
       0.204088              0.0156210298             0.00101418822           
       0.204767              0.0136228062            0.000942124734           
       0.205446              0.0165573954             0.00104068418           
       0.206126              0.0152699398            0.000985827138           
       0.206805              0.0165058442             0.00104373578           
       0.207484              0.0138170977            0.000937781215           
       0.208163              0.0152748128            0.000991934436           
       0.208842              0.0156258881             0.00100055028           
       0.209521              0.0159418588             0.00100221683           
       0.210201              0.0157171825             0.00100623428           
       0.210880              0.0157082955            0.000986209968           
       0.211559              0.0156228626            0.000998065922           
       0.212238              0.0145062961            0.000956845096           
       0.212917              0.0150174626            0.000969940411           
       0.213596               0.015133321            0.000979431938           
       0.214276              0.0163277319            0.000996154281           
       0.214955              0.0157645143            0.000999406521           
       0.215634              0.0150486957            0.000969454748           
       0.216313              0.0139726252            0.000932189494           
       0.216992              0.0155982604            0.000984678615           
       0.217671              0.0139097849            0.000923559551           
       0.218351              0.0158093176            0.000994232801           
       0.219030              0.0142671558            0.000929587611           
       0.219709              0.0140948843            0.000929721752           
       0.220388               0.015072924            0.000960202216           
       0.221067              0.0143300814              0.0009369846           
       0.221746              0.0128310552            0.000885715451           
       0.222426              0.0151613071            0.000948400739           
       0.223105              0.0150824442            0.000958817811           
       0.223784              0.0149209165            0.000944210072           
       0.224463              0.0150330484            0.000955298904           
       0.225142              0.0142651887            0.000915857585           
       0.225821              0.0150815792            0.000945493257           
       0.226500              0.0135960799            0.000903430062           
       0.227180              0.0136340504            0.000890752805           
       0.227859              0.0138375118            0.000901400323           
       0.228538              0.0168195736            0.000983814451           
       0.229217              0.0146315673            0.000924858429           
       0.229896              0.0155130793             0.00095185262           
       0.230575              0.0142640367            0.000898179641           
       0.231255              0.0150600798            0.000936719526           
       0.231934              0.0163930942            0.000970619781           
       0.232613              0.0141393346            0.000904758141           
       0.233292              0.0156871192             0.00094378511           
       0.233971              0.0147696941            0.000915344446           
       0.234650              0.0143540473            0.000912986857           
       0.235330              0.0145152936            0.000910083407           
       0.236009              0.0135312073            0.000876797729           
       0.236688              0.0134970158            0.000872555412           
       0.237367              0.0146578374             0.00091062466           
       0.238046              0.0143603573            0.000907684402           
       0.238725              0.0154494455            0.000926949889           
       0.239405               0.014976034            0.000918296546           
       0.240084              0.0151286166            0.000917085631           
       0.240763              0.0138274058            0.000885155048           
       0.241442              0.0139329739            0.000876007807           
       0.242121              0.0149331596            0.000908617129           
       0.242800              0.0134135776            0.000865224017           
       0.243480              0.0139434614            0.000878017733           
       0.244159              0.0145690195            0.000897931566           
       0.244838              0.0141235411            0.000869549412           
       0.245517              0.0133333459            0.000857027346           
       0.246196              0.0137733017             0.00087147212           
       0.246875              0.0144071076            0.000878873357           
       0.247554              0.0151397412            0.000910099084           
       0.248234               0.014476307             0.00087644092           
       0.248913              0.0136569155            0.000860824216           
       0.249592              0.0126568711            0.000820832932           
       0.250271              0.0144802152            0.000875419473           
       0.250950              0.0146260169            0.000885204477           
       0.251629              0.0128858413            0.000823815464           
       0.252309              0.0144347083            0.000873691465           
       0.252988              0.0143400853            0.000855822811           
       0.253667              0.0148878139            0.000882202479           
       0.254346              0.0139956961            0.000855186189           
       0.255025              0.0143487187            0.000864007677           
       0.255704              0.0130732141            0.000820934585           
       0.256384              0.0152325465            0.000883076975           
       0.257063              0.0138703063            0.000847470143           
       0.257742              0.0143767899            0.000856826167           
       0.258421              0.0140680462            0.000845944536           
       0.259100              0.0120759824            0.000785132427           
       0.259779              0.0148579682            0.000870147916           
       0.260459              0.0124334328            0.000797555517           
       0.261138              0.0107961443            0.000728666123           
       0.261817              0.0125134309            0.000800316427           
       0.262496              0.0131217155            0.000811500212           
       0.263175              0.0134274164            0.000822661867           
       0.263854              0.0131939426            0.000811689698           
       0.264534                0.01298406            0.000798330735           
       0.265213              0.0136413465             0.00083118332           
       0.265892              0.0119663944            0.000768510538           
       0.266571              0.0124004563            0.000780545558           
       0.267250              0.0126417334            0.000789430176           
       0.267929              0.0130530932            0.000801348785           
       0.268609              0.0122610903            0.000780909694           
       0.269288              0.0116467013            0.000748449572           
       0.269967              0.0117153238            0.000758738996           
       0.270646              0.0111288565            0.000736307271           
       0.271325              0.0123197332            0.000775995518           
       0.272004              0.0129398339            0.000787357532           
       0.272683              0.0119749624            0.000758369752           
       0.273363              0.0110127414            0.000731901649           
       0.274042              0.0118884081            0.000755956753           
       0.274721               0.012826804            0.000784759837           
       0.275400               0.010459073            0.000703945598           
       0.276079              0.0118744762            0.000754325481           
       0.276758              0.0126357649            0.000787949979           
       0.277438              0.0103754879            0.000705991615           
       0.278117              0.0115655512            0.000758934983           
       0.278796              0.0113276924             0.00074346644           
       0.279475              0.0116130992            0.000765209599           
       0.280154              0.0115695094            0.000752785829           
       0.280833              0.0126029741            0.000790466664           
       0.281513              0.0109780945            0.000749326557           
       0.282192              0.0112236395            0.000744734303           
       0.282871              0.0114308933            0.000756830793           
       0.283550              0.0118353395            0.000774230402           
       0.284229              0.0110624873            0.000759518776           
       0.284908              0.0120727418            0.000801810801           
       0.285588              0.0111027965             0.00075992285           
       0.286267              0.0114258209            0.000783241608           
       0.286946              0.0106302594            0.000750568799           
       0.287625              0.0111304571            0.000781101432           
       0.288304              0.0110765325            0.000768777648           
       0.288983              0.0110953736            0.000779175016           
       0.289663             0.00990738292            0.000740590227           
       0.290342              0.0107811859            0.000768446756           
       0.291021             0.00985511912            0.000738660588           
       0.291700              0.0124930595            0.000820800417           
       0.292379             0.00986472813            0.000746065961           
       0.293058              0.0126020544            0.000840062823           
       0.293738              0.0105578858            0.000762460272           
       0.294417              0.0101816802             0.00075745572           
       0.295096             0.00965120026            0.000729352402           
       0.295775              0.0097375651            0.000743796839           
       0.296454             0.00996376508            0.000742654622           
       0.297133              0.0102259325            0.000755920997           
       0.297812              0.0111796996            0.000794351599           
       0.298492               0.010442928            0.000769213922           
       0.299171              0.0105545307            0.000771850228           
       0.299850             0.00963087544            0.000732269025           
       0.300529              0.0102009003            0.000762117234           
       0.301208              0.0103635493            0.000770038263           
       0.301887              0.0107356099            0.000782807576           
       0.302567             0.00956598159            0.000735234477           
       0.303246              0.0101005046            0.000760429292           
       0.303925             0.00883169956            0.000720195143           
       0.304604             0.00900588381            0.000711558852           
       0.305283             0.00905635474            0.000724132719           
       0.305962              0.0100870513            0.000759612279           
       0.306642             0.00960025613            0.000751121043           
       0.307321              0.0113465604            0.000813976053           
       0.308000             0.00890943976            0.000712731838           
       0.308679             0.00989195642            0.000767267105           
       0.309358             0.00905858135            0.000724303749           
       0.310037             0.00722891709            0.000648475866           
       0.310717             0.00867466085            0.000709684641           
       0.311396             0.00877207152            0.000718444412           
       0.312075             0.00987490693            0.000771936052           
       0.312754             0.00898874049            0.000721751775           
       0.313433             0.00865629351            0.000714439055           
       0.314112             0.00987666951            0.000762965254           
       0.314792               0.010177013            0.000779948188           
       0.315471             0.00851411224            0.000704564957           
       0.316150             0.00938038093            0.000746384234           
       0.316829             0.00928218801            0.000747370349           
       0.317508             0.00856282887            0.000709771337           
       0.318187              0.0095609756             0.00075989314           
       0.318866             0.00950109544            0.000747305326           
       0.319546              0.0100292369            0.000779303851           
       0.320225             0.00820738173            0.000704991183           
       0.320904             0.00812553396            0.000690620991           
       0.321583             0.00758983176            0.000682174581           
       0.322262             0.00770403482            0.000676871212           
       0.322941              0.0101663203            0.000787512593           
       0.323621             0.00775883697            0.000683778452           
       0.324300             0.00774844143            0.000683855794           
       0.324979             0.00657355428            0.000631018257           
       0.325658              0.0078211505            0.000689547659           
       0.326337              0.0074774567            0.000675106704           
       0.327016             0.00659474614            0.000629982584           
       0.327696             0.00778994118            0.000692309116           
       0.328375             0.00879574339            0.000729438948           
       0.329054             0.00792241835            0.000696034365           
       0.329733             0.00737697253            0.000674099522           
       0.330412             0.00719059561            0.000660076538           
       0.331091              0.0075904537            0.000690483016           
       0.331771             0.00663411042            0.000628606387           
       0.332450             0.00814983009            0.000710252592           
       0.333129              0.0070543997            0.000659092676           
       0.333808             0.00850249925            0.000724541699           
       0.334487             0.00683565162            0.000652731101           
       0.335166             0.00626475937            0.000615734583           
       0.335846             0.00680783438            0.000653147847           
       0.336525             0.00691454419            0.000651747939           
       0.337204             0.00590895395            0.000604074167           
       0.337883             0.00766755104            0.000689030734           
       0.338562             0.00694433218            0.000659369539           
       0.339241             0.00664510945            0.000646216054           
       0.339921             0.00673293658            0.000639564132           
       0.340600             0.00605411853             0.00061798427           
       0.341279             0.00868272248            0.000732157103           
       0.341958             0.00633848769            0.000634385828           
       0.342637             0.00590235562            0.000603523568           
       0.343316             0.00600196005            0.000610356631           
       0.343995             0.00705070075            0.000672367746           
       0.344675             0.00683752908            0.000649957153           
       0.345354             0.00649835361            0.000637811146           
       0.346033             0.00762776323            0.000689216156           
       0.346712             0.00610945524            0.000620755302           
       0.347391             0.00574373801            0.000605615908           
       0.348070             0.00756336474            0.000685086882           
       0.348750             0.00669243922            0.000653748604           
       0.349429             0.00652684637              0.0006372753           
       0.350108             0.00592254194            0.000614361984           
       0.350787             0.00771136815            0.000689119315           
       0.351466             0.00606127155            0.000622211459           
       0.352145             0.00562943018            0.000600134499           
       0.352825             0.00512960846            0.000570278322           
       0.353504             0.00538167125            0.000583978445           
       0.354183             0.00506313178            0.000559906167           
       0.354862             0.00557551819            0.000601207835           
       0.355541             0.00768666297            0.000696667632           
       0.356220             0.00563741338            0.000597745368           
       0.356900             0.00523482939            0.000581477869           
       0.357579             0.00649073334            0.000639544272           
       0.358258             0.00530743725            0.000586320325           
       0.358937             0.00635313926            0.000629425128           
       0.359616             0.00627625021            0.000634340846           
       0.360295             0.00564312493            0.000601996591           
       0.360975             0.00615411018            0.000625972821           
       0.361654             0.00456340829            0.000541814669           
       0.362333             0.00585073821            0.000610376085           
       0.363012             0.00621518992            0.000637193746           
       0.363691             0.00602120581            0.000614797585           
       0.364370             0.00546345214            0.000592895979           
       0.365050             0.00573213412            0.000604050073           
       0.365729              0.0061546462            0.000631884505           
       0.366408             0.00534711499            0.000590277831           
       0.367087             0.00634106934            0.000632493324           
       0.367766             0.00546032255              0.0005991558           
       0.368445             0.00532016545             0.00058091582           
       0.369124             0.00528170886             0.00058335943           
       0.369804             0.00462456582            0.000544990589           
       0.370483             0.00550964676            0.000597463619           
       0.371162             0.00446055881            0.000540698118           
       0.371841             0.00542771604            0.000586043475           
       0.372520             0.00467927754            0.000555047113           
       0.373199             0.00494740072            0.000563909057           
       0.373879             0.00408233404            0.000518172198           
       0.374558             0.00382325725            0.000494142869           
       0.375237             0.00589068976            0.000614370271           
       0.375916             0.00399828584            0.000515852193           
       0.376595             0.00376458569            0.000490766407           
       0.377274             0.00542268562            0.000598439334           
       0.377954             0.00498283636            0.000564644024           
       0.378633             0.00407304206             0.00051695147           
       0.379312             0.00479173857            0.000560566619           
       0.379991             0.00370073619            0.000490084624           
       0.380670             0.00512295674            0.000586808439           
       0.381349             0.00411963528            0.000518662018           
       0.382029             0.00411217086            0.000525616708           
       0.382708             0.00404537531            0.000509945855           
       0.383387             0.00552939764            0.000609699458           
       0.384066             0.00456574427            0.000548945795           
       0.384745              0.0040636199            0.000519917109           
       0.385424             0.00395942928            0.000514951602           
       0.386104             0.00366418139            0.000489905701           
       0.386783             0.00446116431            0.000552257607           
       0.387462              0.0052626194            0.000584895154           
       0.388141             0.00497420641            0.000577724186           
       0.388820             0.00423094027             0.00052896424           
       0.389499             0.00435711511            0.000539815555           
       0.390178             0.00298033209            0.000448233413           
       0.390858             0.00465172669              0.0005554571           
       0.391537             0.00501807355            0.000582806195           
       0.392216              0.0042874068            0.000531955207           
       0.392895             0.00425618006            0.000531800014           
       0.393574             0.00443633902            0.000541592776           
       0.394253             0.00462049582             0.00055520604           
       0.394933             0.00452112561            0.000555479226           
       0.395612             0.00430795738            0.000526475598           
       0.396291             0.00382392259            0.000506115875           
       0.396970             0.00356592653            0.000484413958           
       0.397649             0.00398116495            0.000513417436           
       0.398328             0.00388626012            0.000505031305           
       0.399008             0.00366252327            0.000489212665           
       0.399687             0.00355768575            0.000484035225           
       0.400366             0.00517039867            0.000581287414           
       0.401045             0.00410009489            0.000516658949           
       0.401724               0.003991193            0.000510602203           
       0.402403             0.00425515819            0.000531325885           
       0.403083             0.00361860608            0.000482909576           
       0.403762             0.00241619504            0.000396549559           
       0.404441             0.00402953003            0.000515366207           
       0.405120             0.00439495821              0.0005364628           
       0.405799             0.00421860315            0.000523306048           
       0.406478             0.00370679451            0.000490548081           
       0.407158              0.0042610398             0.00052495767           
       0.407837             0.00340582889            0.000473472033           
       0.408516             0.00315685961            0.000451872501           
       0.409195             0.00442247269            0.000540903433           
       0.409874             0.00374156126            0.000504445644           
       0.410553             0.00321960454            0.000472971678           
       0.411233               0.004133967            0.000533164465           
       0.411912             0.00397983952            0.000530543335           
       0.412591             0.00296645167            0.000461074959           
       0.413270             0.00351201637            0.000499301653           
       0.413949             0.00235846591             0.00041363493           
       0.414628             0.00402277931             0.00053924367           
       0.415307              0.0029189455            0.000464450205           
       0.415987              0.0036002797            0.000511564775           
       0.416666             0.00313148565             0.00047422765           
       0.417345             0.00280019042            0.000455929765           
       0.418024             0.00331670567            0.000496213633           
       0.418703             0.00285102367            0.000459216047           
       0.419382              0.0023181036            0.000412049722           
       0.420062             0.00269642653             0.00044564865           
       0.420741             0.00153879627            0.000338448301           
       0.421420              0.0034970538            0.000512149648           
       0.422099             0.00319286061            0.000489380871           
       0.422778              0.0036200531            0.000523913965           
       0.423457             0.00297467067            0.000477828506           
       0.424137             0.00248938144            0.000429994078           
       0.424816             0.00316500196            0.000494978843           
       0.425495             0.00308060953            0.000487873163           
       0.426174             0.00307669041             0.00048773345           
       0.426853             0.00227805324             0.00041713489           
       0.427532             0.00230749211            0.000423370987           
       0.428212              0.0026722124            0.000458610415           
       0.428891              0.0028911367            0.000475941759           
       0.429570             0.00304984722             0.00048916501           
       0.430249             0.00215746567             0.00040928665           
       0.430928              0.0019478031            0.000397395265           
       0.431607             0.00272751546            0.000462175274           
       0.432287             0.00373015501            0.000544447128           
       0.432966             0.00283530428            0.000478845565           
       0.433645             0.00186634171            0.000388905875           
       0.434324             0.00326247373              0.0005110891           
       0.435003             0.00176357003             0.00037640951           
       0.435682             0.00212714905             0.00041678356           
       0.436361             0.00244209963            0.000445976196           
       0.437041             0.00186818232            0.000389546808           
       0.437720             0.00156553504            0.000358320088           
       0.438399             0.00241666351            0.000447515657           
       0.439078             0.00178078558            0.000395294274           
       0.439757             0.00304672698            0.000513863477           
       0.440436             0.00311611649            0.000531394038           
       0.441116             0.00294580356             0.00052511674           
       0.441795             0.00248961421            0.000483329074           
       0.442474             0.00297097155            0.000529462804           
       0.443153             0.00333259343            0.000573842777           
       0.443832             0.00254812161            0.000502624032           
       0.444511             0.00184067628            0.000425265947           
       0.445191             0.00173803725            0.000423290431           
       0.445870             0.00194679437            0.000448002887           
       0.446549             0.00136248441            0.000378740927           
       0.447228             0.00322812321            0.000579682955           
       0.447907             0.00202582379            0.000464725544           
       0.448586              0.0020294605            0.000476334312           
       0.449266             0.00197448535            0.000465516734           
       0.449945             0.00250313998            0.000522006453           
       0.450624             0.00378063458            0.000651715764           
       0.451303             0.00244810502            0.000531232178           
       0.451982             0.00241232498            0.000524075864           
       0.452661             0.00215779103            0.000504890783           
       0.453341             0.00158234888            0.000433873543           
       0.454020             0.00337343277            0.000634467519           
       0.454699             0.00319179026            0.000622786297           
       0.455378             0.00210514177            0.000506052472           
       0.456057              0.0016782204            0.000459870143           
       0.456736             0.00306277677            0.000619315569           
       0.457416             0.00254845907            0.000564944114           
       0.458095             0.00146893355            0.000435118762           
       0.458774             0.00179031696             0.00048671376           
       0.459453             0.00154851372            0.000454936777           
       0.460132            0.000316833393            0.000201338663           
       0.460811             0.00201410197            0.000526575716           
       0.461490             0.00143470893            0.000439908557           
       0.462170             0.00232406578            0.000568629932           
       0.462849             0.00249282806            0.000592733359           
       0.463528             0.00206387204             0.00053807934           
       0.464207             0.00112443397            0.000404597279           
       0.464886            0.000819005319            0.000342613449           
       0.465565            0.000989471582            0.000380721563           
       0.466245             0.00218778405             0.00056787613           
       0.466924             0.00213101032              0.0005736985           
       0.467603               0.001901556            0.000530438025           
       0.468282             0.00137512654            0.000461774226           
       0.468961             0.00155012955            0.000493498717           
       0.469640            0.000773718888            0.000350044072           
       0.470320             0.00109949003            0.000417567649           
       0.470999            0.000975158496            0.000396959172           
       0.471678             0.00132693977            0.000467507275           
       0.472357             0.00149254535            0.000497207044           
       0.473036            0.000348254897            0.000241687849           
       0.473715             0.00104707984            0.000422357587           
       0.474395              0.0015860043            0.000526992932           
       0.475074             0.00108395709            0.000435683692           
       0.475753             0.00137863306            0.000487108749           
       0.476432             0.00152667038            0.000531256341           
       0.477111             0.00148083605            0.000516893539           
       0.477790             0.00114364152            0.000456674562           
       0.478470            0.000239280084            0.000211651206           
       0.479149            0.000813798292            0.000394361768           
       0.479828            0.000816874739            0.000394176366           
       0.480507             0.00121914633            0.000485431685           
       0.481186            7.91436297e-05            0.000126470573           
       0.481865             0.00066282018             0.00036146629           
       0.482545            0.000677514568            0.000369743784           
       0.483224            0.000891926704            0.000427133463           
       0.483903            0.000505054496            0.000326479337           
       0.484582            0.000976213955            0.000461280092           
       0.485261            8.69896685e-05            0.000134208835           
       0.485940            0.000566161919             0.00035619936           
       0.486619           -0.000103404609                         0           
       0.487299           -9.84245832e-05                         0           
       0.487978           -0.000103088301                         0           
       0.488657             0.00015490864            0.000192947682           
       0.489336            0.000827513393            0.000438134347           
       0.490015            0.000371041418            0.000295685927           
       0.490694            0.000423395303            0.000324594388           
       0.491374           -0.000320417046                         0           
       0.492053            0.000421034256            0.000328513794           
       0.492732           -6.99207117e-05                         0           
       0.493411            0.000194914565            0.000223295503           
       0.494090            0.000197517413            0.000226484949           
       0.494769           -5.06009167e-05                         0           
       0.495449           -0.000320534351                         0           
       0.496128            0.000220492554              0.0002438453           
       0.496807           -0.000320573554                         0           
       0.497486           -5.08507157e-05                         0           
       0.498165            -3.8486361e-05                         0           
       0.498844             0.00166808808              0.0006896349           
       0.499524             0.00053919052            0.000393502184           
       0.500203           -3.20608601e-05                         0           
       0.500882           -0.000320692315                         0           
       0.501561           -0.000320712043                         0           
       0.502240            0.000279214251            0.000288068697           
       0.502919           -0.000320751938                         0           
       0.503599           -1.86354933e-05                         0           
       0.504278           -1.58777901e-06                         0           
       0.504957            -0.00032081221                         0           
       0.505636           -0.000320832108                         0           
       0.506315           -0.000320852332                         0           
       0.506994             1.6337004e-05            7.45609938e-05           
       0.507673            3.03697002e-05            0.000102834053           
       0.508353            9.41710704e-06            5.59815729e-05           
       0.509032           -0.000320932414                         0           
       0.509711           -0.000320952576                         0           
       0.510390           -0.000320973055                         0           
       0.511069            0.000395131687            0.000379322712           
       0.511748            2.46342496e-05            9.52948669e-05           
       0.512428           -0.000321034271                         0           
       0.513107            -0.00032105443                         0           
       0.513786           -0.000321074653                         0           
       0.514465            -0.00032109522                         0           
       0.515144            9.73671004e-05            0.000202302249           
       0.515823            -0.00032113614                         0           
       0.516503           -0.000321156697                         0           
       0.517182            0.000525537226            0.000472528169           
       0.517861           -0.000321197757                         0           
       0.518540           -0.000321218378                         0           
       0.519219            -0.00032123888                         0           
       0.519898           -0.000321259589                         0           
       0.520578            0.000577764235            0.000508262546           
       0.521257           -0.000321300986                         0           
       0.521936             -0.0003213216                         0           
       0.522615            0.000160257032            0.000278252914           
       0.523294           -0.000321363398                         0           
       0.523973           -0.000321384046                         0           
       0.524653           -0.000321404546                         0           
       0.525332           -0.000321425344                         0           
       0.526011           -0.000321446516                         0           
       0.526690           -0.000321467648                         0           
       0.527369           -0.000321488605                         0           
       0.528048           -0.000321509712                         0           
       0.528728           -0.000321530793                         0           
       0.529407           -0.000321551778                         0           
       0.530086            0.000204288627            0.000328428636           
       0.530765           -0.000321593559                         0           
       0.531444            -0.00032161469                         0           
       0.532123            0.000243638603            0.000373759853           
       0.532802            0.000215438418             0.00034261714           
       0.533482            -0.00032167878                         0           
       0.534161           -0.000321700071                         0           
       0.534840           -0.000321721179                         0           
       0.535519           -0.000321742678                         0           
       0.536198           -0.000321763955                         0           
       0.536877           -0.000321784938                         0           
       0.537557           -0.000321806283                         0           
       0.538236           -0.000321827819                         0           
       0.538915           -0.000321849348                         0           
       0.539594           -0.000321870848                         0           
       0.540273           -0.000321892684                         0           
       0.540952            0.000344653543            0.000477719081           
       0.541632           -0.000321935474                         0           
       0.542311            0.000953513648            0.000781862112           
       0.542990             0.00112376271            0.000900615253           
       0.543669           -0.000322000311                         0           
       0.544348           -0.000322022098                         0           
       0.545027           -0.000322043838                         0           
       0.545707            0.000366383015            0.000520586442           
       0.546386            -0.00032208751                         0           
       0.547065           -0.000322109114                         0           
       0.547744            0.000459407839            0.000595936284           
       0.548423           -0.000322152759                         0           
       0.549102           -0.000322174723                         0           
       0.549782            0.000426894527            0.000562048434           
       0.550461           -0.000322218688                         0           
       0.551140            0.000402780137            0.000558095946           
       0.551819           -0.000322262917                         0           
       0.552498           -0.000322285088                         0           
       0.553177            0.000509295348            0.000657843003           
       0.553856           -0.000322328747                         0           
       0.554536           -0.000322350687                         0           
       0.555215           -0.000322372962                         0           
       0.555894           -0.000322395184                         0           
       0.556573           -0.000322417539                         0           
       0.557252           -0.000322439875                         0           
       0.557931           -0.000322462109                         0           
       0.558611           -0.000322484864                         0           
       0.559290            -0.00032250704                         0           
       0.559969            -0.00032252867                         0           
       0.560648            0.000590468236            0.000734949005           
       0.561327           -0.000322573572                         0           
       0.562006           -0.000322596165                         0           
       0.562686           -0.000322618771                         0           
       0.563365           -0.000322641461                         0           
       0.564044           -0.000322664035                         0           
       0.564723            -0.00032268656                         0           
       0.565402           -0.000322708666                         0           
       0.566081            0.000919510382             0.00109295913           
       0.566761           -0.000322753409                         0           
       0.567440           -0.000322776358                         0           
       0.568119           -0.000322799126                         0           
       0.568798           -0.000322822213                         0           
       0.569477           -0.000322845152                         0           
       0.570156           -0.000322868203                         0           
       0.570836           -0.000322891167                         0           
       0.571515           -0.000322913645                         0           
       0.572194           -0.000322936775                         0           
       0.572873           -0.000322959376                         0           
       0.573552           -0.000322981844                         0           
       0.574231           -0.000323004767                         0           
       0.574911           -0.000323028268                         0           
       0.575590           -0.000323051317                         0           
       0.576269           -0.000323074296                         0           
       0.576948           -0.000323097716                         0           
       0.577627           -0.000323120422                         0           
       0.578306           -0.000323143448                         0           
       0.578985           -0.000323166671                         0           
       0.579665            -0.00032318976                         0           
       0.580344           -0.000323213198                         0           
       0.581023           -0.000323236611                         0           
       0.581702           -0.000323259808                         0           
       0.582381           -0.000323282794                         0           
       0.583060           -0.000323306466                         0           
       0.583740           -0.000323329765                         0           
       0.584419           -0.000323353142                         0           
       0.585098           -0.000323376492                         0           
       0.585777           -0.000323400023                         0           
       0.586456           -0.000323423937                         0           
       0.587135           -0.000323447215                         0           
       0.587815           -0.000323470242                         0           
       0.588494           -0.000323493987                         0           
       0.589173           -0.000323518276                         0           
       0.589852           -0.000323541275                         0           
       0.590531           -0.000323565141                         0           
       0.591210           -0.000323588456                         0           
       0.591890           -0.000323612222                         0           
       0.592569           -0.000323635193                         0           
       0.593248           -0.000323660307                         0           
       0.593927           -0.000323684184                         0           
       0.594606           -0.000323708552                         0           
       0.595285           -0.000323731469                         0           
       0.595965           -0.000323752854                         0           
       0.596644           -0.000323774859                         0           
