################################################################################
# EDF_DataBlockID                     0.Image.Psd
# EDF_BinarySize                      4366944
# EDF_HeaderSize                      2560
# ByteOrder                           LowByteFirst
# DataType                            FloatValue
# Dim_1                               1028
# Dim_2                               1062
# Image                               0
# HeaderID                            EH:000000:000000:000000
# Size                                4366944
# Center_1                            607.5200
# Center_2                            651.5500
# Comment                             Xenocs_Cell_Window - 20251028_20perc_iodine_1.23mg
# DDummy                              0.6
# Date                                2025-10-29T21:03:32
# Delta                               0
# Dummy                               -1.5
# ExposureTime                        360
# Gamma                               0
# Intensity1                          8.43747e-10
# PSize_1                             7.5e-05
# PSize_2                             7.5e-05
# Pressure                            0.0326414
# SampleDistance                      0.450002
# SampleEnvKind                       large
# SampleEnvPN                         ElectroChemical cell
# SampleEnvSN                         1141
# Thickness                           0
# Wavelength                          1.541891e-10
# Wavelength                          1.54189e-10
# aux                                 0
# aux_dial                            0.002375
# beamx                               588.434
# beamx_dial                          588.434
# beamz                               657.808
# beamz_dial                          657.808
# det0x                               0
# det0x_dial                          6.36945
# det0xvd                             0
# det0xvd_dial                        0
# det0y                               450.002
# det0y_dial                          481.635
# det0z                               0
# det0z_dial                          1.23302
# det0zvd                             0
# det0zvd_dial                        0
# mag                                 1.818
# mag_dial                            1.818
# om                                  0.2499
# om_dial                             -0.610199
# phi                                 -0.0120535
# phi_dial                            0
# ry                                  0.599993
# ry_dial                             0.599993
# s1bot                               0.8
# s1bot_dial                          -1.66094
# s1hl                                0.8
# s1hl_dial                           -0.608437
# s1hr                                0.8
# s1hr_dial                           0.970938
# s1top                               0.8
# s1top_dial                          -0.461562
# s2bot                               0.45
# s2bot_dial                          1.36109
# s2hl                                0.45
# s2hl_dial                           -0.83375
# s2hr                                0.45
# s2hr_dial                           -0.118594
# s2top                               0.45
# s2top_dial                          1.44734
# w2theta                             32
# w2theta_dial                        32
# waxsch                              19.2605
# waxsch_dial                         -32.7355
# waxsh                               137.085
# waxsh_dial                          -43.5338
# waxsth                              26.0607
# waxsth_dial                         -19.4086
# waxsz                               67.0407
# waxsz_dial                          -23.7954
# wind                                65.9854
# wind_dial                           66.0041
# wpsi                                124
# wpsi_dial                           124
# wstod                               115
# wstod_dial                          115
# x                                   0
# x_dial                              1.00969
# z                                   0
# z_dial                              13.3172
# CountCutoff                         15302352
# DetectorModel                       Dectris EIGER2 Si 1M, S/N E-02-0362
# ThresholdSetting                    4023.88989258
# Saturation                          0
# FlatField                           Corrected
# BackgroundReductionExtra            0.02
# BackgroundCorrectionConstant        0.0026712
# Detector                            0
# Monitor                             0
# Pil_Roi0                            0
# SumForIntensity1                    3.03749e+08
# TransmittedFlux                     843747
# det                                 0
# mon                                 0
# pilai0                              3.03749e+08
# pilai1                              771999
# pilct0                              5.26079e+08
# pilct1                              771999
# pilroi0                             0
# pilroi1                             0
# sec                                 1
# title                               20251028_20perc_iodine_1.23mg_0_00279.edf
# usaxs0                              0
# Operation                           Azimuthal average I(q)
# Error_model                         ErrorModel.poisson
# Geometrical_correction              True
# Transmission_correction             True
# Thickness_correction                False
# Binning mode                        Uniform
# Binning factor                      1.0
# Psi                                 0.0
# Omega                               0.2499
# MaskInvalidPixels                   True
# DetectorEdge                        3
# MaskFiles                           ['20251028_20perc_iodine_1.23mg_0_00012_mask.edf']
################################################################################
    q(A⁻¹)                Intensity(a.u.)            Sigma_I(a.u.)            
       0.000340                371495.131                121.146745           
       0.001019                358810.725                72.9094033           
       0.001698                349693.191                50.8955089           
       0.002377                331129.072                44.2975363           
       0.003056                308199.697                36.1187802           
       0.003735                253411.187                28.8840254           
       0.004415                 204907.07                25.9730769           
       0.005094                153175.435                19.4477895           
       0.005773                101296.093                14.6419455           
       0.006452                59061.6903                10.7123472           
       0.007131                32377.8935                7.68359413           
       0.007810                16215.3696                 5.3962051           
       0.008490                8098.35168                3.38030495           
       0.009169                3899.60332                2.31824024           
       0.009848                1196.88555                1.24173839           
       0.010527                459.912574               0.769735821           
       0.011206                 116.39631               0.369578902           
       0.011885                53.9908887               0.233865345           
       0.012564                25.1029979                0.16371942           
       0.013244                17.0957113               0.126310939           
       0.013923                12.5512393               0.109974081           
       0.014602                 9.3257946                0.08791741           
       0.015281                7.56694417              0.0806159733           
       0.015960                6.22423549              0.0725904975           
       0.016639                5.00253186              0.0614534568           
       0.017319                4.20643727              0.0554755187           
       0.017998                3.39573426              0.0476850646           
       0.018677                2.97279303              0.0462107495           
       0.019356                2.61432069              0.0428192652           
       0.020035                2.18482695              0.0367249794           
       0.020714                 1.9132762              0.0347307457           
       0.021394                1.65139181               0.030529535           
       0.022073                1.40648628              0.0293138078           
       0.022752                1.20107129               0.025913281           
       0.023431                1.12234156               0.024315199           
       0.024110                1.04307035              0.0244387402           
       0.024789               0.936512299              0.0215059661           
       0.025469               0.796065596              0.0204328389           
       0.026148               0.729553941              0.0183788326           
       0.026827               0.652978468              0.0176658082           
       0.027506               0.626992476              0.0175603542           
       0.028185               0.597173211              0.0163432558           
       0.028864               0.501883272              0.0148986215           
       0.029544               0.477600373              0.0140936285           
       0.030223                0.43898557              0.0137056288           
       0.030902               0.392648397              0.0130807301           
       0.031581               0.366863711              0.0120194467           
       0.032260               0.332072872              0.0116301791           
       0.032939               0.304656764              0.0107411384           
       0.033619                0.31245581              0.0110376207           
       0.034298               0.279119931              0.0101522375           
       0.034977               0.237011322             0.00917130441           
       0.035656               0.234643967             0.00936689822           
       0.036335               0.225315601             0.00890230272           
       0.037014               0.210781123              0.0086360689           
       0.037693               0.199589366             0.00808421894           
       0.038373               0.166883911             0.00746479242           
       0.039052               0.174859118              0.0076735886           
       0.039731               0.163605602              0.0072495765           
       0.040410               0.154436155             0.00699626896           
       0.041089                0.14595092             0.00669481635           
       0.041768               0.144653878             0.00669982351           
       0.042448               0.127719699             0.00624660725           
       0.043127               0.121420948             0.00594677989           
       0.043806                0.12707119             0.00612893177           
       0.044485               0.123306981             0.00591344136           
       0.045164                0.10874197             0.00566267129           
       0.045843               0.119833924             0.00570146117           
       0.046523                 0.1032174             0.00530969817           
       0.047202              0.0983902501             0.00522027806           
       0.047881              0.0873568195             0.00482402049           
       0.048560              0.0995311344             0.00519613914           
       0.049239              0.0968194933             0.00492079828           
       0.049918               0.087389963             0.00476642777           
       0.050598              0.0927338526             0.00483633331           
       0.051277              0.0841833006             0.00459335232           
       0.051956              0.0803538494             0.00445948095           
       0.052635              0.0796042594             0.00434443483           
       0.053314              0.0858910772             0.00464466672           
       0.053993              0.0797833429             0.00435370282           
       0.054673              0.0646753045             0.00383255499           
       0.055352              0.0747395767             0.00418049035           
       0.056031              0.0796831606             0.00422583773           
       0.056710              0.0730202094              0.0041444331           
       0.057389               0.072355237             0.00397828342           
       0.058068              0.0653567836             0.00381997048           
       0.058748              0.0709231917             0.00402895799           
       0.059427              0.0612398965             0.00368044111           
       0.060106              0.0691810268             0.00394881931           
       0.060785              0.0609867529             0.00359650038           
       0.061464              0.0646515093             0.00379223835           
       0.062143              0.0546685728             0.00345176281           
       0.062822              0.0559986548             0.00345250558           
       0.063502              0.0537597717              0.0033767405           
       0.064181              0.0511068377             0.00325760218           
       0.064860               0.051762692             0.00332837194           
       0.065539              0.0551740556             0.00340269675           
       0.066218              0.0502050983             0.00317635972           
       0.066897              0.0506018613             0.00321350326           
       0.067577              0.0514915577             0.00327277356           
       0.068256              0.0504213954             0.00331813991           
       0.068935              0.0471699102             0.00315747628           
       0.069614              0.0508635846             0.00331141029           
       0.070293              0.0535939448             0.00343047056           
       0.070972              0.0437453801             0.00307659544           
       0.071652              0.0481086208             0.00323229961           
       0.072331              0.0377495833             0.00281220051           
       0.073010               0.042920942             0.00306715944           
       0.073689              0.0360238885             0.00279449884           
       0.074368               0.044716673             0.00310779827           
       0.075047              0.0379264699             0.00283136613           
       0.075727              0.0388465335             0.00284780502           
       0.076406              0.0348081294             0.00274950383           
       0.077085               0.037064742             0.00278420559           
       0.077764              0.0388775708             0.00284148861           
       0.078443              0.0395284575             0.00288291531           
       0.079122              0.0385902223             0.00282113133           
       0.079802              0.0415155276              0.0029571392           
       0.080481              0.0356250011             0.00264692491           
       0.081160              0.0323996112              0.0025760579           
       0.081839              0.0349231042             0.00263167953           
       0.082518              0.0337386814             0.00258884615           
       0.083197              0.0377405481             0.00269553706           
       0.083876              0.0368820932              0.0026204259           
       0.084556               0.036592661             0.00268271421           
       0.085235              0.0329488679             0.00249646109           
       0.085914              0.0335660302              0.0025442104           
       0.086593              0.0326001018             0.00249119848           
       0.087272              0.0294333979             0.00233365357           
       0.087951              0.0329457187             0.00252474071           
       0.088631              0.0332088753             0.00244846721           
       0.089310              0.0319468243              0.0024524257           
       0.089989              0.0307064762             0.00237623735           
       0.090668              0.0261532269             0.00221720084           
       0.091347              0.0287619834             0.00233817264           
       0.092026              0.0300043892             0.00228267437           
       0.092706              0.0280327827             0.00228648823           
       0.093385              0.0296579588             0.00231571761           
       0.094064              0.0242852177             0.00211988034           
       0.094743               0.027656222             0.00222775571           
       0.095422              0.0272008018             0.00218470061           
       0.096101              0.0321882926             0.00242551301           
       0.096781              0.0293018021             0.00228106925           
       0.097460              0.0283062066             0.00218082391           
       0.098139              0.0300097693             0.00222821184           
       0.098818              0.0270446871             0.00208922231           
       0.099497              0.0242510174             0.00198243708           
       0.100176              0.0276087101             0.00205971458           
       0.100856              0.0252521983             0.00196858964           
       0.101535              0.0248072892             0.00194740754           
       0.102214              0.0266496317             0.00201843835           
       0.102893              0.0279711594             0.00204431798           
       0.103572              0.0252634843             0.00191415102           
       0.104251              0.0221100252             0.00179732088           
       0.104931              0.0263878823              0.0019456348           
       0.105610              0.0242068017             0.00187144205           
       0.106289              0.0271454486             0.00194880334           
       0.106968              0.0256240733              0.0018990245           
       0.107647              0.0255558897             0.00189763449           
       0.108326               0.024297332             0.00182556461           
       0.109005              0.0247012919             0.00182909666           
       0.109685              0.0238280411             0.00177632322           
       0.110364              0.0199751197              0.0016448542           
       0.111043              0.0262342655             0.00187755123           
       0.111722              0.0236197945             0.00175976395           
       0.112401              0.0213904808              0.0016793169           
       0.113080              0.0239293139             0.00175582803           
       0.113760              0.0229122458             0.00174680595           
       0.114439              0.0218960889             0.00168326044           
       0.115118              0.0223426586             0.00168751783           
       0.115797              0.0214384787             0.00166833304           
       0.116476              0.0223516299             0.00167799672           
       0.117155              0.0232011451             0.00172337553           
       0.117835              0.0249389748             0.00175123275           
       0.118514                0.02061231             0.00161227795           
       0.119193              0.0241924639              0.0017467058           
       0.119872              0.0228427923             0.00167605638           
       0.120551              0.0227934863             0.00166309422           
       0.121230              0.0228602298             0.00164876663           
       0.121910              0.0247373987             0.00173170174           
       0.122589              0.0241671794             0.00171339049           
       0.123268              0.0210413426             0.00156777519           
       0.123947              0.0202148724             0.00154661516           
       0.124626              0.0182576328             0.00145186494           
       0.125305              0.0223517073             0.00161430404           
       0.125985              0.0188161522              0.0014696447           
       0.126664              0.0200421628             0.00150232047           
       0.127343              0.0201600059              0.0015241956           
       0.128022              0.0250430643             0.00168575802           
       0.128701              0.0218605805             0.00156680196           
       0.129380              0.0224084259             0.00156644537           
       0.130059              0.0214048358             0.00153452137           
       0.130739              0.0195018917             0.00147502286           
       0.131418              0.0199635059             0.00148819955           
       0.132097              0.0180615136             0.00139737853           
       0.132776              0.0230242101             0.00157059505           
       0.133455              0.0182540213             0.00140932836           
       0.134134              0.0192345388             0.00144207736           
       0.134814              0.0209087486             0.00148803665           
       0.135493              0.0193793552             0.00143837886           
       0.136172              0.0194140497             0.00142879767           
       0.136851              0.0196436383             0.00144557998           
       0.137530              0.0176107781             0.00133621939           
       0.138209              0.0165791725             0.00131171373           
       0.138889              0.0194612669             0.00142742522           
       0.139568              0.0189030079             0.00140619494           
       0.140247              0.0185467829             0.00139105678           
       0.140926              0.0180657935             0.00133364534           
       0.141605              0.0227426473             0.00153436288           
       0.142284              0.0208632157             0.00144524458           
       0.142964              0.0200347559             0.00142167612           
       0.143643              0.0204770874              0.0014354688           
       0.144322              0.0207987085             0.00141642531           
       0.145001              0.0200353555             0.00141872479           
       0.145680              0.0208050055             0.00141151441           
       0.146359              0.0179650987             0.00131644264           
       0.147039              0.0161540714             0.00125860366           
       0.147718              0.0164297426             0.00124835237           
       0.148397              0.0192250523             0.00137136269           
       0.149076                0.01629461             0.00122336095           
       0.149755              0.0184028704             0.00132017025           
       0.150434              0.0170857917             0.00127257073           
       0.151114              0.0178536121             0.00129365548           
       0.151793              0.0182225067             0.00130696413           
       0.152472              0.0195549843             0.00132998993           
       0.153151              0.0171979414             0.00125932081           
       0.153830              0.0183008728             0.00128960967           
       0.154509              0.0166236021             0.00122396541           
       0.155188              0.0200899953             0.00134504231           
       0.155868              0.0189384166             0.00129663079           
       0.156547              0.0197238487             0.00133174512           
       0.157226              0.0172024296             0.00121333591           
       0.157905              0.0173175413             0.00122761427           
       0.158584              0.0159831333             0.00117722657           
       0.159263              0.0148769993              0.0011399395           
       0.159943              0.0177612014             0.00124647647           
       0.160622              0.0165710054             0.00118075326           
       0.161301              0.0171297654             0.00121655215           
       0.161980              0.0161209737              0.0011601226           
       0.162659              0.0160588156             0.00117071767           
       0.163338              0.0191295192             0.00126734011           
       0.164018              0.0184298769             0.00123741947           
       0.164697              0.0186097415             0.00125940928           
       0.165376              0.0195512433             0.00126267015           
       0.166055               0.016106526             0.00115360849           
       0.166734              0.0158720886              0.0011400522           
       0.167413              0.0174369171             0.00119576685           
       0.168093              0.0157904302             0.00114867578           
       0.168772              0.0141672185              0.0010562153           
       0.169451              0.0171485932             0.00118342866           
       0.170130              0.0180402618             0.00119787082           
       0.170809              0.0170944943             0.00117996432           
       0.171488               0.017474671             0.00118213758           
       0.172168              0.0157377831             0.00111107398           
       0.172847              0.0143221108             0.00107384709           
       0.173526              0.0159146017             0.00111038077           
       0.174205              0.0149930757             0.00108271705           
       0.174884              0.0162354736             0.00112081249           
       0.175563              0.0166764673             0.00114078246           
       0.176243              0.0157534163             0.00111985777           
       0.176922              0.0169682378             0.00113194699           
       0.177601              0.0154220782             0.00109100298           
       0.178280              0.0155736656             0.00108411351           
       0.178959              0.0156247522             0.00109462434           
       0.179638              0.0156892663             0.00109372317           
       0.180317              0.0163362097             0.00110791475           
       0.180997              0.0156318987             0.00108965106           
       0.181676               0.015129831              0.0010605628           
       0.182355              0.0156506811             0.00108514183           
       0.183034              0.0146097847             0.00103160912           
       0.183713              0.0154129694             0.00107249065           
       0.184392              0.0155728853             0.00107771395           
       0.185072              0.0145228632              0.0010288858           
       0.185751              0.0157865317              0.0010756994           
       0.186430               0.017585291             0.00112737868           
       0.187109              0.0175602573             0.00113912236           
       0.187788              0.0153405721             0.00106207136           
       0.188467              0.0161154644             0.00107568271           
       0.189147              0.0180531266             0.00115004526           
       0.189826              0.0169851354             0.00109578302           
       0.190505              0.0147160228             0.00103675505           
       0.191184              0.0157824023             0.00105818785           
       0.191863              0.0161243385             0.00107184288           
       0.192542              0.0168655867             0.00110654024           
       0.193222              0.0165245511             0.00107074978           
       0.193901              0.0165661449             0.00108646645           
       0.194580              0.0165264462             0.00106618166           
       0.195259              0.0164118514             0.00107468115           
       0.195938              0.0159948475              0.0010634729           
       0.196617              0.0156890233             0.00103855493           
       0.197297              0.0145877202             0.00100552969           
       0.197976              0.0144063701            0.000983910895           
       0.198655              0.0153943595             0.00102819929           
       0.199334              0.0161489814             0.00104381168           
       0.200013              0.0163755895             0.00105052692           
       0.200692              0.0163141872             0.00105486257           
       0.201371              0.0156138566             0.00102035056           
       0.202051              0.0139603597            0.000967812147           
       0.202730              0.0162548127             0.00103388982           
       0.203409              0.0173258349             0.00107457309           
       0.204088              0.0164224295             0.00104502564           
       0.204767              0.0166580714             0.00104696458           
       0.205446              0.0152025201             0.00100213274           
       0.206126              0.0160136705             0.00101454675           
       0.206805              0.0145172488            0.000983690268           
       0.207484              0.0146642717            0.000970885192           
       0.208163              0.0169808888              0.0010510412           
       0.208842              0.0148728989            0.000980977139           
       0.209521              0.0164903705              0.0010243584           
       0.210201              0.0157573208             0.00101250566           
       0.210880              0.0150792261            0.000971043972           
       0.211559              0.0164146475             0.00102810913           
       0.212238              0.0172737349             0.00104930322           
       0.212917              0.0169270946             0.00103486214           
       0.213596                0.01485146            0.000975070971           
       0.214276              0.0153201097            0.000969703866           
       0.214955              0.0157318497             0.00100331265           
       0.215634              0.0140562616            0.000941580684           
       0.216313              0.0149374177            0.000968606718           
       0.216992              0.0147255532            0.000961472231           
       0.217671              0.0156990865            0.000986021536           
       0.218351              0.0154608048             0.00098807995           
       0.219030              0.0156394724            0.000978086325           
       0.219709              0.0137376434            0.000922407587           
       0.220388              0.0138743865            0.000925796118           
       0.221067              0.0135239635            0.000914754666           
       0.221746              0.0156741094            0.000983782254           
       0.222426               0.015437697             0.00096174366           
       0.223105              0.0147511296            0.000952922063           
       0.223784              0.0155378489            0.000968302023           
       0.224463              0.0146248259            0.000946903273           
       0.225142                0.01494056            0.000941926764           
       0.225821              0.0141655974            0.000920867164           
       0.226500              0.0153715102            0.000965362595           
       0.227180              0.0145539475            0.000924867816           
       0.227859              0.0165663104            0.000991165364           
       0.228538              0.0182544575             0.00102999398           
       0.229217               0.014780223            0.000934146179           
       0.229896              0.0150059504            0.000940799269           
       0.230575              0.0156178317            0.000944488917           
       0.231255              0.0137164869            0.000898383768           
       0.231934              0.0151580166            0.000937960118           
       0.232613              0.0147609597            0.000929008791           
       0.233292              0.0156811212            0.000948275637           
       0.233971              0.0134923692             0.00087919948           
       0.234650              0.0149815673            0.000937347181           
       0.235330               0.012988258            0.000865143699           
       0.236009              0.0141288274            0.000900385965           
       0.236688              0.0136395252            0.000881491803           
       0.237367              0.0143679409            0.000906037634           
       0.238046              0.0127570651             0.00085974993           
       0.238725              0.0139212969            0.000884268528           
       0.239405              0.0149550295            0.000922194849           
       0.240084              0.0160086713            0.000948052611           
       0.240763              0.0132801352            0.000871755624           
       0.241442              0.0140611521            0.000884384313           
       0.242121              0.0154040671            0.000927400405           
       0.242800              0.0135380087            0.000873530676           
       0.243480              0.0141798089            0.000889810835           
       0.244159              0.0144723884              0.0008993789           
       0.244838              0.0137769255            0.000863064263           
       0.245517              0.0135793432            0.000869178556           
       0.246196              0.0143604558            0.000894258532           
       0.246875              0.0150490585             0.00090268677           
       0.247554              0.0144118184            0.000892346153           
       0.248234              0.0141769048            0.000871623595           
       0.248913                0.01507544            0.000908903292           
       0.249592              0.0150491842            0.000899482229           
       0.250271              0.0142600518            0.000873039229           
       0.250950               0.013197547            0.000845029147           
       0.251629              0.0137148036            0.000854108137           
       0.252309              0.0141495899            0.000869301694           
       0.252988               0.012101966            0.000790097101           
       0.253667              0.0134447726            0.000842508034           
       0.254346              0.0128670297             0.00082403772           
       0.255025              0.0134352481            0.000840191724           
       0.255704              0.0125734623            0.000809076006           
       0.256384              0.0139466057            0.000849163031           
       0.257063              0.0139996362            0.000855626584           
       0.257742              0.0122514355            0.000794876691           
       0.258421              0.0128884388            0.000813710025           
       0.259100               0.013234114            0.000825987791           
       0.259779              0.0133651395            0.000829362957           
       0.260459              0.0127918649             0.00081297435           
       0.261138              0.0128859267            0.000800012144           
       0.261817               0.012848593            0.000814977899           
       0.262496                0.01456435            0.000859178491           
       0.263175              0.0130543351            0.000815167824           
       0.263854              0.0120137812            0.000778371832           
       0.264534              0.0109821222            0.000737845175           
       0.265213              0.0130737479            0.000817735336           
       0.265892              0.0134887818            0.000819972051           
       0.266571              0.0136176264             0.00082200535           
       0.267250              0.0124670832            0.000787838775           
       0.267929              0.0124414382            0.000786221054           
       0.268609              0.0125659062            0.000794470342           
       0.269288              0.0112417189            0.000738961733           
       0.269967              0.0113320895            0.000749919711           
       0.270646              0.0129086604            0.000796927694           
       0.271325              0.0131927703            0.000806995428           
       0.272004              0.0130787006            0.000795489493           
       0.272683               0.010642822            0.000718483561           
       0.273363              0.0119454512            0.000766038853           
       0.274042              0.0113741236            0.000743085153           
       0.274721              0.0123635534            0.000774272274           
       0.275400               0.011847869            0.000752934394           
       0.276079              0.0110381082            0.000730875469           
       0.276758               0.011273647            0.000747953517           
       0.277438              0.0120417049            0.000764335063           
       0.278117              0.0135475794            0.000825461399           
       0.278796              0.0111494003            0.000741243527           
       0.279475              0.0116228631            0.000769320698           
       0.280154              0.0117682897            0.000762983511           
       0.280833              0.0107250273             0.00073280893           
       0.281513               0.012746041            0.000811408983           
       0.282192              0.0109933827            0.000740703999           
       0.282871              0.0116391264            0.000767473545           
       0.283550               0.011667712            0.000772533328           
       0.284229              0.0120098878             0.00079529108           
       0.284908               0.010684508            0.000758037556           
       0.285588              0.0130437533            0.000827749858           
       0.286267              0.0105549199            0.000756526296           
       0.286946              0.0100026778            0.000731680075           
       0.287625              0.0107851507             0.00077269581           
       0.288304              0.0118831847            0.000800220685           
       0.288983             0.00994188871            0.000741212978           
       0.289663              0.0114036853            0.000798482913           
       0.290342              0.0105480849            0.000763856601           
       0.291021             0.00978535673            0.000739685036           
       0.291700              0.0105561383            0.000758228691           
       0.292379             0.00988190045            0.000750411388           
       0.293058              0.0106821087            0.000777256028           
       0.293738              0.0100162912            0.000746322825           
       0.294417              0.0094032077            0.000731526479           
       0.295096              0.0104151945            0.000761421192           
       0.295775              0.0097593091             0.00074831283           
       0.296454             0.00950447366            0.000728926431           
       0.297133             0.00970570779            0.000740087498           
       0.297812             0.00912326445             0.00072113629           
       0.298492              0.0102346208            0.000765272992           
       0.299171              0.0100513178            0.000756954176           
       0.299850              0.0100795448            0.000752840117           
       0.300529             0.00962403621             0.00074391903           
       0.301208             0.00983138253            0.000753719685           
       0.301887             0.00847811241            0.000699094294           
       0.302567             0.00915483444            0.000722821154           
       0.303246              0.0107074329            0.000786818379           
       0.303925             0.00880214551            0.000722548212           
       0.304604             0.00925027598            0.000724718778           
       0.305283             0.00890501836            0.000721611393           
       0.305962              0.0089642577            0.000719633782           
       0.306642             0.00897745864            0.000729944329           
       0.307321             0.00881109738            0.000720840247           
       0.308000               0.008657438            0.000706057661           
       0.308679              0.0100177732            0.000775953313           
       0.309358              0.0088948412              0.0007212806           
       0.310037             0.00888959561            0.000722674468           
       0.310717             0.00846517283            0.000704533392           
       0.311396             0.00899421139            0.000731085461           
       0.312075              0.0105142486            0.000800476254           
       0.312754             0.00825790029            0.000695212816           
       0.313433             0.00758863602            0.000672241896           
       0.314112             0.00852601947            0.000712388948           
       0.314792             0.00864434185             0.00072238059           
       0.315471             0.00926587908            0.000738650814           
       0.316150             0.00947956784            0.000754034127           
       0.316829             0.00808692396            0.000701046583           
       0.317508             0.00859429985            0.000714594368           
       0.318187             0.00826164569            0.000709870641           
       0.318866             0.00975228499             0.00076086734           
       0.319546              0.0102550722            0.000791929922           
       0.320225             0.00804252139            0.000701329318           
       0.320904             0.00891739512            0.000727071863           
       0.321583             0.00859059991            0.000729349549           
       0.322262             0.00760392987            0.000675788022           
       0.322941             0.00750335655            0.000679904506           
       0.323621             0.00879157458            0.000731467346           
       0.324300             0.00874481068            0.000730091131           
       0.324979             0.00895803377            0.000740274277           
       0.325658              0.0083188983            0.000714671375           
       0.326337             0.00754758769            0.000681622731           
       0.327016             0.00786930852            0.000691579803           
       0.327696              0.0072424901            0.000670843829           
       0.328375             0.00650887466            0.000630594445           
       0.329054             0.00806554742            0.000705770066           
       0.329733             0.00765064779            0.000689887941           
       0.330412             0.00743793781            0.000674656406           
       0.331091             0.00720704935            0.000676148976           
       0.331771             0.00820261771            0.000702438312           
       0.332450             0.00729804242             0.00067543919           
       0.333129             0.00744080164            0.000680253572           
       0.333808             0.00702571947             0.00066188113           
       0.334487             0.00790715322            0.000705503117           
       0.335166             0.00871013019            0.000729622446           
       0.335846             0.00846725461            0.000732019806           
       0.336525             0.00649013166            0.000634554832           
       0.337204             0.00584857627            0.000603954961           
       0.337883             0.00760746207            0.000689722934           
       0.338562             0.00857299314             0.00073624844           
       0.339241             0.00634334591            0.000634498186           
       0.339921             0.00758284583            0.000682091228           
       0.340600             0.00636472286            0.000636775321           
       0.341279             0.00685079772            0.000653568941           
       0.341958             0.00729786618            0.000684074037           
       0.342637             0.00607756513            0.000615447302           
       0.343316             0.00663999711             0.00064515724           
       0.343995             0.00735625161            0.000690181845           
       0.344675             0.00758353668            0.000687884531           
       0.345354             0.00585891978            0.000608616502           
       0.346033             0.00822982498            0.000719443445           
       0.346712             0.00648696765            0.000642812884           
       0.347391             0.00638748935            0.000641814569           
       0.348070             0.00655772996            0.000641075836           
       0.348750             0.00670548398            0.000657624727           
       0.349429             0.00652507054            0.000640342769           
       0.350108             0.00590638703             0.00061656054           
       0.350787             0.00791808436            0.000701751387           
       0.351466             0.00586820038            0.000615252115           
       0.352145             0.00653678132            0.000649894507           
       0.352825             0.00542974382            0.000589629139           
       0.353504             0.00529644599            0.000582203782           
       0.354183             0.00610922869            0.000618078077           
       0.354862             0.00726640002            0.000689741215           
       0.355541             0.00597734697            0.000617384128           
       0.356220             0.00555541848            0.000596319733           
       0.356900             0.00548150513            0.000597965805           
       0.357579             0.00515257792            0.000572638479           
       0.358258             0.00595325924             0.00062404287           
       0.358937              0.0067264957            0.000650861881           
       0.359616             0.00543602488            0.000593277371           
       0.360295             0.00582571991            0.000614686271           
       0.360975             0.00500584978            0.000567356798           
       0.361654             0.00687291071            0.000668222291           
       0.362333             0.00623937319            0.000633442459           
       0.363012             0.00521761548            0.000586711838           
       0.363691             0.00520436993            0.000574406056           
       0.364370             0.00551307392            0.000598530594           
       0.365050             0.00571213445            0.000605980283           
       0.365729             0.00530812617            0.000589727379           
       0.366408             0.00500164932            0.000573717164           
       0.367087             0.00502624471            0.000565901731           
       0.367766             0.00419375491            0.000527687316           
       0.368445             0.00556416374            0.000597028549           
       0.369124             0.00514711375            0.000578729193           
       0.369804             0.00433754228            0.000530420004           
       0.370483             0.00367420929            0.000490315978           
       0.371162             0.00495907989            0.000572934915           
       0.371841             0.00459417601             0.00054183818           
       0.372520             0.00513432119            0.000584287339           
       0.373199             0.00532394958            0.000587870959           
       0.373879             0.00478857305            0.000563984815           
       0.374558             0.00361091921             0.00048260206           
       0.375237             0.00472189877            0.000552777003           
       0.375916             0.00471415492            0.000562904604           
       0.376595             0.00438900105            0.000532529401           
       0.377274             0.00486927191            0.000569887911           
       0.377954             0.00497379953            0.000566924304           
       0.378633             0.00537351525            0.000596711054           
       0.379312             0.00490549833            0.000569989367           
       0.379991             0.00459222591            0.000548634544           
       0.380670             0.00388537739            0.000513567017           
       0.381349               0.004557283            0.000548217094           
       0.382029             0.00409675584            0.000527227603           
       0.382708             0.00390354506            0.000503406441           
       0.383387             0.00524400884            0.000596695989           
       0.384066             0.00468209176            0.000558647868           
       0.384745             0.00362795311            0.000493688392           
       0.385424             0.00454850167            0.000554662507           
       0.386104             0.00450830152            0.000546103552           
       0.386783             0.00387997515            0.000517578923           
       0.387462             0.00465316487            0.000552708032           
       0.388141             0.00467833257            0.000563052261           
       0.388820             0.00407631033            0.000521778283           
       0.389499             0.00507753924            0.000585621532           
       0.390178             0.00404265749            0.000524626091           
       0.390858             0.00383456216            0.000506810766           
       0.391537              0.0047409661            0.000569290042           
       0.392216             0.00427489041            0.000533807565           
       0.392895              0.0042319515            0.000532909181           
       0.393574             0.00382047935            0.000505084384           
       0.394253             0.00338235747            0.000477379931           
       0.394933             0.00387284631            0.000516659215           
       0.395612             0.00383642621            0.000499287262           
       0.396291             0.00414515918            0.000529554342           
       0.396970             0.00465317932            0.000556096114           
       0.397649             0.00435168714            0.000539434692           
       0.398328             0.00345778902            0.000478736042           
       0.399008             0.00482240567            0.000564136084           
       0.399687             0.00519072011            0.000587559017           
       0.400366             0.00357876862             0.00048600443           
       0.401045             0.00492788504            0.000569222161           
       0.401724             0.00474534005            0.000559512125           
       0.402403             0.00382511416            0.000506255592           
       0.403083             0.00404009414            0.000512785126           
       0.403762             0.00414648866            0.000522054965           
       0.404441             0.00460062503            0.000553403207           
       0.405120                0.00463232            0.000553485219           
       0.405799             0.00445728094             0.00054056875           
       0.406478             0.00380473144            0.000499446349           
       0.407158             0.00403898424            0.000513626098           
       0.407837             0.00384599899            0.000505629048           
       0.408516             0.00533797519            0.000590501583           
       0.409195             0.00372181869            0.000498665448           
       0.409874             0.00364668758            0.000500474251           
       0.410553             0.00343364597            0.000490858302           
       0.411233             0.00334083088            0.000481669839           
       0.411912             0.00410085556            0.000541215009           
       0.412591             0.00349981559            0.000503291958           
       0.413270             0.00283680846            0.000450966476           
       0.413949             0.00428474412            0.000560285475           
       0.414628              0.0037574388            0.000523735995           
       0.415307             0.00325363756            0.000492782488           
       0.415987             0.00261201474            0.000437889807           
       0.416666             0.00257760733            0.000432378958           
       0.417345             0.00252676241            0.000435242082           
       0.418024             0.00259450952             0.00044104954           
       0.418703             0.00265185331            0.000445077772           
       0.419382             0.00344216483            0.000504595705           
       0.420062             0.00294723101            0.000468219937           
       0.420741             0.00283292513            0.000461491639           
       0.421420             0.00309067743            0.000483857053           
       0.422099             0.00269368959            0.000451726218           
       0.422778               0.003126445            0.000489296843           
       0.423457             0.00292436227            0.000476115926           
       0.424137             0.00311821605             0.00048363126           
       0.424816              0.0031153793            0.000493514165           
       0.425495             0.00240402597            0.000433114469           
       0.426174             0.00286448773            0.000472942823           
       0.426853             0.00229616198            0.000420862621           
       0.427532             0.00233909118            0.000428370021           
       0.428212             0.00260965712             0.00045545415           
       0.428891             0.00291053535            0.000479899669           
       0.429570             0.00212860841            0.000410684907           
       0.430249             0.00241021678            0.000434738596           
       0.430928             0.00221025157            0.000425417673           
       0.431607             0.00259945921            0.000453428813           
       0.432287             0.00248597114            0.000446667985           
       0.432966             0.00188595208            0.000392469104           
       0.433645             0.00229519987            0.000433414755           
       0.434324             0.00274480225            0.000471110899           
       0.435003             0.00300123506            0.000493467722           
       0.435682             0.00215271248            0.000421355965           
       0.436361              0.0019886889            0.000404443563           
       0.437041             0.00115028036            0.000307182441           
       0.437720             0.00232214154            0.000438559594           
       0.438399             0.00225988844            0.000434898747           
       0.439078             0.00286712972            0.000504060764           
       0.439757             0.00150655967            0.000363135464           
       0.440436             0.00240328738            0.000468983109           
       0.441116             0.00288448678            0.000522195063           
       0.441795             0.00222930358            0.000459627509           
       0.442474             0.00318652929            0.000551048317           
       0.443153             0.00176406395            0.000419569034           
       0.443832             0.00227570581            0.000477348703           
       0.444511             0.00215403014            0.000462319596           
       0.445191             0.00288770585            0.000548314714           
       0.445870             0.00247630286            0.000507770147           
       0.446549             0.00137332876            0.000382127451           
       0.447228             0.00250600405            0.000513275905           
       0.447907             0.00214484283            0.000480549314           
       0.448586             0.00124846378             0.00037545168           
       0.449266             0.00145156221            0.000401116641           
       0.449945             0.00231398436            0.000504380196           
       0.450624              0.0027853238            0.000562157791           
       0.451303             0.00200616035            0.000483277622           
       0.451982                 0.0023187             0.00051634865           
       0.452661            0.000861675599            0.000320633696           
       0.453341             0.00230779488            0.000526568849           
       0.454020             0.00304194982             0.00060547177           
       0.454699             0.00212049569            0.000510134959           
       0.455378             0.00139447384            0.000413908719           
       0.456057             0.00195813471            0.000499202225           
       0.456736             0.00131690635            0.000408109105           
       0.457416             0.00129911959            0.000405355189           
       0.458095             0.00293459396            0.000618052345           
       0.458774             0.00141410453            0.000434704296           
       0.459453             0.00276674569            0.000611114589           
       0.460132             0.00147330972            0.000436318116           
       0.460811             0.00147795657            0.000453310156           
       0.461490             0.00157430808            0.000463094779           
       0.462170             0.00206462592            0.000538605408           
       0.462849             0.00108076912            0.000392214988           
       0.463528             0.00235467701            0.000577583953           
       0.464207             0.00318177617            0.000683967244           
       0.464886             0.00140047904            0.000450239782           
       0.465565             0.00292205283             0.00065749788           
       0.466245             0.00145328703            0.000465127053           
       0.466924             0.00167573462            0.000511255592           
       0.467603             0.00145515738            0.000466315216           
       0.468282             0.00107815461             0.00041090686           
       0.468961             0.00124217291             0.00044395359           
       0.469640             0.00127166726              0.0004509853           
       0.470320             0.00191849005            0.000554313536           
       0.470999             0.00114151311            0.000431611693           
       0.471678             0.00251453725            0.000646749822           
       0.472357              0.0010193109            0.000412925166           
       0.473036            0.000693979717             0.00034286575           
       0.473715            0.000872502846            0.000387452387           
       0.474395              0.0014389161            0.000504446207           
       0.475074             0.00125627265            0.000471358915           
       0.475753             0.00106452203            0.000430153464           
       0.476432             0.00133114898            0.000498527743           
       0.477111            0.000773321315            0.000375380854           
       0.477790             0.00113954739            0.000458112954           
       0.478470            0.000771901234            0.000382025939           
       0.479149            0.000625271316            0.000347388297           
       0.479828             0.00101631658            0.000441846956           
       0.480507            0.000646445691            0.000355230901           
       0.481186            0.000493792437             0.00031746674           
       0.481865           -0.000323324718                         0           
       0.482545            0.000679062273            0.000371998233           
       0.483224             0.00151117975            0.000558729483           
       0.483903            0.000102113229            0.000147527199           
       0.484582            0.000333164999            0.000270811064           
       0.485261            0.000282408423            0.000243013614           
       0.485940             0.00102726185            0.000482178566           
       0.486619            0.000786191297            0.000417183958           
       0.487299            0.000808451358            0.000429792914           
       0.487978            0.000121155186            0.000164685686           
       0.488657            0.000630164322            0.000391086805           
       0.489336           -0.000106127646                         0           
       0.490015            0.000145644603            0.000186170631           
       0.490694           -8.82176356e-05                         0           
       0.491374           -0.000323597114                         0           
       0.492053           -6.16268495e-05                         0           
       0.492732           -6.59554425e-05                         0           
       0.493411           -6.22554906e-05                         0           
       0.494090            -0.00032367617                         0           
       0.494769            0.000218386283            0.000243590602           
       0.495449           -0.000323715582                         0           
       0.496128            0.000499391102             0.00036879272           
       0.496807           -0.000323755175                         0           
       0.497486           -0.000323775043                         0           
       0.498165           -0.000323795198                         0           
       0.498844           -0.000323815048                         0           
       0.499524           -3.61004569e-05                         0           
       0.500203           -3.43732595e-05                         0           
       0.500882            0.000555536811            0.000411386906           
       0.501561           -0.000323895038                         0           
       0.502240           -0.000323915229                         0           
       0.502919           -0.000323935329                         0           
       0.503599           -2.02735569e-05                         0           
       0.504278           -2.33021763e-05                         0           
       0.504957             -0.0003239962                         0           
       0.505636           -0.000324016294                         0           
       0.506315            -0.00032403672                         0           
       0.506994            -0.00032405678                         0           
       0.507673            0.000365066478            0.000358300316           
       0.508353            4.44635612e-06              3.865743e-05           
       0.509032           -0.000324117596                         0           
       0.509711           -0.000324137959                         0           
       0.510390            0.000405435551            0.000384961647           
       0.511069            3.30318478e-05            0.000110217071           
       0.511748           -0.000324199786                         0           
       0.512428           -0.000324220464                         0           
       0.513107           -0.000324240823                         0           
       0.513786            7.84580724e-05            0.000178774264           
       0.514465           -0.000324282018                         0           
       0.515144           -0.000324302775                         0           
       0.515823           -0.000324323344                         0           
       0.516503           -0.000324344105                         0           
       0.517182           -0.000324364864                         0           
       0.517861            0.000108398142            0.000216438898           
       0.518540           -0.000324406398                         0           
       0.519219           -0.000324427104                         0           
       0.519898           -0.000324448018                         0           
       0.520578           -0.000324469058                         0           
       0.521257            0.000680365385            0.000583197026           
       0.521936           -0.000324510644                         0           
       0.522615           -0.000324531712                         0           
       0.523294            0.000166733739            0.000285234189           
       0.523973           -0.000324573711                         0           
       0.524653           -0.000324594414                         0           
       0.525332            0.000159929887            0.000277163423           
       0.526011           -0.000324636801                         0           
       0.526690           -0.000324658143                         0           
       0.527369           -0.000324679308                         0           
       0.528048           -0.000324700624                         0           
       0.528728           -0.000324721915                         0           
       0.529407             0.00189124036             0.00101998548           
       0.530086            -0.00032476419                         0           
       0.530765           -0.000324785303                         0           
       0.531444            0.000201728649            0.000325864493           
       0.532123           -0.000324828362                         0           
       0.532802           -0.000324849903                         0           
       0.533482            -0.00032487137                         0           
       0.534161           -0.000324892872                         0           
       0.534840            0.000263533958            0.000396400632           
       0.535519           -0.000324935902                         0           
       0.536198            -0.00032495739                         0           
       0.536877           -0.000324978582                         0           
       0.537557           -0.000325000138                         0           
       0.538236            0.000328383313            0.000464737557           
       0.538915           -0.000325043631                         0           
       0.539594            0.000328804046             0.00046632832           
       0.540273           -0.000325087396                         0           
       0.540952             0.00099391848            0.000815269342           
       0.541632           -0.000325130612                         0           
       0.542311           -0.000325152216                         0           
       0.542990            0.000404550683            0.000543041441           
       0.543669           -0.000325196092                         0           
       0.544348           -0.000325218095                         0           
       0.545027           -0.000325240051                         0           
       0.545707           -0.000325262073                         0           
       0.546386           -0.000325284156                         0           
       0.547065           -0.000325305975                         0           
       0.547744           -0.000325327893                         0           
       0.548423           -0.000325350053                         0           
       0.549102           -0.000325372235                         0           
       0.549782             0.00114185824            0.000923770433           
       0.550461           -0.000325416637                         0           
       0.551140           -0.000325439103                         0           
       0.551819           -0.000325461305                         0           
       0.552498           -0.000325483696                         0           
       0.553177           -0.000325505702                         0           
       0.553856           -0.000325527787                         0           
       0.554536           -0.000325549946                         0           
       0.555215           -0.000325572442                         0           
       0.555894            0.000534384018            0.000677279819           
       0.556573            0.000656332903            0.000800032656           
       0.557252           -0.000325640018                         0           
       0.557931           -0.000325662473                         0           
       0.558611           -0.000325685454                         0           
       0.559290            -0.00032570785                         0           
       0.559969           -0.000325729695                         0           
       0.560648           -0.000325752119                         0           
       0.561327           -0.000325775043                         0           
       0.562006            -0.00032579786                         0           
       0.562686            -0.00032582069                         0           
       0.563365           -0.000325843605                         0           
       0.564044           -0.000325866404                         0           
       0.564723            0.000817653888            0.000970093429           
       0.565402           -0.000325911477                         0           
       0.566081            -0.00032593395                         0           
       0.566761           -0.000325956665                         0           
       0.567440           -0.000325979841                         0           
       0.568119           -0.000326002835                         0           
       0.568798           -0.000326026151                         0           
       0.569477           -0.000326049318                         0           
       0.570156           -0.000326072598                         0           
       0.570836             0.00105293262             0.00122256075           
       0.571515           -0.000326118491                         0           
       0.572194            -0.00032614185                         0           
       0.572873           -0.000326164675                         0           
       0.573552           -0.000326187366                         0           
       0.574231           -0.000326210517                         0           
       0.574911           -0.000326234252                         0           
       0.575590           -0.000326257529                         0           
       0.576269           -0.000326280736                         0           
       0.576948           -0.000326304388                         0           
       0.577627           -0.000326327319                         0           
       0.578306           -0.000326350574                         0           
       0.578985           -0.000326374027                         0           
       0.579665           -0.000326397346                         0           
       0.580344             0.00176700335             0.00192948114           
       0.581023               0.004807763             0.00349866598           
       0.581702           -0.000326468089                         0           
       0.582381           -0.000326491303                         0           
       0.583060            -0.00032651521                         0           
       0.583740           -0.000326538741                         0           
       0.584419            -0.00032656235                         0           
       0.585098           -0.000326585931                         0           
       0.585777           -0.000326609696                         0           
       0.586456           -0.000326633847                         0           
       0.587135           -0.000326657356                         0           
       0.587815           -0.000326680612                         0           
       0.588494           -0.000326704592                         0           
       0.589173           -0.000326729123                         0           
       0.589852            -0.00032675235                         0           
       0.590531           -0.000326776453                         0           
       0.591210             0.00619576259             0.00648931633           
       0.591890           -0.000326824001                         0           
       0.592569             -0.0003268472                         0           
       0.593248           -0.000326872563                         0           
       0.593927           -0.000326896677                         0           
       0.594606           -0.000326921287                         0           
       0.595285           -0.000326944431                         0           
       0.595965           -0.000326966028                         0           
       0.596644           -0.000326988252                         0           
