################################################################################
# EDF_DataBlockID                     0.Image.Psd
# EDF_BinarySize                      2105344
# EDF_HeaderSize                      2560
# ByteOrder                           LowByteFirst
# DataType                            FloatValue
# Dim_1                               512
# Dim_2                               1028
# Image                               0
# HeaderID                            EH:000000:000000:000000
# Size                                2105344
# Center_1                            304.9000
# Center_2                            588.7000
# Comment                             Xenocs_Cell_Window - 20251028_20perc_iodine_1.23mg
# DDummy                              0.6
# Date                                2025-11-01T22:00:34
# Delta                               21.910000
# Dummy                               -1.5
# ExposureTime                        360
# Gamma                               15.360000
# Intensity1                          8.76348e-10
# PSize_1                             7.5e-05
# PSize_2                             7.5e-05
# Pressure                            0.032712
# SampleDistance                      0.115750
# SampleEnvKind                       large
# SampleEnvPN                         ElectroChemical cell
# SampleEnvSN                         1141
# Thickness                           0
# Wavelength                          1.541891e-10
# Wavelength                          1.54189e-10
# aux                                 0
# aux_dial                            0.002375
# beamx                               588.434
# beamx_dial                          588.434
# beamz                               657.808
# beamz_dial                          657.808
# det0x                               0
# det0x_dial                          6.36945
# det0xvd                             0
# det0xvd_dial                        0
# det0y                               450.002
# det0y_dial                          481.635
# det0z                               0
# det0z_dial                          1.23302
# det0zvd                             0
# det0zvd_dial                        0
# mag                                 1.818
# mag_dial                            1.818
# om                                  0.2499
# om_dial                             -0.610199
# phi                                 -0.0120535
# phi_dial                            0
# ry                                  0.599993
# ry_dial                             0.599993
# s1bot                               0.8
# s1bot_dial                          -1.66094
# s1hl                                0.8
# s1hl_dial                           -0.608437
# s1hr                                0.8
# s1hr_dial                           0.970938
# s1top                               0.8
# s1top_dial                          -0.461562
# s2bot                               0.45
# s2bot_dial                          1.36109
# s2hl                                0.45
# s2hl_dial                           -0.83375
# s2hr                                0.45
# s2hr_dial                           -0.118594
# s2top                               0.45
# s2top_dial                          1.44734
# w2theta                             32
# w2theta_dial                        32
# waxsch                              19.2605
# waxsch_dial                         -32.7355
# waxsh                               137.085
# waxsh_dial                          -43.5338
# waxsth                              26.0607
# waxsth_dial                         -19.4086
# waxsz                               67.0407
# waxsz_dial                          -23.7954
# wind                                65.9854
# wind_dial                           66.0041
# wpsi                                124
# wpsi_dial                           124
# wstod                               115
# wstod_dial                          115
# x                                   0
# x_dial                              1.00969
# z                                   0
# z_dial                              13.3172
# CountCutoff                         6807993
# DetectorModel                       Dectris EIGER2 Si 500K, S/N E-01-0554
# ThresholdSetting                    4023.88989258
# Saturation                          0
# FlatField                           Corrected
# BackgroundReductionExtra            0.02
# BackgroundCorrectionConstant        0.0026712
# Detector                            0
# Monitor                             0
# Pil_Roi0                            0
# SumForIntensity1                    3.15485e+08
# TransmittedFlux                     876348
# det                                 0
# mon                                 0
# pilai0                              3.15485e+08
# pilai1                              791668
# pilct0                              5.44836e+08
# pilct1                              791668
# pilroi0                             0
# pilroi1                             0
# sec                                 1
# title                               20251028_20perc_iodine_1.23mg_1_00942.edf
# usaxs0                              0
# Operation                           Azimuthal average I(q)
# Error_model                         ErrorModel.poisson
# Geometrical_correction              True
# Transmission_correction             True
# Thickness_correction                False
# Binning mode                        Uniform
# Binning factor                      1.0
# Psi                                 0.0
# Omega                               0.2499
# MaskInvalidPixels                   True
# DetectorEdge                        3
# MaskFiles                           ['WAXS_corrected.edf']
################################################################################
    q(A⁻¹)                Intensity(a.u.)            Sigma_I(a.u.)            
       0.693100           -2.31679684e-05                         0           
       0.695741              0.0109320652             0.00561868382           
       0.698381             0.00407061808             0.00419977983           
       0.701021             0.00860144528             0.00863046597           
       0.703662             0.00274900312             0.00281627856           
       0.706302             0.00840038528             0.00381148969           
       0.708942             0.00836421968             0.00490884046           
       0.711583             0.00641174283             0.00372168869           
       0.714223             0.00281033895              0.0028446659           
       0.716864              0.0024445319             0.00173588341           
       0.719504             0.00429102544             0.00248182468           
       0.722144             0.00612340549             0.00274557861           
       0.724785             0.00856425039             0.00259008165           
       0.727425             0.00715243874             0.00320210742           
       0.730065             0.00851878621             0.00247194555           
       0.732706             0.00852547411             0.00207662489           
       0.735346             0.00686057638              0.0024283048           
       0.737987             0.00807367002             0.00186146753           
       0.740627             0.00854624614             0.00285755205           
       0.743267             0.00556429745             0.00154437862           
       0.745908              0.0055795738             0.00167786822           
       0.748548              0.0128680972              0.0023487075           
       0.751189             0.00468461889             0.00190952536           
       0.753829             0.00724938877             0.00218355481           
       0.756469             0.00807252123             0.00185802412           
       0.759110              0.0109577082             0.00228127242           
       0.761750              0.0077331491             0.00169455684           
       0.764390             0.00487075267             0.00140760711           
       0.767031              0.0066981761              0.0014294233           
       0.769671             0.00714371185             0.00184144681           
       0.772312              0.0068387996             0.00137163483           
       0.774952             0.00903024334             0.00212842332           
       0.777592             0.00689790132             0.00135495216           
       0.780233             0.00540538634             0.00144711356           
       0.782873             0.00635899051             0.00150115647           
       0.785513              0.0101431578             0.00202685295           
       0.788154             0.00646162683              0.0013532887           
       0.790794              0.0108135675             0.00209297025           
       0.793435             0.00783740227             0.00160071805           
       0.796075             0.00575049417             0.00132083181           
       0.798715             0.00715750827             0.00174136019           
       0.801356              0.0071277572              0.0014956158           
       0.803996             0.00716089958             0.00152834043           
       0.806637             0.00719799608             0.00121942287           
       0.809277             0.00459461846             0.00105451944           
       0.811917             0.00634824876             0.00115876263           
       0.814558             0.00682398966             0.00124863801           
       0.817198             0.00846611241             0.00132130909           
       0.819838             0.00677323751             0.00119611456           
       0.822479             0.00728875654             0.00145703654           
       0.825119             0.00734406797             0.00124481779           
       0.827760             0.00782023535             0.00130118843           
       0.830400             0.00704520536              0.0011623912           
       0.833040             0.00881442968              0.0013621855           
       0.835681             0.00788535337             0.00146468696           
       0.838321              0.0099886971             0.00138363766           
       0.840961             0.00729746211             0.00128854582           
       0.843602             0.00646661279             0.00111234896           
       0.846242             0.00721032841             0.00117439817           
       0.848883             0.00781273417             0.00125102544           
       0.851523             0.00780270587              0.0012346922           
       0.854163             0.00663122888             0.00121046509           
       0.856804             0.00644620395             0.00107308276           
       0.859444             0.00634854164             0.00104341872           
       0.862085             0.00688034363             0.00113213636           
       0.864725             0.00899377457             0.00132467312           
       0.867365             0.00604829047             0.00100732577           
       0.870006              0.0080811693             0.00110955442           
       0.872646             0.00720350575             0.00109852315           
       0.875286             0.00883013404             0.00117010252           
       0.877927             0.00546181944            0.000888004706           
       0.880567             0.00837134427             0.00113897049           
       0.883208             0.00696991559             0.00102947971           
       0.885848              0.0077016921             0.00112362228           
       0.888488             0.00733550674             0.00102852911           
       0.891129             0.00739545617              0.0010603914           
       0.893769             0.00766587674             0.00103320945           
       0.896410             0.00662663385            0.000895639221           
       0.899050             0.00876753277             0.00113294975           
       0.901690             0.00918664325               0.001263264           
       0.904331              0.0069586411            0.000974728412           
       0.906971             0.00709092122             0.00104676002           
       0.909611             0.00857537468             0.00104789185           
       0.912252             0.00710134896            0.000984955258           
       0.914892             0.00780854675              0.0011286691           
       0.917533             0.00990164887             0.00120233295           
       0.920173             0.00878761422             0.00105090253           
       0.922813             0.00691493659            0.000978265798           
       0.925454             0.00999696834             0.00105917411           
       0.928094             0.00675444492            0.000929458956           
       0.930734             0.00933291896             0.00117625851           
       0.933375             0.00752900382             0.00104609778           
       0.936015             0.00815053925            0.000988518549           
       0.938656              0.0102325595             0.00118819539           
       0.941296             0.00884959014              0.0010014228           
       0.943936              0.0074121992            0.000898764041           
       0.946577             0.00780361654            0.000916092617           
       0.949217             0.00773003367            0.000838449062           
       0.951858             0.00827776781            0.000908252286           
       0.954498             0.00815507729             0.00104346598           
       0.957138             0.00884972401             0.00102978271           
       0.959779             0.00699232509             0.00090235601           
       0.962419             0.00768688611            0.000939818304           
       0.965059             0.00737389322            0.000968110229           
       0.967700             0.00905642205             0.00109885104           
       0.970340             0.00771284106            0.000897351078           
       0.972981             0.00699857628             0.00077879681           
       0.975621             0.00893738374            0.000936258569           
       0.978261             0.00804657863            0.000844112289           
       0.980902             0.00732604443            0.000963660291           
       0.983542             0.00764283327            0.000871639513           
       0.986182             0.00815112082            0.000883768856           
       0.988823             0.00904156738            0.000903799078           
       0.991463             0.00822437302             0.00091965171           
       0.994104             0.00830365493            0.000901448164           
       0.996744             0.00772141553             0.00088664821           
       0.999384             0.00799040203            0.000806653809           
       1.002025             0.00800017229            0.000900882493           
       1.004665                0.00807127            0.000826945363           
       1.007306              0.0084575669             0.00084217032           
       1.009946             0.00749612696            0.000808604728           
       1.012586             0.00877108335            0.000851877456           
       1.015227             0.00869783687            0.000911353769           
       1.017867             0.00882027141            0.000882017045           
       1.020507             0.00771627265            0.000799098556           
       1.023148             0.00846744599            0.000903244302           
       1.025788             0.00889058698            0.000848645316           
       1.028429             0.00827492211            0.000857758778           
       1.031069             0.00700642913            0.000742743645           
       1.033709             0.00817309849            0.000852743102           
       1.036350              0.0100507573            0.000849310885           
       1.038990             0.00939148388            0.000836070161           
       1.041630             0.00744607219            0.000776475493           
       1.044271             0.00808947211            0.000761142987           
       1.046911             0.00801096506            0.000796728699           
       1.049552             0.00718027538            0.000792477791           
       1.052192             0.00824690341            0.000775520129           
       1.054832             0.00690245986            0.000715949545           
       1.057473             0.00794737667            0.000757314519           
       1.060113             0.00842323534            0.000760378053           
       1.062754             0.00801483052            0.000757278313           
       1.065394             0.00846383638            0.000822759988           
       1.068034             0.00841333457            0.000746362069           
       1.070675             0.00757629978            0.000738804477           
       1.073315              0.0079220858            0.000766304827           
       1.075955             0.00719191591            0.000689290646           
       1.078596             0.00827036485            0.000785587606           
       1.081236             0.00835248647            0.000755976963           
       1.083877             0.00932903972            0.000791782078           
       1.086517             0.00935562307            0.000850230895           
       1.089157             0.00899026445            0.000864812098           
       1.091798             0.00880622516            0.000750394404           
       1.094438             0.00794730409            0.000710559793           
       1.097078             0.00896163064             0.00072368631           
       1.099719             0.00792836375            0.000736269036           
       1.102359             0.00972628403            0.000763715413           
       1.105000             0.00899765446            0.000821372647           
       1.107640             0.00808255107            0.000744357497           
       1.110280             0.00821223884            0.000684596534           
       1.112921             0.00941562421            0.000787444903           
       1.115561             0.00793559307            0.000687067138           
       1.118202             0.00876675025            0.000722832763           
       1.120842             0.00862767982              0.0007536521           
       1.123482             0.00834713224            0.000738059818           
       1.126123             0.00856506483            0.000717104948           
       1.128763             0.00875952938            0.000730172173           
       1.131403             0.00857478861            0.000696124509           
       1.134044             0.00940349294            0.000750129454           
       1.136684             0.00945728357            0.000802052253           
       1.139325              0.0081291732            0.000685008633           
       1.141965             0.00858223915            0.000708491728           
       1.144605             0.00882251156            0.000684940175           
       1.147246             0.00873040239            0.000697308236           
       1.149886             0.00824254122            0.000675139882           
       1.152527              0.0099024124            0.000750764512           
       1.155167             0.00843397517            0.000659021308           
       1.157807             0.00809784788            0.000692364933           
       1.160448             0.00853535942            0.000694136365           
       1.163088             0.00887879176            0.000675292934           
       1.165728             0.00854533177            0.000680191644           
       1.168369             0.00815733926             0.00067071024           
       1.171009              0.0094828259            0.000701799354           
       1.173650              0.0084706534            0.000680692251           
       1.176290             0.00920034002            0.000693247893           
       1.178930             0.00908483045            0.000675167384           
       1.181571             0.00891420285            0.000682059455           
       1.184211              0.0089157198            0.000684535986           
       1.186851              0.0105970451            0.000729641761           
       1.189492             0.00818290464            0.000636853353           
       1.192132             0.00861000419            0.000645932359           
       1.194773             0.00939951549            0.000677846731           
       1.197413             0.00971146573            0.000660162499           
       1.200053              0.0103709808            0.000699544386           
       1.202694              0.0101724966            0.000658830237           
       1.205334              0.0094637199            0.000684830877           
       1.207975             0.00748454329             0.00058133144           
       1.210615              0.0106589081             0.00076531447           
       1.213255             0.00999426477            0.000663610758           
       1.215896             0.00899256091            0.000640882223           
       1.218536              0.0103666823            0.000661645016           
       1.221176              0.0103238407            0.000717855951           
       1.223817             0.00953376265            0.000647565189           
       1.226457             0.00905641328            0.000643860666           
       1.229098             0.00934322065            0.000653944545           
       1.231738             0.00974649339            0.000671195464           
       1.234378              0.0105188731            0.000655202704           
       1.237019              0.0102702793            0.000667154172           
       1.239659              0.0108114632            0.000678543351           
       1.242299              0.0115366726            0.000692026179           
       1.244940              0.0100365912            0.000627759027           
       1.247580              0.0100392569            0.000647042918           
       1.250221             0.00962157526            0.000629531316           
       1.252861              0.0110367153             0.00064187921           
       1.255501              0.0107025618            0.000686326303           
       1.258142              0.0097415768            0.000615291782           
       1.260782             0.00992744895            0.000634573655           
       1.263423              0.0111319888            0.000645686724           
       1.266063              0.0106622674            0.000647697144           
       1.268703              0.0106114339            0.000640789518           
       1.271344              0.0106216438            0.000662824981           
       1.273984              0.0106079781            0.000639746233           
       1.276624             0.00944925962            0.000592452888           
       1.279265              0.0111689262            0.000654807358           
       1.281905              0.0115641016            0.000669247859           
       1.284546             0.00929059475            0.000579822954           
       1.287186              0.0100892319            0.000592814312           
       1.289826              0.0115332433            0.000667993483           
       1.292467             0.00954639463            0.000594351795           
       1.295107              0.0108756273            0.000628080583           
       1.297747              0.0106954575             0.00059602179           
       1.300388             0.00997317046            0.000627416404           
       1.303028              0.0118426505            0.000652698236           
       1.305669               0.010924234            0.000641805208           
       1.308309              0.0111714348              0.0006426348           
       1.310949              0.0103133946            0.000616841959           
       1.313590              0.0112505415            0.000624119197           
       1.316230              0.0114893783             0.00067305418           
       1.318871              0.0107225643            0.000636797116           
       1.321511              0.0118741467            0.000657699722           
       1.324151              0.0122311657            0.000647724663           
       1.326792              0.0103224034            0.000598719825           
       1.329432              0.0102135463            0.000591351782           
       1.332072              0.0104892536            0.000590349083           
       1.334713              0.0105922241            0.000612282209           
       1.337353               0.011916363            0.000622812846           
       1.339994              0.0108528323            0.000623732627           
       1.342634              0.0110396657            0.000603246822           
       1.345274              0.0110394124             0.00062429661           
       1.347915              0.0108088088            0.000600682833           
       1.350555              0.0104689159            0.000601516417           
       1.353195              0.0114258793            0.000631494046           
       1.355836             0.00946116243            0.000565680664           
       1.358476              0.0123396824            0.000627390887           
       1.361117              0.0114478357            0.000605122945           
       1.363757              0.0107840599            0.000605251161           
       1.366397              0.0121686493            0.000623477004           
       1.369038              0.0107859509            0.000592831745           
       1.371678              0.0110627025            0.000595096105           
       1.374319              0.0111577766            0.000592501536           
       1.376959              0.0111486854            0.000586304018           
       1.379599              0.0114904343            0.000637898158           
       1.382240              0.0110598848            0.000588189032           
       1.384880              0.0113275797            0.000630520652           
       1.387520              0.0108424592            0.000585861825           
       1.390161              0.0112368861            0.000566458453           
       1.392801              0.0107960721            0.000578502551           
       1.395442               0.010036737            0.000565405449           
       1.398082               0.010528935            0.000542304883           
       1.400722              0.0117694292            0.000600583647           
       1.403363              0.0110272507            0.000611929885           
       1.406003              0.0122543508            0.000603707702           
       1.408644              0.0115820216            0.000614829558           
       1.411284              0.0111159899            0.000570355866           
       1.413924             0.00956924264            0.000527226933           
       1.416565               0.011574123            0.000577555246           
       1.419205                0.01119533            0.000592541378           
       1.421845               0.011609972            0.000603060293           
       1.424486              0.0115457206             0.00057807332           
       1.427126              0.0117994387            0.000607068619           
       1.429767              0.0101283398            0.000529187722           
       1.432407              0.0110478201            0.000578399425           
       1.435047              0.0112402275            0.000547922908           
       1.437688              0.0106796785            0.000542071275           
       1.440328              0.0118367497            0.000582444185           
       1.442968              0.0119326153             0.00059790076           
       1.445609              0.0100909941            0.000532387711           
       1.448249              0.0115389079            0.000583717271           
       1.450890              0.0111260809            0.000569439228           
       1.453530               0.010342031            0.000574373477           
       1.456170              0.0105943157            0.000564201132           
       1.458811              0.0104649039            0.000536195935           
       1.461451              0.0107898167             0.00054588442           
       1.464092              0.0107717234            0.000548992434           
       1.466732              0.0116727106             0.00056658033           
       1.469372              0.0108770236            0.000534128835           
       1.472013              0.0106842695            0.000570941489           
       1.474653              0.0100320117            0.000544705104           
       1.477293              0.0106599432            0.000573328098           
       1.479934              0.0112306603            0.000561528614           
       1.482574              0.0106568944            0.000529133688           
       1.485215              0.0113712036            0.000556759616           
       1.487855              0.0105124588            0.000542385742           
       1.490495              0.0115554883             0.00056656252           
       1.493136              0.0106629815            0.000536783331           
       1.495776              0.0108860538            0.000539899504           
       1.498416              0.0112724982            0.000567373661           
       1.501057              0.0106801938            0.000540095302           
       1.503697              0.0108126221            0.000531292853           
       1.506338               0.010687615            0.000537865025           
       1.508978              0.0113445554            0.000548699446           
       1.511618              0.0111220475            0.000578603122           
       1.514259              0.0103493265            0.000538859634           
       1.516899              0.0101382536            0.000519292805           
       1.519540              0.0101260071            0.000527347994           
       1.522180              0.0102463773            0.000535133022           
       1.524820              0.0103042464            0.000533631234           
       1.527461              0.0110505385            0.000555350836           
       1.530101             0.00981527259            0.000518157295           
       1.532741                0.01023125            0.000525953157           
       1.535382              0.0108396391            0.000550080254           
       1.538022              0.0110341679             0.00052283391           
       1.540663               0.011289788            0.000568816516           
       1.543303              0.0109191932            0.000519414559           
       1.545943              0.0108293735            0.000547496158           
       1.548584              0.0109811081            0.000561214914           
       1.551224              0.0117962256            0.000537810111           
       1.553864              0.0101917109            0.000528235135           
       1.556505              0.0095945109            0.000495112536           
       1.559145               0.010850211            0.000532965794           
       1.561786              0.0103301832            0.000520437525           
       1.564426              0.0108569333            0.000516946122           
       1.567066              0.0106219117            0.000535765507           
       1.569707              0.0100329676             0.00051134722           
       1.572347              0.0107089926            0.000545780299           
       1.574988              0.0112384705            0.000532178841           
       1.577628              0.0106302895            0.000539707152           
       1.580268              0.0102035876            0.000512316232           
       1.582909              0.0100841741            0.000539847889           
       1.585549              0.0103254915            0.000530409802           
       1.588189              0.0107034023             0.00052824268           
       1.590830              0.0103905425            0.000519811934           
       1.593470              0.0106183081            0.000546285091           
       1.596111              0.0100958832            0.000520058111           
       1.598751             0.00947623471            0.000488209667           
       1.601391             0.00969591689            0.000504731577           
       1.604032             0.00941201971            0.000507683266           
       1.606672              0.0093621748            0.000491954627           
       1.609312             0.00984971753            0.000526744986           
       1.611953             0.00938461236            0.000503135762           
       1.614593             0.00911215318             0.00048631926           
       1.617234             0.00867427985            0.000491751094           
       1.619874             0.00934729156            0.000508455025           
       1.622514              0.0100807409            0.000520823629           
       1.625155              0.0093085898            0.000503436203           
       1.627795             0.00936834764            0.000492674939           
       1.630436             0.00968867505            0.000498410846           
       1.633076             0.00888704464            0.000483607344           
       1.635716              0.0098747376             0.00050184155           
       1.638357             0.00894858405            0.000478987546           
       1.640997             0.00973538143            0.000514735222           
       1.643637             0.00901501315            0.000482007426           
       1.646278              0.0100744713            0.000525553907           
       1.648918             0.00932390163            0.000506976809           
       1.651559             0.00904998105             0.00050335089           
       1.654199             0.00866254252            0.000478959212           
       1.656839             0.00913924001            0.000492132961           
       1.659480             0.00824630032            0.000485027991           
       1.662120             0.00963296013            0.000493732888           
       1.664761             0.00855296638            0.000483257053           
       1.667401             0.00855423237            0.000461924452           
       1.670041             0.00905018062            0.000482370885           
       1.672682             0.00956609504            0.000493890993           
       1.675322             0.00896671042            0.000475092956           
       1.677962             0.00884408106            0.000466628146           
       1.680603              0.0088386242            0.000467919655           
       1.683243             0.00895165769            0.000491298587           
       1.685884             0.00877499831            0.000490018671           
       1.688524             0.00910265884            0.000489436179           
       1.691164             0.00972891913            0.000506107525           
       1.693805             0.00886032318            0.000488292621           
       1.696445             0.00899737508            0.000494908865           
       1.699085             0.00855704466            0.000466473988           
       1.701726             0.00901236288             0.00046116665           
       1.704366             0.00796657293            0.000456769992           
       1.707007             0.00933829256            0.000483509612           
       1.709647             0.00926534436            0.000487056333           
       1.712287             0.00807262113            0.000458584684           
       1.714928             0.00858669475            0.000476774228           
       1.717568              0.0096034747            0.000474970558           
       1.720209             0.00879503781            0.000476098289           
       1.722849             0.00885736364            0.000475325913           
       1.725489              0.0090954229             0.00048207568           
       1.728130             0.00863436415            0.000499157632           
       1.730770             0.00920235108            0.000489409798           
       1.733410             0.00877866135            0.000470496609           
       1.736051             0.00917261933            0.000484285482           
       1.738691             0.00846649826            0.000455840081           
       1.741332             0.00942412624            0.000494991883           
       1.743972             0.00787807364            0.000467357302           
       1.746612             0.00872413995             0.00047226621           
       1.749253             0.00826189893             0.00046866069           
       1.751893             0.00941056042            0.000496508601           
       1.754533              0.0079471584            0.000455847101           
       1.757174             0.00933738987            0.000489485579           
       1.759814             0.00942456703            0.000484311067           
       1.762455             0.00818018362            0.000459491467           
       1.765095             0.00883647781            0.000456852171           
       1.767735              0.0074301269            0.000431846776           
       1.770376             0.00892768902            0.000474618329           
       1.773016             0.00820706061            0.000452012028           
       1.775657             0.00838881228            0.000450414239           
       1.778297              0.0088037266            0.000457445437           
       1.780937             0.00889603923            0.000485358298           
       1.783578             0.00815678579            0.000453133709           
       1.786218             0.00868151359            0.000487868247           
       1.788858             0.00860595764            0.000461336392           
       1.791499             0.00835028354             0.00044932812           
       1.794139             0.00834576521            0.000445562042           
       1.796780             0.00871007889            0.000452988725           
       1.799420             0.00858954556            0.000447352369           
       1.802060             0.00877658988            0.000455849398           
       1.804701             0.00828787972            0.000425099932           
       1.807341              0.0087882142            0.000459973128           
       1.809981             0.00929832978            0.000474711949           
       1.812622             0.00904552041            0.000459784709           
       1.815262             0.00923790512            0.000474518654           
       1.817903             0.00832408772            0.000443763758           
       1.820543             0.00945900505            0.000480420288           
       1.823183             0.00823466211            0.000448004817           
       1.825824             0.00866202938            0.000438971618           
       1.828464             0.00818712799            0.000444924662           
       1.831105             0.00849324475            0.000440637121           
       1.833745             0.00864758676            0.000454118591           
       1.836385             0.00852126659             0.00046365444           
       1.839026             0.00824203382            0.000454553745           
       1.841666             0.00823547638            0.000452761711           
       1.844306             0.00863899036            0.000451068209           
       1.846947              0.0082328067             0.00044419637           
       1.849587             0.00765737461            0.000473048227           
       1.852228             0.00823934581            0.000443710089           
       1.854868             0.00829186218             0.00047020547           
       1.857508             0.00765482548            0.000447351343           
       1.860149             0.00798845318            0.000465299014           
       1.862789             0.00828680836            0.000457431231           
       1.865429             0.00837883075            0.000480132077           
       1.868070             0.00842847256            0.000475134042           
       1.870710             0.00883310776            0.000475191619           
       1.873351             0.00755240298            0.000444826387           
       1.875991             0.00760192715             0.00045356588           
       1.878631             0.00727304357            0.000435149249           
       1.881272             0.00822679961            0.000459701495           
       1.883912              0.0079770631            0.000471098089           
       1.886553             0.00852103308            0.000481452215           
       1.889193             0.00813184316            0.000469525153           
       1.891833             0.00738592159            0.000464718029           
       1.894474             0.00804144994            0.000480679413           
       1.897114             0.00800978906            0.000464226847           
       1.899754             0.00831965576            0.000475100759           
       1.902395              0.0080990571            0.000459594896           
       1.905035             0.00735353806            0.000463842808           
       1.907676             0.00773408558            0.000448342447           
       1.910316             0.00916860896            0.000501115603           
       1.912956             0.00758879395            0.000445873212           
       1.915597             0.00777364975            0.000453793155           
       1.918237             0.00828647086            0.000483869528           
       1.920878             0.00781348769            0.000467933823           
       1.923518             0.00885684717            0.000498408887           
       1.926158              0.0078899715            0.000464313616           
       1.928799             0.00829057808            0.000470445923           
       1.931439             0.00821816094            0.000480672081           
       1.934079             0.00714255301            0.000467147605           
       1.936720             0.00739394224            0.000440376827           
       1.939360             0.00841098929            0.000501092184           
       1.942001             0.00746016514            0.000432538786           
       1.944641             0.00771125152            0.000448419752           
       1.947281              0.0083784333            0.000463107737           
       1.949922             0.00785874188            0.000463276501           
       1.952562             0.00803654303            0.000483172965           
       1.955202             0.00790013948            0.000478471039           
       1.957843             0.00777666292            0.000462406359           
       1.960483             0.00756005252            0.000476664761           
       1.963124             0.00788551797            0.000476829762           
       1.965764             0.00747815031            0.000437894944           
       1.968404             0.00802317401            0.000449286171           
       1.971045             0.00808295649            0.000459774303           
       1.973685             0.00802670616            0.000480587906           
       1.976326              0.0073638236            0.000453989304           
       1.978966             0.00866208808            0.000496706573           
       1.981606              0.0085721241            0.000504425656           
       1.984247             0.00702724665            0.000453712599           
       1.986887             0.00812593307            0.000482048914           
       1.989527             0.00729682101            0.000451875592           
       1.992168             0.00758061069            0.000477889749           
       1.994808             0.00749571147            0.000473169136           
       1.997449             0.00835788003            0.000489380082           
       2.000089             0.00831018345            0.000486047004           
       2.002729             0.00763109956            0.000466043891           
       2.005370             0.00807471227            0.000474240447           
       2.008010             0.00733222182             0.00047163385           
       2.010650             0.00710570181            0.000467755887           
       2.013291              0.0072786946             0.00045421602           
       2.015931             0.00784130473            0.000468111144           
       2.018572             0.00843558529            0.000519315892           
       2.021212             0.00769810743            0.000487183072           
       2.023852             0.00771875271            0.000461713713           
       2.026493             0.00822836468            0.000498010373           
       2.029133              0.0079468353              0.0004795676           
       2.031774              0.0084872748            0.000520127848           
       2.034414             0.00771656004            0.000456342844           
       2.037054             0.00802835514            0.000477269199           
       2.039695             0.00734672372            0.000453110878           
       2.042335             0.00738965755            0.000472255572           
       2.044975             0.00707024737            0.000456334433           
       2.047616             0.00729369708            0.000462338053           
       2.050256              0.0084136701            0.000501267058           
       2.052897             0.00838218772            0.000509552199           
       2.055537             0.00708597581            0.000452787674           
       2.058177             0.00793447232            0.000469197926           
       2.060818             0.00816367263            0.000498569827           
       2.063458             0.00782056284            0.000508523848           
       2.066098             0.00782467603             0.00047983447           
       2.068739             0.00800767693              0.0004929584           
       2.071379             0.00769339932            0.000495789695           
       2.074020             0.00804022635            0.000495826799           
       2.076660             0.00701411302            0.000466851695           
       2.079300             0.00716688962            0.000483471338           
       2.081941             0.00669961358            0.000427998885           
       2.084581             0.00705431329            0.000463561528           
       2.087222             0.00696264043            0.000444146447           
       2.089862             0.00768853496            0.000508334672           
       2.092502             0.00828126877            0.000511399424           
       2.095143             0.00726475641            0.000494624117           
       2.097783             0.00703754687            0.000471331296           
       2.100423             0.00806066158            0.000486064808           
       2.103064             0.00770230482            0.000493018868           
       2.105704             0.00705769604            0.000469600063           
       2.108345             0.00745822931            0.000463785392           
       2.110985             0.00717568388              0.0004858828           
       2.113625             0.00723176076            0.000492034224           
       2.116266             0.00793076856            0.000522575733           
       2.118906             0.00744473758            0.000471852328           
       2.121546              0.0085379742             0.00049566314           
       2.124187             0.00687574591            0.000466907288           
       2.126827             0.00705997462            0.000478401479           
       2.129468             0.00747014422            0.000493359342           
       2.132108             0.00741077459            0.000478089865           
       2.134748             0.00674345963            0.000454287588           
       2.137389             0.00719294655            0.000489475131           
       2.140029             0.00700518162            0.000432450692           
       2.142670             0.00705102819            0.000463679278           
       2.145310             0.00698872012            0.000449308881           
       2.147950             0.00697774925            0.000462098153           
       2.150591              0.0076011886            0.000477425896           
       2.153231             0.00692556609            0.000469087237           
       2.155871             0.00824021291            0.000494313212           
       2.158512             0.00832876129             0.00051854464           
       2.161152             0.00739408699            0.000473271832           
       2.163793             0.00739345762             0.00047112116           
       2.166433             0.00657771061            0.000456322717           
       2.169073              0.0075124905            0.000476813508           
       2.171714             0.00804315684            0.000489678569           
       2.174354             0.00823545033            0.000517749162           
       2.176995             0.00671439019            0.000465530086           
       2.179635             0.00776756599            0.000529108683           
       2.182275             0.00780223291            0.000500676096           
       2.184916             0.00876695756            0.000512614143           
       2.187556              0.0074973798            0.000469295142           
       2.190196             0.00740669459            0.000487432197           
       2.192837             0.00797883758            0.000503155747           
       2.195477             0.00696847137            0.000448299218           
       2.198118             0.00667832383            0.000450112359           
       2.200758             0.00840566923             0.00051807784           
       2.203398             0.00792824054            0.000506368595           
       2.206039             0.00697007184            0.000449343798           
       2.208679             0.00819881548            0.000498685916           
       2.211319             0.00729444926            0.000473091066           
       2.213960             0.00753255555            0.000487191664           
       2.216600             0.00647506185            0.000467274166           
       2.219241             0.00748921671            0.000480289542           
       2.221881             0.00728269197             0.00047459474           
       2.224521               0.008020374            0.000504154556           
       2.227162             0.00811442717            0.000496948629           
       2.229802             0.00703144984            0.000477080534           
       2.232443             0.00821599775            0.000507568577           
       2.235083             0.00751170326            0.000499642049           
       2.237723             0.00691134884            0.000459919544           
       2.240364             0.00794922429            0.000505396623           
       2.243004             0.00727664781            0.000479683708           
       2.245644             0.00740032351            0.000488584936           
       2.248285             0.00737805463            0.000478076198           
       2.250925             0.00737801929            0.000480979168           
       2.253566             0.00758774161            0.000521460534           
       2.256206             0.00668065335            0.000479515784           
       2.258846             0.00733196648            0.000477870801           
       2.261487             0.00693794632            0.000487906445           
       2.264127             0.00704953525            0.000474986662           
       2.266767             0.00824036442            0.000527222238           
       2.269408             0.00747293589            0.000504128156           
       2.272048             0.00812411088            0.000522496182           
       2.274689             0.00609925573             0.00045868935           
       2.277329             0.00669616247            0.000452525729           
       2.279969             0.00733269731            0.000504062588           
       2.282610             0.00747470946            0.000494765805           
       2.285250             0.00762785158             0.00047838465           
       2.287891             0.00716087989             0.00049695294           
       2.290531             0.00694974214            0.000496152985           
       2.293171             0.00682682466            0.000479004851           
       2.295812             0.00811117292            0.000520023695           
       2.298452              0.0065541657            0.000488833933           
       2.301092             0.00712196683            0.000473451789           
       2.303733             0.00736449557            0.000500871688           
       2.306373             0.00618458809             0.00046622608           
       2.309014             0.00725293614            0.000495042253           
       2.311654             0.00699817569            0.000507446156           
       2.314294             0.00671816787            0.000458063601           
       2.316935             0.00708357623            0.000472299189           
       2.319575             0.00692318721            0.000489225752           
       2.322215             0.00671514592            0.000502136827           
       2.324856             0.00749227209            0.000487645099           
       2.327496             0.00727986125            0.000511116831           
       2.330137             0.00735953741            0.000491769826           
       2.332777             0.00726936213            0.000503951038           
       2.335417             0.00759876804            0.000499862387           
       2.338058             0.00708420784            0.000497058886           
       2.340698             0.00731473284            0.000501112325           
       2.343339             0.00771187963            0.000525859094           
       2.345979             0.00742031638            0.000488009333           
       2.348619             0.00679460933            0.000484050773           
       2.351260             0.00664279865            0.000475824184           
       2.353900             0.00725291534            0.000495620582           
       2.356540             0.00743641123            0.000501138535           
       2.359181              0.0080074635            0.000512733756           
       2.361821             0.00666806764            0.000451969959           
       2.364462             0.00732241692            0.000495354975           
       2.367102             0.00654277864            0.000481193612           
       2.369742             0.00624501829            0.000494830202           
       2.372383             0.00739548566            0.000487595809           
       2.375023             0.00668082445            0.000487173765           
       2.377663             0.00652686853            0.000460411207           
       2.380304             0.00715848511            0.000490213931           
       2.382944             0.00749381393            0.000477724035           
       2.385585             0.00706368755            0.000494662807           
       2.388225             0.00738892723            0.000503545445           
       2.390865             0.00743115578            0.000499795009           
       2.393506             0.00803355391            0.000509854009           
       2.396146             0.00701020253            0.000514969402           
       2.398787             0.00677248547            0.000466468257           
       2.401427              0.0073948932            0.000470484222           
       2.404067             0.00670100663            0.000457857015           
       2.406708             0.00731005864            0.000472477252           
       2.409348             0.00704488795             0.00049198096           
       2.411988             0.00692338331            0.000477857569           
       2.414629             0.00755034892            0.000514567134           
       2.417269             0.00667112304            0.000489326959           
       2.419910             0.00665005744            0.000489687433           
       2.422550             0.00775610581            0.000505965962           
       2.425190             0.00734455977            0.000518998329           
       2.427831             0.00670885515            0.000493240891           
       2.430471             0.00639041257            0.000458619339           
       2.433112             0.00714613912            0.000472254721           
       2.435752              0.0066090792            0.000480645476           
       2.438392             0.00773190573            0.000501784133           
       2.441033              0.0067302938            0.000496151336           
       2.443673             0.00669922733            0.000495385464           
       2.446313             0.00644416638            0.000486291882           
       2.448954             0.00718411564            0.000488878589           
       2.451594              0.0071443271            0.000524201045           
       2.454235             0.00730160717            0.000497218734           
       2.456875             0.00861968068              0.0005652809           
       2.459515             0.00627049586            0.000494617339           
       2.462156             0.00755070473            0.000512446109           
       2.464796             0.00803444849            0.000521786594           
       2.467436             0.00760318491            0.000524907192           
       2.470077             0.00753612156            0.000495317729           
       2.472717             0.00806144654            0.000514509767           
       2.475358             0.00776415801            0.000510198629           
       2.477998             0.00859632845            0.000527794186           
       2.480638             0.00717568879            0.000490782591           
       2.483279             0.00659481311            0.000491746337           
       2.485919             0.00720605285            0.000495385593           
       2.488560             0.00809870325            0.000523705589           
       2.491200             0.00574202959            0.000454085839           
       2.493840             0.00703198405            0.000531720743           
       2.496481             0.00750093431            0.000540181232           
       2.499121              0.0072161479            0.000515341892           
       2.501761             0.00645371959            0.000493814889           
       2.504402             0.00703187492            0.000507928847           
       2.507042             0.00675863486            0.000494273816           
       2.509683              0.0073832321             0.00050871271           
       2.512323             0.00710628582             0.00052415859           
       2.514963             0.00720136347            0.000521134519           
       2.517604             0.00629626176            0.000505634082           
       2.520244              0.0067155968            0.000489563895           
       2.522884             0.00723119207            0.000515274741           
       2.525525             0.00977402095             0.00060585975           
       2.528165             0.00788658811            0.000535743714           
       2.530806             0.00659092756            0.000498299457           
       2.533446             0.00684700613            0.000497046955           
       2.536086             0.00793762345            0.000530380691           
       2.538727             0.00721334223            0.000485050437           
       2.541367             0.00730135424            0.000492807621           
       2.544008             0.00655145038            0.000482105533           
       2.546648              0.0068566744            0.000501667888           
       2.549288             0.00774531601            0.000544050576           
       2.551929             0.00742816328            0.000524302506           
       2.554569             0.00669694303            0.000479615826           
       2.557209             0.00755063943            0.000513945809           
       2.559850             0.00657721181            0.000481214554           
       2.562490             0.00665782302            0.000500399661           
       2.565131             0.00732685445            0.000544281427           
       2.567771             0.00778722489            0.000541004355           
       2.570411              0.0072380483            0.000515935637           
       2.573052             0.00746317476            0.000530495586           
       2.575692             0.00674725765            0.000501355464           
       2.578332             0.00709935707            0.000516397144           
       2.580973             0.00767431838            0.000531792581           
       2.583613             0.00684923884            0.000490430488           
       2.586254             0.00704057961            0.000496542614           
       2.588894             0.00751718304            0.000532802705           
       2.591534             0.00760636146            0.000554812733           
       2.594175             0.00720794497            0.000529895199           
       2.596815             0.00673826893            0.000515361073           
       2.599456             0.00688535381            0.000494019619           
       2.602096             0.00672225081            0.000491848135           
       2.604736             0.00732244159            0.000525508209           
       2.607377             0.00692898312            0.000497722999           
       2.610017             0.00666110246            0.000479467011           
       2.612657             0.00757699154            0.000543917637           
       2.615298              0.0066597824             0.00049785691           
       2.617938             0.00681353629            0.000538692394           
       2.620579             0.00638473004            0.000500601883           
       2.623219               0.007127619            0.000528170245           
       2.625859             0.00769590473            0.000533608951           
       2.628500             0.00652970222            0.000488296885           
       2.631140             0.00723160374            0.000521789437           
       2.633780              0.0071042309            0.000516724201           
       2.636421             0.00808724279            0.000564873801           
       2.639061             0.00818660773            0.000535020575           
       2.641702              0.0059904172            0.000468259502           
       2.644342             0.00703622327            0.000509652847           
       2.646982              0.0072413407            0.000509298641           
       2.649623             0.00806086866            0.000563116939           
       2.652263              0.0074365842            0.000535444271           
       2.654904             0.00788564389            0.000551928476           
       2.657544             0.00663816317            0.000476970217           
       2.660184             0.00759828079            0.000540045255           
       2.662825             0.00683354694            0.000524029865           
       2.665465             0.00676302522             0.00050420122           
       2.668105             0.00634524847            0.000514771047           
       2.670746             0.00723775756             0.00050788284           
       2.673386              0.0078643261            0.000545599622           
       2.676027             0.00869517874            0.000564489549           
       2.678667              0.0100029043            0.000590769781           
       2.681307              0.0105721974            0.000596754285           
       2.683948              0.0143785319            0.000715043439           
       2.686588              0.0119551659             0.00064119541           
       2.689229               0.010865704            0.000597319394           
       2.691869             0.00982271203            0.000600243571           
       2.694509             0.00951826259            0.000591192922           
       2.697150             0.00785365159            0.000528302204           
       2.699790             0.00686551523            0.000517835835           
       2.702430             0.00803371158            0.000535447545           
       2.705071             0.00684707749            0.000510790254           
       2.707711             0.00697288931            0.000500294168           
       2.710352             0.00761269439             0.00055234344           
       2.712992             0.00573846343            0.000488421296           
       2.715632             0.00647289989            0.000481283913           
       2.718273             0.00680056879            0.000511254839           
       2.720913             0.00656121845            0.000500748424           
       2.723553             0.00689590579            0.000516805556           
       2.726194             0.00659871546             0.00052846286           
       2.728834             0.00766481679            0.000569822205           
       2.731475             0.00749239565            0.000519947234           
       2.734115             0.00823912048            0.000562163879           
       2.736755             0.00623464263            0.000493046924           
       2.739396             0.00723536106            0.000528066993           
       2.742036             0.00679673921            0.000535642222           
       2.744677             0.00730714944            0.000538881946           
       2.747317             0.00685166823            0.000518095558           
       2.749957             0.00666813385            0.000514696269           
       2.752598             0.00775224126            0.000560983797           
       2.755238             0.00751994383            0.000562489018           
       2.757878             0.00806023296            0.000577253676           
       2.760519             0.00816462192            0.000574819427           
       2.763159              0.0105315693            0.000646320756           
       2.765800             0.00839302243            0.000549852927           
       2.768440             0.00701583099            0.000506424351           
       2.771080             0.00853540818            0.000563244842           
       2.773721              0.0078558767            0.000554298236           
       2.776361             0.00788435512            0.000562962965           
       2.779001             0.00795667797            0.000585673027           
       2.781642             0.00674268942            0.000535172171           
       2.784282             0.00617945198            0.000520757288           
       2.786923             0.00647536404            0.000537773757           
       2.789563             0.00648507473            0.000518327506           
       2.792203             0.00645338172            0.000493939382           
       2.794844             0.00707209314            0.000566706304           
       2.797484             0.00654338332            0.000514452137           
       2.800125             0.00630138424            0.000530849238           
       2.802765             0.00645722911            0.000528128943           
       2.805405             0.00676839626            0.000542534294           
       2.808046             0.00737032282            0.000576097408           
       2.810686             0.00688302899            0.000511567585           
       2.813326             0.00685075949            0.000530130452           
       2.815967             0.00619745608            0.000518556491           
       2.818607             0.00698004317            0.000525159897           
       2.821248              0.0069266852            0.000512287731           
       2.823888             0.00709661237            0.000538250856           
       2.826528             0.00661314456            0.000503200036           
       2.829169             0.00759055195            0.000564682237           
       2.831809             0.00651931628            0.000530439685           
       2.834449             0.00650721432            0.000533296233           
       2.837090             0.00668341065            0.000522006428           
       2.839730             0.00698302953             0.00053097382           
       2.842371             0.00671978239            0.000521621059           
       2.845011             0.00587179005            0.000491485606           
       2.847651             0.00618903276             0.00050520773           
       2.850292             0.00681000915            0.000535147979           
       2.852932             0.00768443877            0.000580856947           
       2.855573              0.0070744013            0.000540620257           
       2.858213             0.00815997853            0.000609721396           
       2.860853             0.00743501391            0.000541399734           
       2.863494             0.00696510016            0.000542540809           
       2.866134             0.00697807072            0.000564428733           
       2.868774             0.00647392596            0.000534303775           
       2.871415             0.00727419824            0.000575187671           
       2.874055             0.00669191954            0.000527343695           
       2.876696             0.00727702618            0.000564789175           
       2.879336             0.00755734968            0.000554733717           
       2.881976             0.00702173546            0.000551521239           
       2.884617             0.00814116761            0.000585137297           
       2.887257             0.00751376246            0.000565039795           
       2.889897             0.00638820439            0.000510279637           
       2.892538             0.00655691709            0.000566346877           
       2.895178             0.00727031841            0.000538772607           
       2.897819             0.00650766096            0.000519974574           
       2.900459             0.00714189848            0.000534127365           
       2.903099             0.00673278573            0.000513294943           
       2.905740             0.00733869329            0.000549758844           
       2.908380             0.00728718517            0.000554050725           
       2.911021              0.0064038057            0.000527828504           
       2.913661             0.00725371179            0.000561595711           
       2.916301             0.00692235324            0.000549141767           
       2.918942             0.00637102363             0.00050391623           
       2.921582              0.0067589649            0.000543056627           
       2.924222             0.00749363168            0.000553973211           
       2.926863             0.00764661023            0.000582887137           
       2.929503             0.00713788015            0.000569835699           
       2.932144             0.00758698385             0.00056395334           
       2.934784             0.00689526048            0.000528814941           
       2.937424             0.00816206081            0.000581251886           
       2.940065             0.00700734704            0.000513743851           
       2.942705             0.00722464578            0.000520994214           
       2.945346             0.00697929208            0.000543437085           
       2.947986             0.00638416782             0.00052996664           
       2.950626             0.00740591522            0.000567588531           
       2.953267              0.0074920741            0.000561656683           
       2.955907             0.00684658981            0.000556977469           
       2.958547             0.00702601501            0.000532660639           
       2.961188             0.00787207966            0.000588222133           
       2.963828             0.00744226645            0.000559461449           
       2.966469             0.00749472601            0.000550760662           
       2.969109             0.00571349607            0.000488004168           
       2.971749             0.00724333529            0.000546039544           
       2.974390              0.0072269165            0.000535975282           
       2.977030             0.00741328539            0.000554973758           
       2.979670             0.00872067273            0.000585487557           
       2.982311             0.00775937891            0.000572406265           
       2.984951             0.00780409771             0.00054597523           
       2.987592              0.0073185849            0.000539309091           
       2.990232             0.00704926182            0.000550458833           
       2.992872             0.00757194974            0.000537380289           
       2.995513             0.00909350607            0.000576140687           
       2.998153              0.0105284943            0.000630350469           
       3.000794              0.0125598189            0.000666862543           
       3.003434              0.0128404057            0.000675288331           
       3.006074              0.0461341231             0.00126206263           
       3.008715               0.113839238             0.00191374547           
       3.011355               0.183491623             0.00234298142           
       3.013995               0.093616533             0.00167809678           
       3.016636              0.0609440669             0.00132584949           
       3.019276                0.11969456             0.00182646033           
       3.021917               0.453004698             0.00341661137           
       3.024557                1.59533623             0.00630376945           
       3.027197                1.19289952             0.00531443755           
       3.029838               0.502510678             0.00349820311           
       3.032478               0.271545136             0.00257415531           
       3.035118              0.0720864528             0.00134408999           
       3.037759              0.0961744844             0.00155049637           
       3.040399               0.131056477             0.00186702366           
       3.043040               0.499053398             0.00368795005           
       3.045680                0.41702859             0.00317189347           
       3.048320              0.0870447265             0.00148065568           
       3.050961               0.104319244             0.00164949421           
       3.053601              0.0866353573             0.00144776184           
       3.056242              0.0581385193             0.00126096078           
       3.058882              0.0471482576             0.00121809719           
       3.061522              0.0360909513              0.0010456108           
       3.064163              0.0421312405             0.00111549978           
       3.066803               0.102681233             0.00183337986           
       3.069443               0.103553696             0.00192631698           
       3.072084              0.0563636551             0.00138383546           
       3.074724              0.0389021246             0.00128391396           
       3.077365              0.0863249275             0.00197984393           
       3.080005              0.0191340951            0.000937391016           
       3.082645              0.0108378867            0.000741130771           
       3.085286              0.0133712607             0.00082970118           
       3.087926             0.00913007687            0.000680319005           
       3.090566              0.0105549121            0.000716709616           
       3.093207              0.0106843768            0.000750370574           
       3.095847             0.00934741237            0.000672716482           
       3.098488             0.00833178049            0.000704238547           
       3.101128              0.0118198168             0.00084419018           
       3.103768             0.00841155472             0.00069875448           
       3.106409              0.0086052231            0.000752175083           
       3.109049             0.00835067734            0.000711069107           
       3.111690             0.00824003189            0.000694216924           
       3.114330               0.009565157            0.000763868809           
       3.116970             0.00780351365            0.000695247162           
       3.119611              0.0106537701            0.000864698175           
       3.122251              0.0170679957             0.00114485311           
       3.124891               0.035602795             0.00166888786           
       3.127532              0.0236597104             0.00133093829           
       3.130172              0.0147313099             0.00106835143           
       3.132813              0.0107847096            0.000899908154           
       3.135453              0.0065604883            0.000696097157           
       3.138093             0.00615243765            0.000730412985           
       3.140734             0.00650057438            0.000692665182           
       3.143374             0.00734839672            0.000778829016           
       3.146014             0.00829338192            0.000890725918           
       3.148655             0.00726557715             0.00077500762           
       3.151295              0.0073099231            0.000828408372           
       3.153936             0.00620871118            0.000737483609           
       3.156576             0.00502260504            0.000654287049           
       3.159216             0.00634122711            0.000738851744           
       3.161857             0.00630029653            0.000733466114           
       3.164497             0.00754270426            0.000843231325           
       3.167138             0.00763423894            0.000876534437           
       3.169778             0.00603115322            0.000766239407           
       3.172418             0.00628716768            0.000774375717           
       3.175059             0.00620649731            0.000682098302           
       3.177699             0.00553416537             0.00068205736           
       3.180339             0.00724069395             0.00083588335           
       3.182980             0.00472804899            0.000698352063           
       3.185620             0.00556207742            0.000771394761           
       3.188261             0.00631310225            0.000836491223           
       3.190901              0.0056200202             0.00072587145           
       3.193541             0.00672780966            0.000834508326           
       3.196182             0.00550447404            0.000786645827           
       3.198822              0.0065121192            0.000855909882           
       3.201463             0.00695972411            0.000869591716           
       3.204103               0.006864324            0.000858356893           
       3.206743             0.00526782122            0.000751871738           
       3.209384             0.00673990525             0.00091885206           
       3.212024             0.00642947711            0.000836697672           
       3.214664             0.00704880128            0.000996215396           
       3.217305             0.00482773804            0.000783702338           
       3.219945             0.00550983425            0.000861733268           
       3.222586             0.00758749837            0.000963186322           
       3.225226             0.00556236882            0.000914865441           
       3.227866              0.0071588855            0.000948618219           
       3.230507             0.00771860687             0.00102106473           
       3.233147             0.00593252504            0.000902394393           
       3.235787               0.006023253            0.000930522707           
       3.238428             0.00584255309            0.000988974589           
       3.241068             0.00657211949            0.000980779127           
       3.243709             0.00530025335            0.000909984344           
       3.246349             0.00728987525            0.000972851938           
       3.248989             0.00598042495             0.00104044882           
       3.251630             0.00553870163            0.000964212311           
       3.254270             0.00416081244            0.000746901839           
       3.256911             0.00478492377            0.000873938547           
       3.259551             0.00537099012            0.000996828792           
       3.262191             0.00579866688             0.00105797307           
       3.264832             0.00672378342             0.00119034106           
       3.267472             0.00480232766            0.000943719801           
       3.270112             0.00609778791             0.00117521058           
       3.272753             0.00549901344             0.00102151961           
       3.275393             0.00512118747             0.00100586137           
       3.278034             0.00669132343             0.00115041158           
       3.280674             0.00651667553             0.00123195713           
       3.283314             0.00634181412             0.00108692334           
       3.285955             0.00496781639            0.000992572444           
       3.288595             0.00714739343             0.00132454869           
       3.291235             0.00517257161              0.0011583421           
       3.293876             0.00557936644             0.00122031623           
       3.296516              0.0051684087             0.00112756023           
       3.299157             0.00792804273             0.00137896349           
       3.301797              0.0106442683             0.00182260829           
       3.304437             0.00537268954             0.00112186394           
       3.307078             0.00479185786             0.00116709193           
       3.309718             0.00360213987             0.00104445249           
       3.312359             0.00486203737             0.00121372613           
       3.314999             0.00557154743             0.00127923784           
       3.317639             0.00591417223             0.00126049039           
       3.320280             0.00577616545             0.00132443283           
       3.322920             0.00595119526             0.00136697632           
       3.325560             0.00686866463             0.00146956905           
       3.328201             0.00612181855             0.00124949899           
       3.330841             0.00639457709             0.00155422713           
       3.333482             0.00708823396             0.00154673137           
       3.336122              0.0060742119             0.00143248615           
       3.338762             0.00491473305             0.00148845478           
       3.341403             0.00616943701             0.00159351927           
       3.344043             0.00781993825              0.0017224426           
       3.346683             0.00589668317             0.00152699656           
       3.349324             0.00750644801              0.0019370678           
       3.351964              0.0055469318             0.00176083658           
       3.354605             0.00437739453             0.00178893556           
       3.357245             0.00473397242             0.00167825315           
       3.359885             0.00571816473             0.00147624525           
       3.362526             0.00588171306              0.0018723211           
       3.365166             0.00691031046             0.00191415908           
       3.367807             0.00346130708             0.00173376533           
       3.370447             0.00298548857             0.00133567741           
       3.373087             0.00408778987             0.00167134233           
       3.375728             0.00777222325             0.00260095592           
       3.378368             0.00565479147             0.00329259683           
       3.381008             0.00206892715             0.00148484456           
       3.383649             0.00481682203              0.0018174947           
       3.386289             0.00768212298             0.00271652698           
       3.388930             0.00233959318             0.00237130209           
       3.391570             0.00471007478             0.00238008847           
       3.394210             0.00580794502             0.00334472499           
       3.396851             0.00236281305             0.00238636924           
       3.399491             0.00922049382             0.00471543914           
       3.402131              0.0141395345             0.00826150364           
       3.404772           -2.58005558e-05                         0           
       3.407412                       nan                       nan           
       3.410053             0.00903778312             0.00935462658           
       3.412693                       nan                       nan           
       3.415333           -2.59135285e-05                         0           
