################################################################################
# EDF_DataBlockID                     0.Image.Psd
# EDF_BinarySize                      4366944
# EDF_HeaderSize                      2560
# ByteOrder                           LowByteFirst
# DataType                            FloatValue
# Dim_1                               1028
# Dim_2                               1062
# Image                               0
# HeaderID                            EH:000000:000000:000000
# Size                                4366944
# Center_1                            607.5200
# Center_2                            651.5500
# Comment                             Xenocs_Cell_Window - 20251028_20perc_iodine_1.23mg
# DDummy                              0.6
# Date                                2025-10-31T18:22:15
# Delta                               0
# Dummy                               -1.5
# ExposureTime                        360
# Gamma                               0
# Intensity1                          8.60475e-10
# PSize_1                             7.5e-05
# PSize_2                             7.5e-05
# Pressure                            0.0326843
# SampleDistance                      0.450002
# SampleEnvKind                       large
# SampleEnvPN                         ElectroChemical cell
# SampleEnvSN                         1141
# Thickness                           0
# Wavelength                          1.541891e-10
# Wavelength                          1.54189e-10
# aux                                 0
# aux_dial                            0.002375
# beamx                               588.434
# beamx_dial                          588.434
# beamz                               657.808
# beamz_dial                          657.808
# det0x                               0
# det0x_dial                          6.36945
# det0xvd                             0
# det0xvd_dial                        0
# det0y                               450.002
# det0y_dial                          481.635
# det0z                               0
# det0z_dial                          1.23302
# det0zvd                             0
# det0zvd_dial                        0
# mag                                 1.818
# mag_dial                            1.818
# om                                  0.2499
# om_dial                             -0.610199
# phi                                 -0.0120535
# phi_dial                            0
# ry                                  0.599993
# ry_dial                             0.599993
# s1bot                               0.8
# s1bot_dial                          -1.66094
# s1hl                                0.8
# s1hl_dial                           -0.608437
# s1hr                                0.8
# s1hr_dial                           0.970938
# s1top                               0.8
# s1top_dial                          -0.461562
# s2bot                               0.45
# s2bot_dial                          1.36109
# s2hl                                0.45
# s2hl_dial                           -0.83375
# s2hr                                0.45
# s2hr_dial                           -0.118594
# s2top                               0.45
# s2top_dial                          1.44734
# w2theta                             32
# w2theta_dial                        32
# waxsch                              19.2605
# waxsch_dial                         -32.7355
# waxsh                               137.085
# waxsh_dial                          -43.5338
# waxsth                              26.0607
# waxsth_dial                         -19.4086
# waxsz                               67.0407
# waxsz_dial                          -23.7954
# wind                                65.9854
# wind_dial                           66.0041
# wpsi                                124
# wpsi_dial                           124
# wstod                               115
# wstod_dial                          115
# x                                   0
# x_dial                              1.00969
# z                                   0
# z_dial                              13.3172
# CountCutoff                         15302352
# DetectorModel                       Dectris EIGER2 Si 1M, S/N E-02-0362
# ThresholdSetting                    4023.88989258
# Saturation                          0
# FlatField                           Corrected
# BackgroundReductionExtra            0.02
# BackgroundCorrectionConstant        0.0026712
# Detector                            0
# Monitor                             0
# Pil_Roi0                            0
# SumForIntensity1                    3.09771e+08
# TransmittedFlux                     860475
# det                                 0
# mon                                 0
# pilai0                              3.09771e+08
# pilai1                              777827
# pilct0                              5.36017e+08
# pilct1                              777827
# pilroi0                             0
# pilroi1                             0
# sec                                 1
# title                               20251028_20perc_iodine_1.23mg_0_00691.edf
# usaxs0                              0
# Operation                           Azimuthal average I(q)
# Error_model                         ErrorModel.poisson
# Geometrical_correction              True
# Transmission_correction             True
# Thickness_correction                False
# Binning mode                        Uniform
# Binning factor                      1.0
# Psi                                 0.0
# Omega                               0.2499
# MaskInvalidPixels                   True
# DetectorEdge                        3
# MaskFiles                           ['20251028_20perc_iodine_1.23mg_0_00012_mask.edf']
################################################################################
    q(A⁻¹)                Intensity(a.u.)            Sigma_I(a.u.)            
       0.000340                372291.241                120.091865           
       0.001019                359139.967                72.2303464           
       0.001698                349478.157                50.3828678           
       0.002377                 330782.97                43.8419115           
       0.003056                308207.666                35.7664372           
       0.003735                253517.723                28.6079001           
       0.004415                204730.667                25.7083008           
       0.005094                152931.611                19.2424917           
       0.005773                100960.555                14.4748908           
       0.006452                58789.8979                10.5832742           
       0.007131                32281.5198                7.59720945           
       0.007810                16212.4705                5.34301773           
       0.008490                8119.38074                3.35162955           
       0.009169                3917.86046                2.30096334           
       0.009848                1200.34085                1.23138279           
       0.010527                461.686449               0.763685619           
       0.011206                116.355721               0.365905071           
       0.011885                53.4276986               0.230369967           
       0.012564                  24.95451               0.161640028           
       0.013244                16.7906642               0.123956215           
       0.013923                12.5273075               0.108795993           
       0.014602                9.36978638              0.0872637355           
       0.015281                7.60146343              0.0800103986           
       0.015960                6.16575683              0.0715429681           
       0.016639                 5.0060361              0.0608744943           
       0.017319                4.06553687              0.0540057631           
       0.017998                3.42791393              0.0474424898           
       0.018677                2.94116132              0.0455152666           
       0.019356                2.52392774              0.0416615315           
       0.020035                2.14192245              0.0360074115           
       0.020714                1.82337713              0.0335738014           
       0.021394                1.62623515              0.0300001752           
       0.022073                1.42893558              0.0292582134           
       0.022752                1.23177454              0.0259860707           
       0.023431                1.11035989              0.0239488234           
       0.024110                 1.0332331              0.0240856384           
       0.024789               0.924315888              0.0211567725           
       0.025469               0.762343369              0.0198000638           
       0.026148                0.73029825               0.018208591           
       0.026827                0.68846533              0.0179623068           
       0.027506               0.611896628              0.0171782188           
       0.028185               0.539469637              0.0153818622           
       0.028864               0.513399288              0.0149213924           
       0.029544               0.467261527              0.0138040809           
       0.030223               0.471105862              0.0140595069           
       0.030902               0.419309297              0.0133854911           
       0.031581                0.37113795              0.0119711748           
       0.032260               0.359700216              0.0119860765           
       0.032939               0.321787313              0.0109311625           
       0.033619               0.294670974              0.0106141894           
       0.034298               0.283513843              0.0101318901           
       0.034977               0.265040409             0.00960372245           
       0.035656               0.261980597             0.00980082561           
       0.036335               0.228808571             0.00888341319           
       0.037014               0.212528185             0.00858707985           
       0.037693                 0.1967555             0.00794821857           
       0.038373               0.183925526             0.00776012105           
       0.039052               0.183732554             0.00778904869           
       0.039731               0.170926466             0.00733761974           
       0.040410               0.162878054             0.00711476051           
       0.041089               0.145290288             0.00661440121           
       0.041768               0.143642536             0.00661114751           
       0.042448               0.132713391             0.00630535616           
       0.043127               0.135150045             0.00621269658           
       0.043806               0.124905892             0.00601713413           
       0.044485               0.117295048              0.0057111464           
       0.045164               0.125775389             0.00603055915           
       0.045843               0.111768355             0.00545246269           
       0.046523                0.10583702             0.00532413637           
       0.047202               0.104618425             0.00533038631           
       0.047881              0.0963363431             0.00501640749           
       0.048560              0.0971033563             0.00508224278           
       0.049239              0.0944291646             0.00481220617           
       0.049918              0.0907632822             0.00481010246           
       0.050598              0.0882747581             0.00467253253           
       0.051277              0.0857241022              0.0045899214           
       0.051956              0.0895457639             0.00466165882           
       0.052635               0.078059348             0.00426004891           
       0.053314              0.0834441222              0.0045333098           
       0.053993              0.0728618645             0.00411992964           
       0.054673              0.0814570003             0.00425912467           
       0.055352              0.0707069448             0.00402642799           
       0.056031              0.0704318603              0.0039341518           
       0.056710              0.0739355393             0.00412959262           
       0.057389              0.0771751078             0.00406851901           
       0.058068              0.0702099477             0.00392058603           
       0.058748              0.0819172573              0.0042876892           
       0.059427               0.066732954             0.00380443192           
       0.060106              0.0735235528             0.00403110392           
       0.060785              0.0650018294             0.00367673337           
       0.061464                0.05546514             0.00347819031           
       0.062143              0.0625709191             0.00365675056           
       0.062822              0.0588756147             0.00350550274           
       0.063502              0.0607618518             0.00355485157           
       0.064181              0.0568537551             0.00340231963           
       0.064860              0.0563757197             0.00343958833           
       0.065539              0.0534755022             0.00331718903           
       0.066218              0.0535253742             0.00324767541           
       0.066897               0.052663335             0.00324628519           
       0.067577              0.0513886691             0.00323756592           
       0.068256              0.0522502747             0.00334478761           
       0.068935              0.0489413683             0.00318480333           
       0.069614              0.0534121647             0.00336021135           
       0.070293                0.04680708             0.00317459699           
       0.070972              0.0420532166             0.00298703903           
       0.071652              0.0488549426             0.00322545809           
       0.072331              0.0446200879             0.00302755753           
       0.073010              0.0471159159             0.00318216387           
       0.073689              0.0480786815              0.0031968474           
       0.074368              0.0462410575             0.00312945672           
       0.075047              0.0466723809             0.00311022489           
       0.075727              0.0464918931             0.00308503236           
       0.076406              0.0432457738             0.00303474926           
       0.077085              0.0408481731             0.00289430385           
       0.077764              0.0387840125             0.00281034554           
       0.078443              0.0420857243             0.00294565138           
       0.079122              0.0402833745             0.00285420116           
       0.079802              0.0368339518             0.00275821196           
       0.080481              0.0387365895             0.00273313989           
       0.081160              0.0387753568             0.00279061943           
       0.081839              0.0404978797             0.00280627171           
       0.082518              0.0399573886             0.00278982994           
       0.083197              0.0356749655             0.00259513514           
       0.083876               0.035246403             0.00253663801           
       0.084556               0.035520489             0.00261730223           
       0.085235              0.0308181538             0.00239080884           
       0.085914              0.0304743281             0.00240052976           
       0.086593              0.0371373834             0.00263294323           
       0.087272              0.0369819843             0.00259028936           
       0.087951               0.029264288             0.00235626028           
       0.088631              0.0327396859              0.0024073623           
       0.089310              0.0300556244             0.00235549335           
       0.089989              0.0333492544             0.00245219433           
       0.090668              0.0359707572             0.00257486329           
       0.091347              0.0298178562             0.00235744929           
       0.092026              0.0311530399             0.00230323778           
       0.092706               0.031866179             0.00241400326           
       0.093385               0.034781602             0.00248328607           
       0.094064               0.028704616             0.00228219742           
       0.094743              0.0276672215             0.00220643381           
       0.095422              0.0290677464             0.00223637048           
       0.096101              0.0281272283             0.00224520034           
       0.096781              0.0282302547             0.00221710211           
       0.097460              0.0298890322             0.00221907859           
       0.098139              0.0289813615              0.0021683108           
       0.098818              0.0331137739             0.00228920668           
       0.099497              0.0286728086             0.00213455103           
       0.100176              0.0302092124             0.00213349033           
       0.100856              0.0286776945             0.00207737408           
       0.101535              0.0328933216             0.00222053719           
       0.102214              0.0259738827             0.00197321911           
       0.102893              0.0296284844             0.00208345884           
       0.103572              0.0256814763             0.00191106984           
       0.104251              0.0279498823             0.00200105021           
       0.104931              0.0263021461             0.00192349757           
       0.105610              0.0257285328              0.0019105226           
       0.106289              0.0270166453             0.00192518383           
       0.106968              0.0273613159             0.00194317523           
       0.107647              0.0250628654             0.00186088449           
       0.108326              0.0273545448             0.00191809297           
       0.109005              0.0272362442             0.00190189889           
       0.109685              0.0276392208              0.0018944263           
       0.110364              0.0222165131              0.0017177409           
       0.111043              0.0272646672             0.00189537188           
       0.111722               0.022820062             0.00171282014           
       0.112401              0.0243007899             0.00177243196           
       0.113080              0.0248581777             0.00177210108           
       0.113760              0.0249343643             0.00180445882           
       0.114439              0.0249952695             0.00178087708           
       0.115118              0.0272618271              0.0018458458           
       0.115797              0.0227943751              0.0017034783           
       0.116476              0.0246949163             0.00174653495           
       0.117155              0.0259729073             0.00180560391           
       0.117835              0.0237504622             0.00169230095           
       0.118514              0.0218968567             0.00164552491           
       0.119193              0.0235123958             0.00170516004           
       0.119872              0.0247259825             0.00172674337           
       0.120551              0.0245435991              0.0017089037           
       0.121230              0.0220473317             0.00160337056           
       0.121910              0.0222326348             0.00162565558           
       0.122589               0.019786642             0.00153520512           
       0.123268              0.0231249235             0.00162751203           
       0.123947              0.0219210244             0.00159482919           
       0.124626              0.0208178872             0.00153517999           
       0.125305              0.0219095439             0.00158264549           
       0.125985              0.0208060743             0.00153030856           
       0.126664               0.019992594             0.00148580514           
       0.127343              0.0216818021             0.00156523682           
       0.128022              0.0212176325             0.00153651553           
       0.128701              0.0227757523             0.00158364057           
       0.129380              0.0207037177             0.00149097629           
       0.130059              0.0211301302             0.00150975011           
       0.130739              0.0220589766             0.00155342415           
       0.131418              0.0227161478             0.00157198029           
       0.132097              0.0204291091             0.00147163023           
       0.132776              0.0241265826             0.00159205018           
       0.133455              0.0215337526             0.00151575764           
       0.134134              0.0213725646             0.00150526506           
       0.134814               0.019476822             0.00142215079           
       0.135493              0.0217374066             0.00150849712           
       0.136172              0.0201812984             0.00144252785           
       0.136851              0.0221810371             0.00152110459           
       0.137530              0.0209464361             0.00144304727           
       0.138209              0.0209045728             0.00145852971           
       0.138889              0.0206995376             0.00145775697           
       0.139568              0.0192752359             0.00140610229           
       0.140247              0.0202422684             0.00143905417           
       0.140926              0.0211967109             0.00143048419           
       0.141605              0.0207136251             0.00145001543           
       0.142284              0.0196961422              0.0013905234           
       0.142964              0.0192338808             0.00137936465           
       0.143643              0.0204767636             0.00142143602           
       0.144322              0.0182210741             0.00131280274           
       0.145001              0.0198619217             0.00139877305           
       0.145680              0.0184444344             0.00131604597           
       0.146359              0.0188620654             0.00133573022           
       0.147039              0.0187182831             0.00134158437           
       0.147718              0.0204167248             0.00137800832           
       0.148397              0.0182869513             0.00132442147           
       0.149076              0.0221728507             0.00141312437           
       0.149755              0.0189090696             0.00132513227           
       0.150434              0.0209440626             0.00139518511           
       0.151114              0.0202683434             0.00136490273           
       0.151793              0.0206987764             0.00137933239           
       0.152472              0.0166928923             0.00121680897           
       0.153151              0.0183962685             0.00128973359           
       0.153830              0.0190272864             0.00130211038           
       0.154509              0.0202566635             0.00133791193           
       0.155188              0.0196135986             0.00131601749           
       0.155868              0.0197819925             0.00131224977           
       0.156547              0.0174165095             0.00123920408           
       0.157226               0.019050568             0.00126437853           
       0.157905              0.0190248904             0.00127413922           
       0.158584              0.0181971028             0.00124384771           
       0.159263              0.0183338001             0.00125310474           
       0.159943              0.0179284986             0.00124010046           
       0.160622              0.0191908194             0.00125825445           
       0.161301              0.0189837573             0.00126818643           
       0.161980              0.0196479819              0.0012682481           
       0.162659              0.0180715092             0.00122978622           
       0.163338              0.0159913506             0.00114741551           
       0.164018               0.018079425             0.00121362643           
       0.164697              0.0168932687             0.00118820276           
       0.165376              0.0183928419             0.00121273004           
       0.166055              0.0183948018             0.00122079306           
       0.166734              0.0159883585             0.00113304361           
       0.167413              0.0180296055             0.00120404235           
       0.168093              0.0169748295             0.00117934314           
       0.168772              0.0149770706             0.00107537662           
       0.169451              0.0164152174             0.00114653718           
       0.170130              0.0158906775             0.00111326041           
       0.170809              0.0197908461             0.00125721606           
       0.171488               0.016293101             0.00113032254           
       0.172168              0.0177372877             0.00116802407           
       0.172847               0.016410559             0.00113824987           
       0.173526              0.0172398445             0.00114439963           
       0.174205              0.0171632278             0.00114711269           
       0.174884              0.0173640796             0.00114779244           
       0.175563              0.0168191443             0.00113446147           
       0.176243              0.0168402633             0.00114653396           
       0.176922              0.0173948909             0.00113489469           
       0.177601              0.0163214414             0.00111140087           
       0.178280              0.0153021304             0.00106412409           
       0.178959              0.0170294439             0.00113160734           
       0.179638              0.0173227911             0.00113802557           
       0.180317              0.0170661388             0.00112133486           
       0.180997              0.0177035756             0.00114828334           
       0.181676              0.0185630804             0.00116327224           
       0.182355              0.0181066884             0.00115578324           
       0.183034              0.0159028364             0.00106577997           
       0.183713              0.0179749906             0.00114688978           
       0.184392              0.0175185011             0.00113189053           
       0.185072              0.0160399523             0.00107072904           
       0.185751               0.019599804             0.00118688987           
       0.186430              0.0158318742             0.00105924932           
       0.187109               0.017779381             0.00113501147           
       0.187788              0.0179642437             0.00113808416           
       0.188467              0.0175637778              0.0011120101           
       0.189147              0.0169358182             0.00110300836           
       0.189826              0.0160243115             0.00105394207           
       0.190505              0.0176526847              0.0011244064           
       0.191184              0.0165787606             0.00107396279           
       0.191863              0.0160117658             0.00105766171           
       0.192542              0.0192606281             0.00117095094           
       0.193222              0.0175132028             0.00109154826           
       0.193901              0.0169072945             0.00108687511           
       0.194580              0.0167494829             0.00106286759           
       0.195259              0.0178324762             0.00110928633           
       0.195938              0.0173714751             0.00109746762           
       0.196617              0.0176709523             0.00109143653           
       0.197297               0.015787393              0.0010358417           
       0.197976               0.016497006             0.00104260078           
       0.198655              0.0162368353             0.00104564477           
       0.199334              0.0164185804             0.00104220795           
       0.200013              0.0162017629             0.00103472953           
       0.200692              0.0156098432             0.00102176125           
       0.201371              0.0149785807            0.000989615839           
       0.202051              0.0156166907             0.00101361787           
       0.202730              0.0172233084             0.00105384941           
       0.203409              0.0149140311             0.00098724147           
       0.204088              0.0178095951             0.00107763642           
       0.204767              0.0178184739             0.00107223968           
       0.205446               0.016782429             0.00104263394           
       0.206126              0.0142361324            0.000947239111           
       0.206805              0.0143135875            0.000967224874           
       0.207484              0.0167522555             0.00102756964           
       0.208163              0.0165857976              0.0010285957           
       0.208842              0.0143393186            0.000953810994           
       0.209521              0.0155386939            0.000984647939           
       0.210201              0.0153699993            0.000990216569           
       0.210880              0.0161248702            0.000994339003           
       0.211559              0.0158513036             0.00100044431           
       0.212238              0.0160648995             0.00100203728           
       0.212917              0.0134468288            0.000913352068           
       0.213596              0.0155715184            0.000988676309           
       0.214276              0.0153903104            0.000962429377           
       0.214955              0.0161865763             0.00100776875           
       0.215634               0.015700509            0.000985408907           
       0.216313              0.0145963809            0.000948133081           
       0.216992              0.0150097811            0.000961225113           
       0.217671              0.0142633675            0.000930673264           
       0.218351               0.017191729             0.00103174604           
       0.219030              0.0155169995             0.00096473271           
       0.219709              0.0171252998             0.00101981837           
       0.220388              0.0171172261             0.00101826812           
       0.221067              0.0140549897            0.000923431949           
       0.221746              0.0155509416            0.000970337654           
       0.222426              0.0157711079            0.000962578527           
       0.223105              0.0162148688            0.000989323795           
       0.223784              0.0151250121            0.000946019853           
       0.224463              0.0174846358             0.00102524003           
       0.225142              0.0161588076            0.000970008069           
       0.225821              0.0155917031            0.000956672545           
       0.226500              0.0141818506            0.000918196522           
       0.227180              0.0152893597            0.000938687221           
       0.227859              0.0162539452            0.000972186551           
       0.228538              0.0154046426            0.000936942686           
       0.229217              0.0146115163            0.000919727102           
       0.229896              0.0140255146            0.000900661526           
       0.230575              0.0154235169            0.000929426811           
       0.231255              0.0170398762            0.000991540961           
       0.231934               0.013605017            0.000879933234           
       0.232613              0.0155640352            0.000944627578           
       0.233292              0.0153742458            0.000929779441           
       0.233971              0.0132053846            0.000861302751           
       0.234650              0.0156064905            0.000947352207           
       0.235330              0.0147084303             0.00091166011           
       0.236009              0.0166682159             0.00096840541           
       0.236688              0.0158817957            0.000941901411           
       0.237367              0.0145792109            0.000903759702           
       0.238046              0.0155080809            0.000938669667           
       0.238725              0.0144954241            0.000893504566           
       0.239405              0.0137165811            0.000874558742           
       0.240084              0.0146965855            0.000899497602           
       0.240763              0.0159374398            0.000945670366           
       0.241442              0.0136302535            0.000862222868           
       0.242121              0.0147706411            0.000899262008           
       0.242800              0.0145539701            0.000896867939           
       0.243480              0.0149391267            0.000904403217           
       0.244159              0.0148419981            0.000901894562           
       0.244838              0.0146310055            0.000880726489           
       0.245517              0.0159760545            0.000933558159           
       0.246196              0.0132131277            0.000849412776           
       0.246875              0.0157078406            0.000913224695           
       0.247554              0.0142003025            0.000877121497           
       0.248234              0.0131852258            0.000832375032           
       0.248913              0.0136496984            0.000856408952           
       0.249592              0.0145415675            0.000875545484           
       0.250271              0.0142957991             0.00086559436           
       0.250950              0.0135260024            0.000847123642           
       0.251629              0.0146995522            0.000875602732           
       0.252309              0.0151821309             0.00089166549           
       0.252988              0.0143922561            0.000853206069           
       0.253667               0.014377327            0.000862726998           
       0.254346              0.0144257082            0.000863999527           
       0.255025              0.0145510127            0.000865843013           
       0.255704              0.0127872404            0.000807955211           
       0.256384              0.0130037163            0.000811946759           
       0.257063              0.0139984907            0.000847234228           
       0.257742              0.0133839258            0.000822687738           
       0.258421              0.0129457166             0.00080755024           
       0.259100              0.0128799655            0.000806901521           
       0.259779              0.0125409674            0.000795537028           
       0.260459              0.0144052012            0.000854292448           
       0.261138              0.0129612479            0.000794509608           
       0.261817              0.0129533175            0.000810299447           
       0.262496              0.0121018955            0.000775535234           
       0.263175              0.0127915155            0.000799038386           
       0.263854              0.0119004588             0.00076712493           
       0.264534               0.013573178            0.000812268984           
       0.265213              0.0126167988            0.000795470893           
       0.265892              0.0143559532            0.000837655982           
       0.266571                0.01237865            0.000776064062           
       0.267250              0.0131458277            0.000801098434           
       0.267929              0.0129653826            0.000794765556           
       0.268609              0.0146494992            0.000849433066           
       0.269288              0.0125240508            0.000772351494           
       0.269967               0.013313649            0.000804906275           
       0.270646              0.0122744849            0.000769514773           
       0.271325              0.0122074081            0.000768691005           
       0.272004               0.012255089            0.000762513218           
       0.272683              0.0124797493            0.000770421438           
       0.273363               0.012163851            0.000765459217           
       0.274042              0.0124808975            0.000770796107           
       0.274721              0.0119754355            0.000754578979           
       0.275400              0.0113969149            0.000731252999           
       0.276079              0.0124579354            0.000768875622           
       0.276758              0.0122600263            0.000772369447           
       0.277438              0.0119344418            0.000753490602           
       0.278117              0.0120421964            0.000770647478           
       0.278796              0.0129103704            0.000789844327           
       0.279475              0.0112940643            0.000750953381           
       0.280154              0.0124694345            0.000777712087           
       0.280833               0.010556318             0.00071992089           
       0.281513              0.0113265428            0.000757421857           
       0.282192              0.0106151277            0.000720739994           
       0.282871               0.010706575             0.00072889588           
       0.283550              0.0126861693            0.000797676168           
       0.284229              0.0121103867            0.000790810876           
       0.284908              0.0115283986            0.000779713302           
       0.285588              0.0120750944            0.000788642335           
       0.286267              0.0109909043            0.000764452075           
       0.286946              0.0120977679            0.000796806202           
       0.287625              0.0100823061            0.000739796683           
       0.288304               0.011177507            0.000768515827           
       0.288983              0.0113220731            0.000783264666           
       0.289663              0.0105302099            0.000759798657           
       0.290342              0.0116482279            0.000794862394           
       0.291021              0.0112980477            0.000787040709           
       0.291700              0.0116363269            0.000788301996           
       0.292379             0.00955902841            0.000730841242           
       0.293058              0.0103272277            0.000756770985           
       0.293738              0.0111721861            0.000780511533           
       0.294417              0.0111037774            0.000787162512           
       0.295096                0.01107734            0.000777581648           
       0.295775             0.00961722169            0.000735589397           
       0.296454             0.00979499147            0.000732754823           
       0.297133             0.00991594831            0.000740753277           
       0.297812              0.0101200829            0.000752092481           
       0.298492             0.00955329183            0.000732139811           
       0.299171              0.0110884971            0.000787283996           
       0.299850             0.00992282255            0.000739668117           
       0.300529             0.00954715023            0.000733704048           
       0.301208              0.0103180336            0.000764606563           
       0.301887              0.0110874161            0.000791659336           
       0.302567              0.0085034016            0.000689825024           
       0.303246             0.00988310327            0.000748540797           
       0.303925             0.00839559431            0.000698771644           
       0.304604               0.010097084            0.000749768424           
       0.305283              0.0108038586            0.000787068279           
       0.305962              0.0102737891            0.000762880814           
       0.306642             0.00898595881            0.000723156405           
       0.307321             0.00851088958            0.000701533633           
       0.308000             0.00797909384            0.000671211291           
       0.308679             0.00916787928            0.000735057699           
       0.309358             0.00810595017            0.000681826865           
       0.310037               0.010379968            0.000773279878           
       0.310717             0.00715180943            0.000641251843           
       0.311396             0.00911956833            0.000728971812           
       0.312075             0.00791360522            0.000687675442           
       0.312754             0.00936127433            0.000732972078           
       0.313433             0.00831549182            0.000696826529           
       0.314112             0.00738020207            0.000656319234           
       0.314792             0.00908061353            0.000733153126           
       0.315471             0.00833503012            0.000693723563           
       0.316150              0.0091934702            0.000735315061           
       0.316829             0.00867856015            0.000719144276           
       0.317508             0.00852018014            0.000704556326           
       0.318187             0.00650148011              0.0006235755           
       0.318866             0.00828760687            0.000694556074           
       0.319546             0.00896963642            0.000733401517           
       0.320225              0.0087750138            0.000725415413           
       0.320904             0.00943889367            0.000740723072           
       0.321583              0.0078870525            0.000692019497           
       0.322262             0.00844187165            0.000705095273           
       0.322941             0.00849065441            0.000716189091           
       0.323621             0.00837273886            0.000706858323           
       0.324300             0.00803114702            0.000692831536           
       0.324979             0.00819077266            0.000700947901           
       0.325658             0.00829075418            0.000706492396           
       0.326337             0.00673315272            0.000637508832           
       0.327016             0.00772308726            0.000678432241           
       0.327696             0.00850920969            0.000720044072           
       0.328375             0.00751985487            0.000671179848           
       0.329054             0.00973444568            0.000767783749           
       0.329733             0.00723615352            0.000664385779           
       0.330412             0.00904434112            0.000736685016           
       0.331091             0.00652073812            0.000636867399           
       0.331771             0.00551761039            0.000570485305           
       0.332450             0.00660176841            0.000636136329           
       0.333129              0.0075478425            0.000678436765           
       0.333808             0.00671691784            0.000640850323           
       0.334487              0.0073262351            0.000672459723           
       0.335166             0.00754005724            0.000672218061           
       0.335846             0.00815994071            0.000711593572           
       0.336525             0.00684916322            0.000645502832           
       0.337204             0.00604053774            0.000607791004           
       0.337883             0.00790718858            0.000696310285           
       0.338562             0.00582241871            0.000600823428           
       0.339241             0.00701730945            0.000660835696           
       0.339921             0.00666394181            0.000633182556           
       0.340600             0.00840945335            0.000724798606           
       0.341279             0.00603737629            0.000607549892           
       0.341958              0.0062258285            0.000625663369           
       0.342637             0.00645732265             0.00062818751           
       0.343316             0.00710548211            0.000660869026           
       0.343995             0.00596577918             0.00061546849           
       0.344675             0.00714306688             0.00066108758           
       0.345354             0.00624976124            0.000622448828           
       0.346033             0.00620584046            0.000618640939           
       0.346712              0.0058646446            0.000605231535           
       0.347391              0.0055653111            0.000593234216           
       0.348070             0.00648364437            0.000631217787           
       0.348750             0.00581669182            0.000606510173           
       0.349429              0.0071271181            0.000662695276           
       0.350108             0.00655573041            0.000643224104           
       0.350787             0.00728490578            0.000666533803           
       0.351466             0.00695555526            0.000663290142           
       0.352145              0.0074132868            0.000685335583           
       0.352825             0.00684872587            0.000655739208           
       0.353504             0.00551434114            0.000588256258           
       0.354183              0.0058606035             0.00059945738           
       0.354862             0.00475542377            0.000552532885           
       0.355541             0.00518087681            0.000569167184           
       0.356220             0.00520318372            0.000571468589           
       0.356900               0.005690169            0.000603289841           
       0.357579             0.00586184781            0.000604814933           
       0.358258             0.00524425408            0.000579983827           
       0.358937              0.0068410713            0.000649970211           
       0.359616             0.00628109346            0.000631497574           
       0.360295             0.00457525235            0.000539415264           
       0.360975             0.00534266232            0.000580407762           
       0.361654             0.00470714027            0.000547603444           
       0.362333             0.00542930914            0.000585121379           
       0.363012             0.00563138548            0.000603578049           
       0.363691             0.00551628241            0.000585592046           
       0.364370             0.00489817507            0.000558654873           
       0.365050              0.0049700176            0.000559725688           
       0.365729             0.00482851748            0.000556960722           
       0.366408             0.00458798197            0.000544112957           
       0.367087             0.00473416273             0.00054384832           
       0.367766             0.00487633607            0.000563454613           
       0.368445             0.00489395265            0.000554449532           
       0.369124             0.00548982668            0.000591847498           
       0.369804              0.0054108113            0.000586632635           
       0.370483              0.0043725873            0.000529663855           
       0.371162             0.00505165145            0.000572609327           
       0.371841             0.00549042943            0.000586551214           
       0.372520              0.0046444856            0.000550288911           
       0.373199             0.00450510759            0.000535494008           
       0.373879             0.00378461724            0.000496492081           
       0.374558              0.0051737682            0.000572032576           
       0.375237             0.00500637298            0.000563624968           
       0.375916             0.00659013463            0.000659047946           
       0.376595             0.00493716838            0.000559289556           
       0.377274             0.00523597566            0.000585185064           
       0.377954              0.0046238634            0.000541278064           
       0.378633             0.00390124831            0.000503470037           
       0.379312             0.00486022804            0.000561811343           
       0.379991             0.00392709309            0.000502393622           
       0.380670             0.00355061309            0.000486148766           
       0.381349             0.00478880357            0.000556480664           
       0.382029             0.00380904946            0.000503411808           
       0.382708             0.00401132153             0.00050532397           
       0.383387             0.00501453104            0.000577794715           
       0.384066             0.00457950579             0.00054709719           
       0.384745             0.00494538503            0.000570767362           
       0.385424              0.0047118554            0.000559020328           
       0.386104             0.00345555781            0.000473439619           
       0.386783               0.004355617            0.000543030153           
       0.387462             0.00430601084             0.00052649725           
       0.388141             0.00353023868            0.000484330912           
       0.388820             0.00425966984            0.000528174392           
       0.389499             0.00478127289             0.00056272881           
       0.390178               0.003954752            0.000513822397           
       0.390858             0.00427568038            0.000529941035           
       0.391537             0.00525491328            0.000593498917           
       0.392216             0.00438282033             0.00053522459           
       0.392895             0.00454224304            0.000546707508           
       0.393574             0.00472282063            0.000556086985           
       0.394253              0.0045077933            0.000545724428           
       0.394933             0.00448161031            0.000550355215           
       0.395612             0.00362659265            0.000480699247           
       0.396291             0.00419769538            0.000527694271           
       0.396970             0.00339931713            0.000470660552           
       0.397649             0.00420401934            0.000525024278           
       0.398328             0.00436146125            0.000532414508           
       0.399008             0.00401130893            0.000509485767           
       0.399687             0.00437643733            0.000534238323           
       0.400366             0.00343722479            0.000471644069           
       0.401045             0.00418502318            0.000519442454           
       0.401724             0.00323284635            0.000457304376           
       0.402403             0.00486940899            0.000565617387           
       0.403083             0.00440026005            0.000529926748           
       0.403762             0.00465265085            0.000547599715           
       0.404441              0.0044493219            0.000538911137           
       0.405120             0.00408611826            0.000514753382           
       0.405799             0.00379286824            0.000493783759           
       0.406478             0.00449679865            0.000537669687           
       0.407158             0.00447523181            0.000535372136           
       0.407837             0.00448996991            0.000540986142           
       0.408516             0.00351710358            0.000474637844           
       0.409195             0.00352964248            0.000480877018           
       0.409874             0.00331666662            0.000472628995           
       0.410553             0.00318991089            0.000468494667           
       0.411233             0.00314224129            0.000462571599           
       0.411912             0.00366583822             0.00050670622           
       0.412591             0.00301690724            0.000462716921           
       0.413270             0.00290648863            0.000452012617           
       0.413949             0.00306136178            0.000468965871           
       0.414628             0.00346662812            0.000498146502           
       0.415307             0.00310836801            0.000476951135           
       0.415987              0.0022637822             0.00040367452           
       0.416666             0.00237160933            0.000410690578           
       0.417345             0.00349740975            0.000507059503           
       0.418024             0.00217086075            0.000399496257           
       0.418703              0.0029828195            0.000467424677           
       0.419382             0.00301314243            0.000467492384           
       0.420062             0.00324291016            0.000486348146           
       0.420741             0.00261106272            0.000438724546           
       0.421420             0.00359630767             0.00051683944           
       0.422099             0.00388974644            0.000537525611           
       0.422778             0.00290632031            0.000467149349           
       0.423457             0.00271656877            0.000454406429           
       0.424137             0.00263024232            0.000439841432           
       0.424816             0.00297272496            0.000477373729           
       0.425495             0.00250691265            0.000437965306           
       0.426174             0.00265859705            0.000451178512           
       0.426853             0.00247421928            0.000432608632           
       0.427532             0.00191077137            0.000383386529           
       0.428212             0.00303006403            0.000485977132           
       0.428891             0.00224111848            0.000416997463           
       0.429570              0.0023163174             0.00042422561           
       0.430249             0.00252539826            0.000440658423           
       0.430928             0.00409974651            0.000573733447           
       0.431607             0.00246984981            0.000437663043           
       0.432287             0.00282329745            0.000471359316           
       0.432966              0.0028065975            0.000474096998           
       0.433645             0.00281081904            0.000474948885           
       0.434324              0.0024574894            0.000441418408           
       0.435003             0.00317313367            0.000502446611           
       0.435682             0.00282269019            0.000477776442           
       0.436361             0.00161941353            0.000361401855           
       0.437041             0.00233482006            0.000433369393           
       0.437720             0.00203284501            0.000406324864           
       0.438399             0.00140623955            0.000339712323           
       0.439078              0.0023707754            0.000453880391           
       0.439757             0.00206702683            0.000421197266           
       0.440436              0.0022685667            0.000451197949           
       0.441116             0.00263223647            0.000493966991           
       0.441795             0.00301917848             0.00052966685           
       0.442474             0.00210544618            0.000443547144           
       0.443153              0.0033997927            0.000576779049           
       0.443832             0.00241799173            0.000487239048           
       0.444511             0.00172309646            0.000409456907           
       0.445191             0.00202779313            0.000454990407           
       0.445870             0.00243116331            0.000498206447           
       0.446549             0.00208853291            0.000466636422           
       0.447228             0.00173831571            0.000423312714           
       0.447907             0.00230781414            0.000493602819           
       0.448586             0.00266846645            0.000543543047           
       0.449266             0.00282241767            0.000553860618           
       0.449945             0.00193700155            0.000456961691           
       0.450624             0.00295479959            0.000573352084           
       0.451303             0.00241941936            0.000525540794           
       0.451982             0.00215457486               0.000492877           
       0.452661             0.00307684322            0.000599966415           
       0.453341             0.00251295355            0.000544108841           
       0.454020             0.00275614797            0.000570697715           
       0.454699             0.00256394761            0.000555466606           
       0.455378             0.00147996725            0.000422242977           
       0.456057             0.00229736547            0.000535435629           
       0.456736             0.00142054643            0.000419723754           
       0.457416              0.0011688764            0.000380743464           
       0.458095             0.00185515095            0.000486606457           
       0.458774             0.00320625864            0.000648170773           
       0.459453              0.0020613263            0.000522334119           
       0.460132            0.000952257625             0.00034735251           
       0.460811             0.00227952802            0.000557473301           
       0.461490             0.00327976314            0.000661886091           
       0.462170             0.00174536672            0.000490377303           
       0.462849             0.00149960438            0.000457491536           
       0.463528             0.00120881326            0.000409794426           
       0.464207             0.00140379056            0.000449871667           
       0.464886            0.000811382285            0.000339355828           
       0.465565             0.00241098803              0.0005914048           
       0.466245            0.000555447756            0.000284743948           
       0.466924             0.00183175171            0.000529304695           
       0.467603             0.00215624979            0.000562096823           
       0.468282             0.00106593795            0.000404581318           
       0.468961             0.00106850961             0.00040773008           
       0.469640            0.000466967002            0.000270617408           
       0.470320              0.0018854958            0.000544158586           
       0.470999             0.00111884105            0.000423130118           
       0.471678            0.000984205152            0.000400670244           
       0.472357            0.000502424985            0.000287071861           
       0.473036            0.000672357374            0.000334185647           
       0.473715             0.00085279217            0.000379309316           
       0.474395              0.0012372875            0.000463200937           
       0.475074             0.00141590849            0.000495523618           
       0.475753             0.00136951518            0.000483132792           
       0.476432             0.00150720346            0.000525289759           
       0.477111             0.00109345868            0.000442008182           
       0.477790            0.000580472387             0.00032376817           
       0.478470            5.27696352e-05            9.89101868e-05           
       0.479149            0.000819661451            0.000393853926           
       0.479828            0.000792941613            0.000386469263           
       0.480507            0.000623550725            0.000345475777           
       0.481186            0.000682576121            0.000369605609           
       0.481865             7.4224653e-05            0.000120372016           
       0.482545            0.000684010768             0.00036970433           
       0.483224            0.000670467759            0.000368527133           
       0.483903            0.000502933143            0.000324207616           
       0.484582            0.000113822862            0.000156743111           
       0.485261            0.000488250646             0.00031640999           
       0.485940             0.00034177315            0.000275405928           
       0.486619            0.000974820255            0.000460005209           
       0.487299           -9.99106657e-05                         0           
       0.487978            0.000326230865            0.000267598926           
       0.488657            0.000157232428            0.000193443576           
       0.489336           -9.58348367e-05                         0           
       0.490015            0.000118589513            0.000166350499           
       0.490694            0.000656142851            0.000402113538           
       0.491374            0.000145904175             0.00018730807           
       0.492053            0.000191015394            0.000220196587           
       0.492732            0.000180931523            0.000212951354           
       0.493411           -0.000317364201                         0           
       0.494090           -0.000317383767                         0           
       0.494769           -5.06118891e-05                         0           
       0.495449           -0.000317422414                         0           
       0.496128           -4.84270092e-05                         0           
       0.496807           -0.000317461236                         0           
       0.497486           -0.000317480718                         0           
       0.498165           -0.000317500481                         0           
       0.498844           -0.000317519946                         0           
       0.499524           -0.000317539502                         0           
       0.500203           -0.000317559369                         0           
       0.500882           -0.000317578844                         0           
       0.501561           -0.000317598381                         0           
       0.502240           -2.82027108e-05                         0           
       0.502919           -0.000317637888                         0           
       0.503599           -0.000317657678                         0           
       0.504278           -4.70483129e-06                         0           
       0.504957           -0.000317697576                         0           
       0.505636            -0.00031771728                         0           
       0.506315           -0.000317737308                         0           
       0.506994            0.000321721819             0.00032926627           
       0.507673           -0.000317776609                         0           
       0.508353           -0.000317796653                         0           
       0.509032           -0.000317816612                         0           
       0.509711           -0.000317836579                         0           
       0.510390           -0.000317856859                         0           
       0.511069            3.88136316e-05            0.000118307305           
       0.511748           -0.000317897205                         0           
       0.512428            -0.00031791748                         0           
       0.513107            5.93655266e-05            0.000149771616           
       0.513786            0.000479757672            0.000437758048           
       0.514465           -0.000317977838                         0           
       0.515144           -0.000317998192                         0           
       0.515823            -0.00031801836                         0           
       0.516503           -0.000318038718                         0           
       0.517182           -0.000318059073                         0           
       0.517861            0.000105141183            0.000211080355           
       0.518540             -0.0003180998                         0           
       0.519219           -0.000318120103                         0           
       0.519898           -0.000318140611                         0           
       0.520578            0.000574379803            0.000504305688           
       0.521257           -0.000318181606                         0           
       0.521936           -0.000318202019                         0           
       0.522615           -0.000318222677                         0           
       0.523294           -0.000318243412                         0           
       0.523973            -0.00031826386                         0           
       0.524653           -0.000318284161                         0           
       0.525332           -0.000318304757                         0           
       0.526011           -0.000318325724                         0           
       0.526690            -0.00031834665                         0           
       0.527369           -0.000318367404                         0           
       0.528048            0.000188436147            0.000307845833           
       0.528728           -0.000318409182                         0           
       0.529407           -0.000318429963                         0           
       0.530086           -0.000318450636                         0           
       0.530765             0.00024356628            0.000372749788           
       0.531444           -0.000318492264                         0           
       0.532123            -0.00031851356                         0           
       0.532802           -0.000318534683                         0           
       0.533482           -0.000318555733                         0           
       0.534161           -0.000318576817                         0           
       0.534840            -0.00031859772                         0           
       0.535519            0.000265688741            0.000393180778           
       0.536198            -0.00031864008                         0           
       0.536877            -0.00031866086                         0           
       0.537557           -0.000318681997                         0           
       0.538236           -0.000318703324                         0           
       0.538915           -0.000318724644                         0           
       0.539594           -0.000318745935                         0           
       0.540273           -0.000318767559                         0           
       0.540952           -0.000318788942                         0           
       0.541632           -0.000318809934                         0           
       0.542311           -0.000318831119                         0           
       0.542990           -0.000318852541                         0           
       0.543669           -0.000318874142                         0           
       0.544348           -0.000318895717                         0           
       0.545027           -0.000318917246                         0           
       0.545707            -0.00031893884                         0           
       0.546386           -0.000318960494                         0           
       0.547065           -0.000318981889                         0           
       0.547744           -0.000319003381                         0           
       0.548423            0.000386136968            0.000523932421           
       0.549102            -0.00031904686                         0           
       0.549782           -0.000319068501                         0           
       0.550461           -0.000319090399                         0           
       0.551140           -0.000319112429                         0           
       0.551819           -0.000319134198                         0           
       0.552498           -0.000319156154                         0           
       0.553177           -0.000319177733                         0           
       0.553856           -0.000319199389                         0           
       0.554536           -0.000319221116                         0           
       0.555215           -0.000319243175                         0           
       0.555894           -0.000319265181                         0           
       0.556573            0.000638328215            0.000781276281           
       0.557252           -0.000319309438                         0           
       0.557931           -0.000319331456                         0           
       0.558611            -0.00031935399                         0           
       0.559290           -0.000319375951                         0           
       0.559969           -0.000319397371                         0           
       0.560648           -0.000319419359                         0           
       0.561327           -0.000319441837                         0           
       0.562006           -0.000319464211                         0           
       0.562686           -0.000319486598                         0           
       0.563365           -0.000319509066                         0           
       0.564044           -0.000319531422                         0           
       0.564723           -0.000319553729                         0           
       0.565402           -0.000319575619                         0           
       0.566081           -0.000319597655                         0           
       0.566761            0.000798719243            0.000949528176           
       0.567440           -0.000319642655                         0           
       0.568119           -0.000319665201                         0           
       0.568798           -0.000319688064                         0           
       0.569477           -0.000319710781                         0           
       0.570156           -0.000319733608                         0           
       0.570836           -0.000319756349                         0           
       0.571515           -0.000319778609                         0           
       0.572194           -0.000319801514                         0           
       0.572873           -0.000319823895                         0           
       0.573552           -0.000319846145                         0           
       0.574231           -0.000319868846                         0           
       0.574911           -0.000319892119                         0           
       0.575590             0.00137401589             0.00152240695           
       0.576269             -0.0003199377                         0           
       0.576948           -0.000319960892                         0           
       0.577627           -0.000319983377                         0           
       0.578306            -0.00032000618                         0           
       0.578985           -0.000320029178                         0           
       0.579665           -0.000320052043                         0           
       0.580344           -0.000320075253                         0           
       0.581023           -0.000320098439                         0           
       0.581702           -0.000320121411                         0           
       0.582381           -0.000320144173                         0           
       0.583060           -0.000320167615                         0           
       0.583740           -0.000320190689                         0           
       0.584419           -0.000320213839                         0           
       0.585098           -0.000320236962                         0           
       0.585777           -0.000320260264                         0           
       0.586456           -0.000320283946                         0           
       0.587135           -0.000320306998                         0           
       0.587815           -0.000320329802                         0           
       0.588494           -0.000320353316                         0           
       0.589173            -0.00032037737                         0           
       0.589852           -0.000320400145                         0           
       0.590531            -0.00032042378                         0           
       0.591210           -0.000320446868                         0           
       0.591890           -0.000320470403                         0           
       0.592569           -0.000320493151                         0           
       0.593248           -0.000320518021                         0           
       0.593927           -0.000320541667                         0           
       0.594606           -0.000320565798                         0           
       0.595285              0.0187579463              0.0193703636           
       0.595965            -0.00032060967                         0           
       0.596644           -0.000320631462                         0           
