################################################################################
# EDF_DataBlockID                     0.Image.Psd
# EDF_BinarySize                      4366944
# EDF_HeaderSize                      2560
# ByteOrder                           LowByteFirst
# DataType                            FloatValue
# Dim_1                               1028
# Dim_2                               1062
# Image                               0
# HeaderID                            EH:000000:000000:000000
# Size                                4366944
# Center_1                            607.5200
# Center_2                            651.5500
# Comment                             Xenocs_Cell_Window - 20251028_20perc_iodine_1.23mg
# DDummy                              0.6
# Date                                2025-10-30T07:17:01
# Delta                               0
# Dummy                               -1.5
# ExposureTime                        360
# Gamma                               0
# Intensity1                          8.51169e-10
# PSize_1                             7.5e-05
# PSize_2                             7.5e-05
# Pressure                            0.0324593
# SampleDistance                      0.450002
# SampleEnvKind                       large
# SampleEnvPN                         ElectroChemical cell
# SampleEnvSN                         1141
# Thickness                           0
# Wavelength                          1.541891e-10
# Wavelength                          1.54189e-10
# aux                                 0
# aux_dial                            0.002375
# beamx                               588.434
# beamx_dial                          588.434
# beamz                               657.808
# beamz_dial                          657.808
# det0x                               0
# det0x_dial                          6.36945
# det0xvd                             0
# det0xvd_dial                        0
# det0y                               450.002
# det0y_dial                          481.635
# det0z                               0
# det0z_dial                          1.23302
# det0zvd                             0
# det0zvd_dial                        0
# mag                                 1.818
# mag_dial                            1.818
# om                                  0.2499
# om_dial                             -0.610199
# phi                                 -0.0120535
# phi_dial                            0
# ry                                  0.599993
# ry_dial                             0.599993
# s1bot                               0.8
# s1bot_dial                          -1.66094
# s1hl                                0.8
# s1hl_dial                           -0.608437
# s1hr                                0.8
# s1hr_dial                           0.970938
# s1top                               0.8
# s1top_dial                          -0.461562
# s2bot                               0.45
# s2bot_dial                          1.36109
# s2hl                                0.45
# s2hl_dial                           -0.83375
# s2hr                                0.45
# s2hr_dial                           -0.118594
# s2top                               0.45
# s2top_dial                          1.44734
# w2theta                             32
# w2theta_dial                        32
# waxsch                              19.2605
# waxsch_dial                         -32.7355
# waxsh                               137.085
# waxsh_dial                          -43.5338
# waxsth                              26.0607
# waxsth_dial                         -19.4086
# waxsz                               67.0407
# waxsz_dial                          -23.7954
# wind                                65.9854
# wind_dial                           66.0041
# wpsi                                124
# wpsi_dial                           124
# wstod                               115
# wstod_dial                          115
# x                                   0
# x_dial                              1.00969
# z                                   0
# z_dial                              13.3172
# CountCutoff                         15302352
# DetectorModel                       Dectris EIGER2 Si 1M, S/N E-02-0362
# ThresholdSetting                    4023.88989258
# Saturation                          0
# FlatField                           Corrected
# BackgroundReductionExtra            0.02
# BackgroundCorrectionConstant        0.0026712
# Detector                            0
# Monitor                             0
# Pil_Roi0                            0
# SumForIntensity1                    3.06421e+08
# TransmittedFlux                     851169
# det                                 0
# mon                                 0
# pilai0                              3.06421e+08
# pilai1                              768993
# pilct0                              5.31113e+08
# pilct1                              768993
# pilroi0                             0
# pilroi1                             0
# sec                                 1
# title                               20251028_20perc_iodine_1.23mg_0_00372.edf
# usaxs0                              0
# Operation                           Azimuthal average I(q)
# Error_model                         ErrorModel.poisson
# Geometrical_correction              True
# Transmission_correction             True
# Thickness_correction                False
# Binning mode                        Uniform
# Binning factor                      1.0
# Psi                                 0.0
# Omega                               0.2499
# MaskInvalidPixels                   True
# DetectorEdge                        3
# MaskFiles                           ['20251028_20perc_iodine_1.23mg_0_00012_mask.edf']
################################################################################
    q(A⁻¹)                Intensity(a.u.)            Sigma_I(a.u.)            
       0.000340                372222.672                120.735454           
       0.001019                359215.028                72.6317163           
       0.001698                349692.738                50.6730917           
       0.002377                330902.171                44.0888679           
       0.003056                308198.494                35.9608914           
       0.003735                253431.655                28.7589799           
       0.004415                205035.889                25.8677166           
       0.005094                153522.038                19.3847083           
       0.005773                101573.586                14.5979225           
       0.006452                59216.2401                10.6794857           
       0.007131                32418.9873                7.65487433           
       0.007810                16222.0891                5.37373982           
       0.008490                8094.20081                3.36467231           
       0.009169                3882.48221                2.30303842           
       0.009848                1185.22078                1.23027343           
       0.010527                457.400558               0.764276706           
       0.011206                115.428458               0.366431023           
       0.011885                53.7276186               0.232275097           
       0.012564                25.1013366               0.162998665           
       0.013244                 17.122441               0.125857308           
       0.013923                12.4917573               0.109233796           
       0.014602                9.42097647              0.0879788223           
       0.015281                7.62200464              0.0805552154           
       0.015960                6.18578712              0.0720497489           
       0.016639                5.15384629              0.0621033944           
       0.017319                4.18413157              0.0550864837           
       0.017998                3.37549544              0.0473350141           
       0.018677                2.97118373              0.0459963798           
       0.019356                2.48600507              0.0415727743           
       0.020035                 2.1423302              0.0362071603           
       0.020714                1.91247489              0.0345717502           
       0.021394                1.57982426              0.0297301936           
       0.022073                1.38688298              0.0289816173           
       0.022752                 1.2779439              0.0266128955           
       0.023431                1.12125357              0.0241972186           
       0.024110               0.976514237              0.0235428766           
       0.024789               0.926937594              0.0213022601           
       0.025469               0.855586823               0.021090387           
       0.026148               0.720217601              0.0181810645           
       0.026827               0.667175274               0.017778793           
       0.027506               0.642612797              0.0177000712           
       0.028185               0.559627273              0.0157520136           
       0.028864               0.524107593              0.0151583935           
       0.029544               0.465977731              0.0138602574           
       0.030223                0.43756568              0.0136236566           
       0.030902                0.39958785              0.0131381565           
       0.031581               0.347361698              0.0116445117           
       0.032260               0.364292959              0.0121281152           
       0.032939               0.314786275              0.0108705374           
       0.033619               0.290874763               0.010603089           
       0.034298               0.260318176              0.0097615057           
       0.034977               0.261988816             0.00960032996           
       0.035656               0.222601116              0.0090834953           
       0.036335               0.209017484             0.00853682259           
       0.037014               0.200737557             0.00839098183           
       0.037693               0.189757658             0.00784814909           
       0.038373               0.175580727             0.00762337253           
       0.039052               0.158663727             0.00727765423           
       0.039731               0.162333395             0.00718978181           
       0.040410               0.144916823             0.00674760468           
       0.041089               0.154363765             0.00685497939           
       0.041768               0.156649216             0.00694161715           
       0.042448               0.143384805             0.00658969092           
       0.043127                0.13428769             0.00622660589           
       0.043806               0.117892113             0.00587762448           
       0.044485               0.121183863             0.00583669608           
       0.045164               0.114567287             0.00578697079           
       0.045843               0.108918003             0.00541183239           
       0.046523               0.109106716             0.00543522268           
       0.047202               0.103547904             0.00533195507           
       0.047881              0.0992114141             0.00511846548           
       0.048560              0.0927354202             0.00499369874           
       0.049239              0.0912238004             0.00475561252           
       0.049918              0.0868479953             0.00473086287           
       0.050598              0.0894506697              0.0047291936           
       0.051277              0.0863538717              0.0046318652           
       0.051956              0.0802082048             0.00443596989           
       0.052635              0.0812093736             0.00436884297           
       0.053314              0.0796574478             0.00445340248           
       0.053993              0.0749090878             0.00420018232           
       0.054673              0.0706458378             0.00398805065           
       0.055352              0.0756641205             0.00418788864           
       0.056031              0.0712445376             0.00397835514           
       0.056710              0.0724521483             0.00411024256           
       0.057389              0.0745245534             0.00401983889           
       0.058068              0.0623410206             0.00371449559           
       0.058748              0.0683437176             0.00393773172           
       0.059427              0.0683666736             0.00387171246           
       0.060106              0.0647399866             0.00380327987           
       0.060785              0.0619425418              0.0036087358           
       0.061464              0.0565969698               0.003532654           
       0.062143              0.0610982513             0.00363316138           
       0.062822              0.0595994841             0.00354621501           
       0.063502              0.0595197977             0.00353751202           
       0.064181              0.0528676422             0.00329876771           
       0.064860              0.0574475338             0.00349106023           
       0.065539              0.0523959116             0.00330143472           
       0.066218              0.0485785661             0.00311083041           
       0.066897              0.0526383477             0.00326320866           
       0.067577              0.0492436183             0.00318655297           
       0.068256              0.0472090777             0.00319667323           
       0.068935              0.0444451059             0.00305153086           
       0.069614              0.0534826283             0.00338075816           
       0.070293              0.0433477918             0.00307169114           
       0.070972              0.0455523618             0.00312577682           
       0.071652              0.0375227221             0.00284214052           
       0.072331               0.044264207             0.00303189926           
       0.073010               0.041944434             0.00301881932           
       0.073689              0.0440685428              0.0030773097           
       0.074368              0.0433068056             0.00304504964           
       0.075047              0.0408933434             0.00292717949           
       0.075727              0.0362485582             0.00273890965           
       0.076406              0.0426994932              0.0030319607           
       0.077085              0.0394657524             0.00286041618           
       0.077764              0.0366721253             0.00274765765           
       0.078443              0.0367502466             0.00276761262           
       0.079122              0.0349253524             0.00267210355           
       0.079802              0.0358992681             0.00273783648           
       0.080481              0.0374540745             0.00270216543           
       0.081160              0.0406712389             0.00287360878           
       0.081839              0.0361816752              0.0026669762           
       0.082518              0.0368643046             0.00269428438           
       0.083197              0.0292216176              0.0023615196           
       0.083876              0.0327092173             0.00245695612           
       0.084556              0.0382106326             0.00272940354           
       0.085235              0.0338046138             0.00251762338           
       0.085914              0.0363657074             0.00263661838           
       0.086593              0.0347172715             0.00255958683           
       0.087272              0.0332118768              0.0024680907           
       0.087951              0.0309590606             0.00243674116           
       0.088631              0.0320110752             0.00239340151           
       0.089310              0.0300409355             0.00236775608           
       0.089989              0.0282451846             0.00226905623           
       0.090668              0.0314425874             0.00242047028           
       0.091347              0.0295791454             0.00236079454           
       0.092026              0.0302738646             0.00228288335           
       0.092706               0.025164364             0.00215688538           
       0.093385              0.0294150852             0.00229613937           
       0.094064              0.0334155656             0.00247578528           
       0.094743              0.0325723448             0.00240709855           
       0.095422              0.0267931477             0.00215879383           
       0.096101              0.0315438636             0.00239061865           
       0.096781              0.0255185151             0.00211942096           
       0.097460              0.0280896047             0.00216297151           
       0.098139              0.0287776343             0.00217245563           
       0.098818              0.0304642924             0.00220768671           
       0.099497              0.0280629429             0.00212324084           
       0.100176               0.026431202             0.00200650693           
       0.100856              0.0298842436             0.00213218535           
       0.101535              0.0279501222             0.00205805639           
       0.102214              0.0294625773             0.00211301934           
       0.102893              0.0277443392             0.00202711613           
       0.103572              0.0289881346             0.00204144616           
       0.104251              0.0246695091             0.00189020748           
       0.104931              0.0288611101             0.00202588035           
       0.105610               0.026960967             0.00196640799           
       0.106289              0.0230133297             0.00178651824           
       0.106968              0.0266892281             0.00192962409           
       0.107647              0.0254119211              0.0018840136           
       0.108326              0.0248974566              0.0018398975           
       0.109005              0.0258684566             0.00186363262           
       0.109685              0.0249559982             0.00180993725           
       0.110364              0.0254078158             0.00184699025           
       0.111043              0.0226516824              0.0017370239           
       0.111722              0.0245783014             0.00178727143           
       0.112401              0.0232687493             0.00174384198           
       0.113080              0.0229555141             0.00171221615           
       0.113760              0.0237657329             0.00177126957           
       0.114439               0.023109878             0.00172173017           
       0.115118              0.0222851436             0.00167798041           
       0.115797              0.0240842481             0.00176055881           
       0.116476              0.0211050098             0.00162340736           
       0.117155              0.0246502354             0.00176861771           
       0.117835               0.021704826             0.00162660068           
       0.118514              0.0207782881             0.00161168322           
       0.119193                0.02463067             0.00175475321           
       0.119872              0.0235120904             0.00169300356           
       0.120551              0.0226492476             0.00165058003           
       0.121230              0.0258036121             0.00174404372           
       0.121910              0.0228482131             0.00165699203           
       0.122589              0.0209624364             0.00158877527           
       0.123268              0.0203737079             0.00153596148           
       0.123947              0.0206454736             0.00155617132           
       0.124626              0.0214046831             0.00156515231           
       0.125305              0.0221740165             0.00160084907           
       0.125985               0.026470481             0.00173550584           
       0.126664              0.0225356352             0.00158607389           
       0.127343              0.0190728136              0.0014760497           
       0.128022              0.0213377639             0.00154925952           
       0.128701              0.0195569685             0.00147547634           
       0.129380              0.0202661987              0.0014831803           
       0.130059              0.0218894029             0.00154501312           
       0.130739              0.0189022819             0.00144582497           
       0.131418              0.0203105268             0.00149451947           
       0.132097               0.017886365             0.00138451052           
       0.132776              0.0201503454             0.00146288883           
       0.133455              0.0194095911             0.00144690271           
       0.134134              0.0197085737             0.00145336096           
       0.134814              0.0198985399             0.00144530144           
       0.135493              0.0249422983             0.00162468842           
       0.136172              0.0189450007              0.0014052649           
       0.136851              0.0200070813             0.00145251709           
       0.137530              0.0216591111             0.00147539067           
       0.138209              0.0191166457             0.00140236708           
       0.138889              0.0202045723             0.00144807436           
       0.139568              0.0191524068             0.00140925626           
       0.140247              0.0233348918             0.00155350151           
       0.140926              0.0213267274             0.00144268715           
       0.141605              0.0184322991             0.00137529401           
       0.142284              0.0193237125             0.00138482288           
       0.142964              0.0198612477             0.00140932166           
       0.143643              0.0201069011             0.00141621914           
       0.144322              0.0204238279             0.00139746934           
       0.145001              0.0180800402             0.00134183016           
       0.145680              0.0173185667             0.00128219947           
       0.146359              0.0193502027             0.00136027939           
       0.147039              0.0163749034              0.0012616404           
       0.147718              0.0176226544             0.00128722864           
       0.148397              0.0196413111             0.00138007289           
       0.149076              0.0178617152             0.00127524148           
       0.149755              0.0170313407             0.00126447369           
       0.150434              0.0177264532              0.0012905461           
       0.151114              0.0173072758             0.00126814281           
       0.151793              0.0171332471             0.00126176265           
       0.152472              0.0194722995             0.00132137613           
       0.153151              0.0196947653             0.00134175053           
       0.153830                0.01957525             0.00132792718           
       0.154509              0.0160956299             0.00119910934           
       0.155188              0.0209079659             0.00136615552           
       0.155868              0.0187734352             0.00128532985           
       0.156547              0.0169709689             0.00122991988           
       0.157226              0.0190014553             0.00126963185           
       0.157905              0.0169913399             0.00121068412           
       0.158584              0.0192345011              0.0012857833           
       0.159263              0.0181030264              0.0012519816           
       0.159943              0.0179854263             0.00124883915           
       0.160622               0.018289147             0.00123503616           
       0.161301              0.0209832466             0.00134057028           
       0.161980              0.0191037724             0.00125737853           
       0.162659              0.0167631162             0.00119088826           
       0.163338              0.0160512253             0.00115582869           
       0.164018              0.0184431961             0.00123245775           
       0.164697               0.018844846             0.00126180207           
       0.165376              0.0181842176              0.0012124065           
       0.166055              0.0188328059             0.00124197611           
       0.166734              0.0171420317             0.00117960625           
       0.167413              0.0158373649             0.00113462237           
       0.168093              0.0182071433             0.00122806006           
       0.168772              0.0179258246             0.00118289978           
       0.169451              0.0169165946             0.00117026044           
       0.170130              0.0152140743             0.00109524065           
       0.170809              0.0181351285             0.00121003877           
       0.171488              0.0179976345             0.00119445407           
       0.172168              0.0157544315             0.00110680417           
       0.172847              0.0176864421             0.00118811202           
       0.173526              0.0188016898             0.00120162985           
       0.174205              0.0163204097             0.00112469135           
       0.174884              0.0172498209             0.00115024671           
       0.175563              0.0179798234             0.00117934736           
       0.176243              0.0177496668             0.00118350151           
       0.176922              0.0168064114             0.00112161404           
       0.177601              0.0172711605             0.00114951188           
       0.178280              0.0164478288             0.00110925615           
       0.178959              0.0163971975             0.00111645588           
       0.179638              0.0150074877             0.00106502135           
       0.180317              0.0162119893              0.0010988719           
       0.180997              0.0160837659              0.0011004585           
       0.181676              0.0160447403             0.00108738645           
       0.182355              0.0164512647             0.00110768877           
       0.183034              0.0180172555              0.0011406064           
       0.183713              0.0162603043             0.00109676331           
       0.184392              0.0151341512             0.00105778211           
       0.185072              0.0176583592             0.00112957338           
       0.185751              0.0172696214              0.0011201784           
       0.186430              0.0152879209             0.00104656805           
       0.187109              0.0170000198             0.00111590668           
       0.187788              0.0182458252             0.00115322194           
       0.188467              0.0170349891             0.00110111309           
       0.189147              0.0178360909             0.00113811666           
       0.189826              0.0144550398             0.00100646326           
       0.190505              0.0147317681             0.00103277709           
       0.191184              0.0159086542             0.00105776978           
       0.191863              0.0175514026             0.00111338229           
       0.192542              0.0167280434             0.00109720374           
       0.193222              0.0164576911             0.00106391231           
       0.193901              0.0188816294             0.00115484461           
       0.194580              0.0152960111             0.00102124228           
       0.195259               0.016773705             0.00108171677           
       0.195938              0.0157359141             0.00105022073           
       0.196617              0.0183372945             0.00111788562           
       0.197297              0.0143146884             0.00099172294           
       0.197976              0.0163393321             0.00104326313           
       0.198655              0.0147774552             0.00100298522           
       0.199334              0.0148545153            0.000996728897           
       0.200013              0.0148294315            0.000995334801           
       0.200692               0.014611876            0.000993949626           
       0.201371              0.0162017515             0.00103484074           
       0.202051              0.0168925027             0.00105995636           
       0.202730              0.0151205611            0.000992808417           
       0.203409              0.0150725815            0.000997885972           
       0.204088              0.0162971556             0.00103648345           
       0.204767              0.0155979168             0.00100867476           
       0.205446              0.0142916324            0.000967401141           
       0.206126              0.0156560329            0.000998770494           
       0.206805              0.0150722237            0.000997936947           
       0.207484              0.0167535657             0.00103321208           
       0.208163              0.0163275872             0.00102612143           
       0.208842              0.0166817985             0.00103438147           
       0.209521              0.0157629515            0.000997134447           
       0.210201              0.0142362743            0.000958192281           
       0.210880              0.0178302738             0.00105129984           
       0.211559              0.0171169915             0.00104528658           
       0.212238              0.0156039418            0.000992940589           
       0.212917              0.0153439331            0.000980974812           
       0.213596              0.0166884828             0.00102910172           
       0.214276              0.0151417688            0.000959830878           
       0.214955              0.0155337129            0.000992618243           
       0.215634              0.0160444019             0.00100157301           
       0.216313              0.0154282883            0.000980091917           
       0.216992              0.0159101107            0.000995029048           
       0.217671              0.0149032248            0.000956505692           
       0.218351              0.0126913225            0.000891307786           
       0.219030              0.0157352936            0.000976791305           
       0.219709              0.0161878961            0.000996919688           
       0.220388              0.0145389564             0.00094356821           
       0.221067              0.0146957903             0.00094939586           
       0.221746              0.0143699862            0.000937851215           
       0.222426              0.0152257332            0.000950945013           
       0.223105              0.0151793714            0.000962431566           
       0.223784              0.0152419582            0.000954847461           
       0.224463              0.0132158058            0.000896200767           
       0.225142              0.0147524519            0.000931888654           
       0.225821              0.0150515592            0.000945079859           
       0.226500              0.0148225432            0.000943825663           
       0.227180              0.0137789336            0.000895973757           
       0.227859              0.0161817136            0.000975312291           
       0.228538              0.0149445267            0.000927875109           
       0.229217              0.0148382844            0.000931889493           
       0.229896              0.0168601084            0.000992872816           
       0.230575              0.0145692934            0.000908246981           
       0.231255              0.0156409951             0.00095514842           
       0.231934              0.0156683708            0.000949452683           
       0.232613              0.0162094722            0.000969270924           
       0.233292              0.0163796583            0.000964931928           
       0.233971              0.0139969621            0.000891576124           
       0.234650              0.0140566423            0.000903984264           
       0.235330              0.0156179099            0.000944544613           
       0.236009              0.0142923647            0.000901624952           
       0.236688              0.0163370571            0.000960514197           
       0.237367              0.0145647931             0.00090823734           
       0.238046              0.0139705227            0.000895779898           
       0.238725              0.0157640308              0.0009368632           
       0.239405              0.0130266477            0.000856926572           
       0.240084              0.0156958932            0.000934643594           
       0.240763              0.0155511594            0.000939232512           
       0.241442              0.0150978686            0.000912402823           
       0.242121              0.0143331079            0.000890672384           
       0.242800              0.0150948038            0.000918359504           
       0.243480                0.01515794            0.000915969081           
       0.244159              0.0138947919            0.000877398394           
       0.244838              0.0143077989            0.000875692471           
       0.245517              0.0148291081            0.000904326709           
       0.246196              0.0144740171             0.00089386461           
       0.246875              0.0143307098            0.000877030072           
       0.247554              0.0148397127            0.000901539861           
       0.248234              0.0125803293            0.000817490084           
       0.248913              0.0135238825            0.000857100195           
       0.249592              0.0143626257            0.000874885564           
       0.250271              0.0135540872            0.000847435333           
       0.250950               0.014803766            0.000891065046           
       0.251629               0.013524789            0.000844464768           
       0.252309              0.0133794506            0.000841619836           
       0.252988               0.014132203            0.000850071899           
       0.253667              0.0150617784            0.000887837879           
       0.254346              0.0137406374            0.000847831605           
       0.255025              0.0118692324            0.000786258029           
       0.255704              0.0145343348            0.000866079346           
       0.256384               0.015152571            0.000881248119           
       0.257063              0.0127720653            0.000813681949           
       0.257742              0.0135232037            0.000831465605           
       0.258421              0.0138862371            0.000840930336           
       0.259100              0.0122477003             0.00079113699           
       0.259779              0.0132867081            0.000823312681           
       0.260459              0.0141110715            0.000850135454           
       0.261138              0.0127573029            0.000792531272           
       0.261817              0.0132522904            0.000824065513           
       0.262496               0.013978004            0.000838028222           
       0.263175              0.0131382751            0.000814211156           
       0.263854               0.014066335            0.000838563494           
       0.264534               0.013433592            0.000812486971           
       0.265213              0.0132711815            0.000820286812           
       0.265892              0.0120824512            0.000772660003           
       0.266571              0.0133944367            0.000811679143           
       0.267250              0.0127015174            0.000791737014           
       0.267929              0.0111991284             0.00074267655           
       0.268609              0.0120714308            0.000775279638           
       0.269288              0.0123343647            0.000770658908           
       0.269967               0.012417938            0.000781596734           
       0.270646              0.0128008534            0.000790125386           
       0.271325              0.0130704345            0.000799735377           
       0.272004              0.0115234785            0.000743433572           
       0.272683              0.0116020132            0.000746884308           
       0.273363              0.0109277145            0.000729478356           
       0.274042              0.0124236278            0.000773218169           
       0.274721              0.0114445792            0.000741686185           
       0.275400               0.012328694            0.000764704723           
       0.276079              0.0134692017            0.000803831852           
       0.276758              0.0123974268            0.000780919724           
       0.277438              0.0122572605            0.000767776336           
       0.278117              0.0119478913            0.000771808879           
       0.278796                0.01197837            0.000764948579           
       0.279475             0.00987375592            0.000705976543           
       0.280154              0.0120182996            0.000767676441           
       0.280833              0.0115232628              0.0007562711           
       0.281513              0.0131845906            0.000821644024           
       0.282192              0.0108351622             0.00073214137           
       0.282871              0.0104964577            0.000725642688           
       0.283550              0.0113200094            0.000757610507           
       0.284229             0.00961930399            0.000708641663           
       0.284908              0.0120307109            0.000800861334           
       0.285588              0.0107087855            0.000746734398           
       0.286267               0.011321593            0.000780096895           
       0.286946              0.0110237698            0.000764762139           
       0.287625             0.00990840888             0.00073738726           
       0.288304              0.0106237204            0.000753320675           
       0.288983              0.0108248126            0.000770046552           
       0.289663              0.0111901726            0.000787516442           
       0.290342             0.00975071695            0.000731208993           
       0.291021              0.0100981089            0.000748129445           
       0.291700              0.0104193138            0.000750007246           
       0.292379             0.00933110771            0.000726012339           
       0.293058              0.0108206488            0.000778861927           
       0.293738              0.0101380642            0.000747565056           
       0.294417              0.0094799006            0.000731294236           
       0.295096               0.010102565            0.000746629792           
       0.295775              0.0108260118            0.000784704467           
       0.296454               0.010132424            0.000749332488           
       0.297133              0.0109687981            0.000783334411           
       0.297812              0.0116518515            0.000811405433           
       0.298492              0.0094325879            0.000731466028           
       0.299171               0.010418768            0.000767298753           
       0.299850             0.00976406286            0.000737727205           
       0.300529              0.0100322173            0.000756212292           
       0.301208              0.0108530327            0.000788453957           
       0.301887               0.009564482            0.000739290492           
       0.302567              0.0104761325            0.000769846819           
       0.303246              0.0094119256            0.000734461915           
       0.303925              0.0102529477            0.000776417205           
       0.304604              0.0103541936            0.000763393629           
       0.305283             0.00801584156            0.000681645788           
       0.305962             0.00951927242            0.000738336733           
       0.306642              0.0104761686            0.000785077433           
       0.307321             0.00872709971             0.00071426146           
       0.308000             0.00960170985            0.000740317449           
       0.308679             0.00843051977            0.000708721149           
       0.309358             0.00968421332            0.000749316934           
       0.310037             0.00968297271            0.000750938351           
       0.310717             0.00762942663            0.000665928864           
       0.311396             0.00863168528            0.000713070751           
       0.312075             0.00860318643            0.000720920244           
       0.312754             0.00969943125            0.000750160701           
       0.313433             0.00829511766            0.000699766602           
       0.314112             0.00791060043            0.000683198586           
       0.314792             0.00964969302            0.000759897599           
       0.315471             0.00872044664            0.000713449854           
       0.316150             0.00877612673            0.000722347872           
       0.316829             0.00822733573            0.000704016809           
       0.317508             0.00815530166            0.000693062778           
       0.318187             0.00860565739             0.00072133363           
       0.318866             0.00837694782            0.000702096613           
       0.319546             0.00906450938            0.000741289358           
       0.320225             0.00845342384            0.000715880324           
       0.320904             0.00771609628            0.000673372496           
       0.321583             0.00777612176            0.000690881749           
       0.322262             0.00771356796            0.000677668525           
       0.322941             0.00761219323            0.000681825517           
       0.323621             0.00774350876            0.000683484593           
       0.324300             0.00739998395            0.000668675603           
       0.324979              0.0085781778            0.000721243737           
       0.325658             0.00800918477            0.000698177516           
       0.326337             0.00686619721            0.000647286187           
       0.327016             0.00823323096            0.000704299511           
       0.327696             0.00726688542            0.000669036562           
       0.328375             0.00784298841            0.000689185601           
       0.329054             0.00842676364            0.000718248848           
       0.329733              0.0069488498            0.000654612258           
       0.330412             0.00864145189            0.000724015656           
       0.331091             0.00734007377            0.000679378941           
       0.331771             0.00682355151            0.000637874754           
       0.332450             0.00803437643            0.000705598052           
       0.333129             0.00670318659            0.000642835487           
       0.333808             0.00659043559            0.000638248612           
       0.334487             0.00846623205            0.000726828863           
       0.335166             0.00765598298            0.000681058731           
       0.335846             0.00675714276            0.000651075407           
       0.336525             0.00754405232            0.000681150327           
       0.337204             0.00702918306            0.000659219618           
       0.337883             0.00767471473            0.000689737934           
       0.338562             0.00568767632            0.000597068017           
       0.339241             0.00601242908            0.000615027298           
       0.339921             0.00703169878            0.000653965296           
       0.340600             0.00813801145            0.000716892182           
       0.341279             0.00617053341            0.000617561778           
       0.341958             0.00655443345            0.000645462418           
       0.342637             0.00809583166            0.000707220788           
       0.343316             0.00649918288            0.000635490746           
       0.343995             0.00686618912            0.000663882691           
       0.344675             0.00592423525            0.000605332536           
       0.345354             0.00695894665            0.000660396744           
       0.346033             0.00659501594            0.000641220661           
       0.346712             0.00554524878            0.000591728444           
       0.347391             0.00633161548            0.000636209229           
       0.348070             0.00700634165            0.000659745627           
       0.348750             0.00505246951            0.000568346438           
       0.349429             0.00677238989            0.000649514876           
       0.350108             0.00747450186            0.000690564302           
       0.350787              0.0079955312            0.000702093739           
       0.351466             0.00486500601             0.00055775126           
       0.352145             0.00596330788            0.000618020279           
       0.352825             0.00753007753            0.000691332881           
       0.353504             0.00665625814            0.000649824451           
       0.354183             0.00642970878            0.000631311967           
       0.354862             0.00602590294             0.00062536823           
       0.355541             0.00599139756            0.000615408539           
       0.356220             0.00595641658            0.000614768413           
       0.356900             0.00556505479            0.000599873091           
       0.357579             0.00573794798            0.000601651174           
       0.358258             0.00564109819            0.000604807377           
       0.358937             0.00592515104            0.000608194288           
       0.359616             0.00500405886            0.000566730378           
       0.360295             0.00571546877            0.000606181758           
       0.360975             0.00508959498            0.000569583224           
       0.361654                0.00515272             0.00057605918           
       0.362333             0.00534954466            0.000583973742           
       0.363012             0.00536623031             0.00059240906           
       0.363691              0.0053263067            0.000578557113           
       0.364370             0.00489690882            0.000561627905           
       0.365050             0.00541600781            0.000587485492           
       0.365729             0.00585020447            0.000616402537           
       0.366408             0.00450718934            0.000542240993           
       0.367087             0.00543762277            0.000586032858           
       0.367766             0.00455602715            0.000547603866           
       0.368445             0.00488415886             0.00055691416           
       0.369124             0.00509527243            0.000573291409           
       0.369804             0.00513809691            0.000574774379           
       0.370483              0.0051958586            0.000580525077           
       0.371162              0.0051791673            0.000582952177           
       0.371841             0.00519448603            0.000573634551           
       0.372520             0.00567232349            0.000611453838           
       0.373199             0.00398058027            0.000506100136           
       0.373879             0.00409249238            0.000519106556           
       0.374558             0.00465952437            0.000545819819           
       0.375237              0.0049997344            0.000566321851           
       0.375916             0.00466960915             0.00055779082           
       0.376595             0.00480747362            0.000554903449           
       0.377274             0.00557287646            0.000607009322           
       0.377954              0.0054957025            0.000593322429           
       0.378633             0.00454145732             0.00054617357           
       0.379312             0.00446480657            0.000541408081           
       0.379991              0.0038951817            0.000503076011           
       0.380670             0.00411089996            0.000525953314           
       0.381349             0.00482353484            0.000561539752           
       0.382029             0.00337768318            0.000476634832           
       0.382708             0.00430394015            0.000526284408           
       0.383387             0.00406657913            0.000523159657           
       0.384066             0.00448929024            0.000544634626           
       0.384745             0.00400502753            0.000516443788           
       0.385424             0.00490652505             0.00057356133           
       0.386104                0.00479999            0.000561031069           
       0.386783             0.00486862668            0.000577249506           
       0.387462             0.00319640351            0.000456090028           
       0.388141             0.00410377783            0.000525041103           
       0.388820             0.00364935722            0.000491539914           
       0.389499              0.0034228783            0.000478723055           
       0.390178             0.00474775542            0.000566055223           
       0.390858             0.00379367166            0.000501898656           
       0.391537             0.00441467932            0.000546950425           
       0.392216             0.00429922077            0.000532985417           
       0.392895             0.00487389324            0.000569402132           
       0.393574             0.00528980578            0.000591729332           
       0.394253             0.00454768051            0.000551121812           
       0.394933             0.00466001373            0.000564262084           
       0.395612             0.00411420159            0.000514787587           
       0.396291              0.0037050821            0.000498467751           
       0.396970             0.00389573768            0.000506603331           
       0.397649             0.00425459071            0.000531052132           
       0.398328             0.00474800282            0.000558535248           
       0.399008             0.00425499514            0.000527593899           
       0.399687               0.004093121            0.000519473267           
       0.400366              0.0039905913            0.000510963955           
       0.401045             0.00482589458            0.000560839576           
       0.401724             0.00412015903            0.000519076114           
       0.402403             0.00465972355             0.00055632161           
       0.403083             0.00419379656            0.000520165541           
       0.403762             0.00449456154            0.000541150267           
       0.404441             0.00369993009            0.000494115222           
       0.405120             0.00328370617            0.000463967026           
       0.405799              0.0045475976            0.000543632194           
       0.406478             0.00422871238            0.000524238768           
       0.407158             0.00413223434            0.000517251426           
       0.407837             0.00302131729            0.000446194099           
       0.408516             0.00430717037            0.000528113219           
       0.409195             0.00448371222            0.000544940089           
       0.409874             0.00361134014            0.000495866625           
       0.410553             0.00377398345            0.000512361633           
       0.411233              0.0030398383            0.000457452146           
       0.411912             0.00426306361            0.000549403883           
       0.412591             0.00355022988            0.000504689036           
       0.413270             0.00251616219            0.000422860179           
       0.413949             0.00330842107            0.000490179934           
       0.414628             0.00256863205            0.000431137338           
       0.415307             0.00314742587            0.000482554818           
       0.415987              0.0026603999            0.000439995979           
       0.416666             0.00326759938            0.000484695286           
       0.417345             0.00197932643            0.000383535536           
       0.418024             0.00369655511            0.000524151163           
       0.418703             0.00329719367            0.000494119062           
       0.419382             0.00269152757            0.000444247872           
       0.420062             0.00298285446            0.000468982964           
       0.420741             0.00234619363            0.000418144546           
       0.421420             0.00334185727            0.000500936187           
       0.422099             0.00265922046            0.000446865593           
       0.422778             0.00331648928            0.000501746716           
       0.423457             0.00298166602            0.000478657472           
       0.424137             0.00279220695            0.000455652007           
       0.424816             0.00277975399            0.000464136327           
       0.425495              0.0026913428            0.000456263625           
       0.426174             0.00307809163            0.000488117243           
       0.426853             0.00257829115            0.000444020781           
       0.427532             0.00255682857            0.000445907237           
       0.428212             0.00227775913            0.000423647901           
       0.428891             0.00210758019            0.000406587748           
       0.429570             0.00194579599            0.000390937858           
       0.430249             0.00278484818            0.000465263656           
       0.430928             0.00203079018             0.00040599943           
       0.431607             0.00288187319              0.0004753388           
       0.432287             0.00229808063            0.000427580251           
       0.432966             0.00234151956            0.000435398835           
       0.433645             0.00259848271            0.000459146812           
       0.434324             0.00247756042            0.000445633642           
       0.435003             0.00241090311            0.000440348829           
       0.435682             0.00213147256            0.000417440159           
       0.436361             0.00187798159            0.000391307697           
       0.437041             0.00202782793             0.00040607692           
       0.437720             0.00237811319            0.000441874312           
       0.438399             0.00316583234            0.000512491696           
       0.439078             0.00319557633            0.000529824505           
       0.439757             0.00218725258            0.000435635422           
       0.440436             0.00247830137            0.000474165147           
       0.441116             0.00313864795            0.000542335471           
       0.441795             0.00295897392             0.00052721796           
       0.442474             0.00260920994            0.000496459078           
       0.443153             0.00216108607            0.000462360282           
       0.443832             0.00265400917            0.000513247826           
       0.444511             0.00184575901            0.000426090777           
       0.445191             0.00256021504             0.00051403166           
       0.445870             0.00329094986            0.000582806168           
       0.446549             0.00188274279            0.000445466139           
       0.447228             0.00268517257            0.000528986168           
       0.447907             0.00266696375            0.000533515452           
       0.448586               0.002366583            0.000514665635           
       0.449266             0.00285467116            0.000560052988           
       0.449945             0.00206772164            0.000474703107           
       0.450624             0.00400434082            0.000671095191           
       0.451303             0.00198554051            0.000478686811           
       0.451982             0.00229799306            0.000511791824           
       0.452661             0.00192606058            0.000477276947           
       0.453341             0.00229330763            0.000522619897           
       0.454020             0.00194750691             0.00048234258           
       0.454699             0.00258309319            0.000560576191           
       0.455378             0.00295650484            0.000600049266           
       0.456057             0.00194977748            0.000495959229           
       0.456736            0.000927665038            0.000341030055           
       0.457416             0.00193182446            0.000492145165           
       0.458095             0.00290660366            0.000612410147           
       0.458774              0.0016595641            0.000468865645           
       0.459453             0.00115062482            0.000392376619           
       0.460132             0.00146004925            0.000432452283           
       0.460811             0.00172285111            0.000487289113           
       0.461490             0.00221969342             0.00054748187           
       0.462170             0.00134107789            0.000432190528           
       0.462849             0.00177931926            0.000501052096           
       0.463528             0.00274560525             0.00062096442           
       0.464207             0.00228915794            0.000577612512           
       0.464886             0.00153813887            0.000469787605           
       0.465565             0.00259534877            0.000616944946           
       0.466245              0.0010014327            0.000384419145           
       0.466924            0.000445869753            0.000262565511           
       0.467603              0.0017419694            0.000507975873           
       0.468282            0.000756553911            0.000342705467           
       0.468961             0.00108771371            0.000413620511           
       0.469640             0.00110247441            0.000418078776           
       0.470320            0.000948580721              0.0003880709           
       0.470999             0.00159994367            0.000508748706           
       0.471678             0.00231756694            0.000618189531           
       0.472357             0.00198443039            0.000573633062           
       0.473036             0.00102833447            0.000415543156           
       0.473715             0.00170841581             0.00053979633           
       0.474395            0.000903535575            0.000397986164           
       0.475074            0.000894628159            0.000396031087           
       0.475753             0.00242990915            0.000647052231           
       0.476432            0.000969062342            0.000423496749           
       0.477111             0.00129786072            0.000484177267           
       0.477790             0.00167277156            0.000552615315           
       0.478470             0.00191275165            0.000598741689           
       0.479149             0.00100301922            0.000438060183           
       0.479828             0.00118945351             0.00047591492           
       0.480507             0.00155913967            0.000549269453           
       0.481186             0.00048513252            0.000313295698           
       0.481865            0.000470294072            0.000304647367           
       0.482545            0.000279035688            0.000237418291           
       0.483224            7.27079615e-05            0.000122020481           
       0.483903            9.84167031e-05            0.000144199489           
       0.484582             0.00011493345             0.00015836462           
       0.485261           -0.000117882975                         0           
       0.485940            0.000335955926            0.000274540674           
       0.486619           -0.000101646336                         0           
       0.487299           -9.55558957e-05                         0           
       0.487978           -0.000111196201                         0           
       0.488657            0.000394060299            0.000307911437           
       0.489336            0.000139892549            0.000180243583           
       0.490015           -0.000320736651                         0           
       0.490694            0.000410475398            0.000319782203           
       0.491374           -7.95017823e-05                         0           
       0.492053           -0.000320794956                         0           
       0.492732           -6.68400894e-05                         0           
       0.493411           -0.000320834007                         0           
       0.494090           -6.09167299e-05                         0           
       0.494769            0.000211988234            0.000238947203           
       0.495449           -6.52138075e-05                         0           
       0.496128           -0.000320912588                         0           
       0.496807           -0.000320932103                         0           
       0.497486           -0.000320951798                         0           
       0.498165           -3.26841975e-05                         0           
       0.498844           -3.47829066e-05                         0           
       0.499524            0.000250228375            0.000268217454           
       0.500203            0.000252709646            0.000270524963           
       0.500882           -0.000321050997                         0           
       0.501561           -0.000321070747                         0           
       0.502240           -0.000321090762                         0           
       0.502919           -0.000321110687                         0           
       0.503599           -0.000321130692                         0           
       0.504278           -0.000321150979                         0           
       0.504957           -0.000321171026                         0           
       0.505636            4.83781011e-06            3.97584035e-05           
       0.506315           -0.000321211193                         0           
       0.506994            1.63889836e-05            7.47212668e-05           
       0.507673           -0.000321250924                         0           
       0.508353           -0.000321271188                         0           
       0.509032           -0.000321291365                         0           
       0.509711           -0.000321311549                         0           
       0.510390           -0.000321332051                         0           
       0.511069           -0.000321352486                         0           
       0.511748           -0.000321372838                         0           
       0.512428           -0.000321393336                         0           
       0.513107           -0.000321413517                         0           
       0.513786           -0.000321433762                         0           
       0.514465            6.44522494e-05            0.000156175148           
       0.515144            0.000106042212            0.000211240271           
       0.515823            8.56354062e-05            0.000185353235           
       0.516503           -0.000321515898                         0           
       0.517182            0.000106331715            0.000212667001           
       0.517861           -0.000321557004                         0           
       0.518540            0.000135406025            0.000247088812           
       0.519219           -0.000321598173                         0           
       0.519898           -0.000321618905                         0           
       0.520578           -0.000321639762                         0           
       0.521257            0.000678316995            0.000579774042           
       0.521936            0.000612208522            0.000531482436           
       0.522615           -0.000321701869                         0           
       0.523294             0.00112429611            0.000737442923           
       0.523973           -0.000321743502                         0           
       0.524653           -0.000321764025                         0           
       0.525332           -0.000321784846                         0           
       0.526011           -0.000321806042                         0           
       0.526690           -0.000321827197                         0           
       0.527369           -0.000321848178                         0           
       0.528048           -0.000321869308                         0           
       0.528728           -0.000321890413                         0           
       0.529407           -0.000321911421                         0           
       0.530086            -0.00032193232                         0           
       0.530765           -0.000321953249                         0           
       0.531444            0.000738483803            0.000620757479           
       0.532123           -0.000321995932                         0           
       0.532802            0.000231741288            0.000355542854           
       0.533482           -0.000322038566                         0           
       0.534161            -0.00032205988                         0           
       0.534840            0.000277414877            0.000404929243           
       0.535519           -0.000322102535                         0           
       0.536198           -0.000322123836                         0           
       0.536877            0.000321831626            0.000455581351           
       0.537557           -0.000322166211                         0           
       0.538236           -0.000322187771                         0           
       0.538915           -0.000322209324                         0           
       0.539594           -0.000322230848                         0           
       0.540273           -0.000322252708                         0           
       0.540952           -0.000322274325                         0           
       0.541632           -0.000322295547                         0           
       0.542311           -0.000322316963                         0           
       0.542990             0.00039754196            0.000535964732           
       0.543669           -0.000322360456                         0           
       0.544348           -0.000322382267                         0           
       0.545027           -0.000322404032                         0           
       0.545707           -0.000322425862                         0           
       0.546386            0.000393428046            0.000531685093           
       0.547065           -0.000322469381                         0           
       0.547744           -0.000322491108                         0           
       0.548423           -0.000322513074                         0           
       0.549102           -0.000322535063                         0           
       0.549782           -0.000322556941                         0           
       0.550461           -0.000322579078                         0           
       0.551140           -0.000322601349                         0           
       0.551819           -0.000322623356                         0           
       0.552498           -0.000322645552                         0           
       0.553177           -0.000322667366                         0           
       0.553856             0.00137560601             0.00111779009           
       0.554536            0.000446525526             0.00060785577           
       0.555215           -0.000322733524                         0           
       0.555894           -0.000322755771                         0           
       0.556573           -0.000322778151                         0           
       0.557252           -0.000322800512                         0           
       0.557931           -0.000322822771                         0           
       0.558611           -0.000322845551                         0           
       0.559290           -0.000322867751                         0           
       0.559969           -0.000322889406                         0           
       0.560648           -0.000322911635                         0           
       0.561327           -0.000322934358                         0           
       0.562006           -0.000322956977                         0           
       0.562686           -0.000322979608                         0           
       0.563365           -0.000323002323                         0           
       0.564044           -0.000323024923                         0           
       0.564723           -0.000323047473                         0           
       0.565402           -0.000323069603                         0           
       0.566081            -0.00032309188                         0           
       0.566761           -0.000323114397                         0           
       0.567440           -0.000323137371                         0           
       0.568119           -0.000323160164                         0           
       0.568798           -0.000323183277                         0           
       0.569477              0.0021789607             0.00165720312           
       0.570156           -0.000323229319                         0           
       0.570836           -0.000323252308                         0           
       0.571515           -0.000323274812                         0           
       0.572194           -0.000323297968                         0           
       0.572873           -0.000323320594                         0           
       0.573552           -0.000323343086                         0           
       0.574231           -0.000323366036                         0           
       0.574911           -0.000323389563                         0           
       0.575590           -0.000323412638                         0           
       0.576269           -0.000323435642                         0           
       0.576948           -0.000323459088                         0           
       0.577627           -0.000323481819                         0           
       0.578306           -0.000323504871                         0           
       0.578985            -0.00032352812                         0           
       0.579665           -0.000323551235                         0           
       0.580344             0.00175159549              0.0019126565           
       0.581023           -0.000323598139                         0           
       0.581702           -0.000323621362                         0           
       0.582381           -0.000323644373                         0           
       0.583060           -0.000323668071                         0           
       0.583740           -0.000323691397                         0           
       0.584419             -0.0003237148                         0           
       0.585098              0.0026149815             0.00285066218           
       0.585777           -0.000323761734                         0           
       0.586456           -0.000323785674                         0           
       0.587135           -0.000323808978                         0           
       0.587815           -0.000323832031                         0           
       0.588494           -0.000323855802                         0           
       0.589173           -0.000323880119                         0           
       0.589852           -0.000323903144                         0           
       0.590531           -0.000323927037                         0           
       0.591210           -0.000323950378                         0           
       0.591890            -0.00032397417                         0           
       0.592569           -0.000323997167                         0           
       0.593248           -0.000324022309                         0           
       0.593927           -0.000324046212                         0           
       0.594606           -0.000324070608                         0           
       0.595285            -0.00032409355                         0           
       0.595965           -0.000324114959                         0           
       0.596644           -0.000324136989                         0           
