################################################################################
# EDF_DataBlockID                     0.Image.Psd
# EDF_BinarySize                      2105344
# EDF_HeaderSize                      2560
# ByteOrder                           LowByteFirst
# DataType                            FloatValue
# Dim_1                               512
# Dim_2                               1028
# Image                               0
# HeaderID                            EH:000000:000000:000000
# Size                                2105344
# Center_1                            304.9000
# Center_2                            588.7000
# Comment                             Xenocs_Cell_Window - 20251028_20perc_iodine_1.23mg
# DDummy                              0.6
# Date                                2025-10-30T01:01:01
# Delta                               21.910000
# Dummy                               -1.5
# ExposureTime                        360
# Gamma                               15.360000
# Intensity1                          8.45501e-10
# PSize_1                             7.5e-05
# PSize_2                             7.5e-05
# Pressure                            0.0326204
# SampleDistance                      0.115750
# SampleEnvKind                       large
# SampleEnvPN                         ElectroChemical cell
# SampleEnvSN                         1141
# Thickness                           0
# Wavelength                          1.541891e-10
# Wavelength                          1.54189e-10
# aux                                 0
# aux_dial                            0.002375
# beamx                               588.434
# beamx_dial                          588.434
# beamz                               657.808
# beamz_dial                          657.808
# det0x                               0
# det0x_dial                          6.36945
# det0xvd                             0
# det0xvd_dial                        0
# det0y                               450.002
# det0y_dial                          481.635
# det0z                               0
# det0z_dial                          1.23302
# det0zvd                             0
# det0zvd_dial                        0
# mag                                 1.818
# mag_dial                            1.818
# om                                  0.2499
# om_dial                             -0.610199
# phi                                 -0.0120535
# phi_dial                            0
# ry                                  0.599993
# ry_dial                             0.599993
# s1bot                               0.8
# s1bot_dial                          -1.66094
# s1hl                                0.8
# s1hl_dial                           -0.608437
# s1hr                                0.8
# s1hr_dial                           0.970938
# s1top                               0.8
# s1top_dial                          -0.461562
# s2bot                               0.45
# s2bot_dial                          1.36109
# s2hl                                0.45
# s2hl_dial                           -0.83375
# s2hr                                0.45
# s2hr_dial                           -0.118594
# s2top                               0.45
# s2top_dial                          1.44734
# w2theta                             32
# w2theta_dial                        32
# waxsch                              19.2605
# waxsch_dial                         -32.7355
# waxsh                               137.085
# waxsh_dial                          -43.5338
# waxsth                              26.0607
# waxsth_dial                         -19.4086
# waxsz                               67.0407
# waxsz_dial                          -23.7954
# wind                                65.9854
# wind_dial                           66.0041
# wpsi                                124
# wpsi_dial                           124
# wstod                               115
# wstod_dial                          115
# x                                   0
# x_dial                              1.00969
# z                                   0
# z_dial                              13.3172
# CountCutoff                         6807993
# DetectorModel                       Dectris EIGER2 Si 500K, S/N E-01-0554
# ThresholdSetting                    4023.88989258
# Saturation                          0
# FlatField                           Corrected
# BackgroundReductionExtra            0.02
# BackgroundCorrectionConstant        0.0026712
# Detector                            0
# Monitor                             0
# Pil_Roi0                            0
# SumForIntensity1                    3.0438e+08
# TransmittedFlux                     845501
# det                                 0
# mon                                 0
# pilai0                              3.0438e+08
# pilai1                              770969
# pilct0                              5.27473e+08
# pilct1                              770969
# pilroi0                             0
# pilroi1                             0
# sec                                 1
# title                               20251028_20perc_iodine_1.23mg_1_00315.edf
# usaxs0                              0
# Operation                           Azimuthal average I(q)
# Error_model                         ErrorModel.poisson
# Geometrical_correction              True
# Transmission_correction             True
# Thickness_correction                False
# Binning mode                        Uniform
# Binning factor                      1.0
# Psi                                 0.0
# Omega                               0.2499
# MaskInvalidPixels                   True
# DetectorEdge                        3
# MaskFiles                           ['WAXS_corrected.edf']
################################################################################
    q(A⁻¹)                Intensity(a.u.)            Sigma_I(a.u.)            
       0.693100              0.0209523717             0.00970450974           
       0.695741             0.00851737494             0.00504914226           
       0.698381              0.0129059247             0.00761328602           
       0.701021            -2.3975405e-05                         0           
       0.703662              0.0028860219             0.00293777845           
       0.706302             0.00690564686             0.00351826515           
       0.708942              0.0028402129             0.00291221133           
       0.711583             0.00663913244             0.00385557272           
       0.714223             0.00883586272             0.00513520319           
       0.716864             0.00637103141             0.00285304623           
       0.719504              0.0118974349             0.00420725137           
       0.722144             0.00381426207             0.00220609329           
       0.724785              0.0104789685             0.00291681767           
       0.727425              0.0104422972             0.00393901909           
       0.730065             0.00969672555             0.00268499716           
       0.732706             0.00679901787             0.00188800488           
       0.735346             0.00712619493             0.00251960802           
       0.737987              0.0062098262             0.00166203792           
       0.740627              0.0059021658             0.00241764979           
       0.743267             0.00706561352             0.00177175957           
       0.745908              0.0110397041             0.00240279815           
       0.748548             0.00671439003             0.00172725432           
       0.751189             0.00972250487             0.00280064859           
       0.753829             0.00542787055             0.00192357614           
       0.756469             0.00880130478             0.00197515652           
       0.759110             0.00492266521             0.00155667759           
       0.761750             0.00771360603             0.00172301045           
       0.764390             0.00629124589             0.00162866957           
       0.767031             0.00755551667             0.00154559568           
       0.769671               0.007365425             0.00190360729           
       0.772312             0.00681961841             0.00139447214           
       0.774952              0.0088482373             0.00214495359           
       0.777592             0.00743682602             0.00143232153           
       0.780233             0.00556136738             0.00149438078           
       0.782873             0.00695592353             0.00159841855           
       0.785513              0.0046143161             0.00139177989           
       0.788154             0.00615785823              0.0013449793           
       0.790794              0.0117600128             0.00222210047           
       0.793435             0.00813936109             0.00166075347           
       0.796075             0.00627669213             0.00140488763           
       0.798715             0.00612962496             0.00164061195           
       0.801356             0.00546802166             0.00133364409           
       0.803996             0.00745445066             0.00158754254           
       0.806637             0.00683384469             0.00120965722           
       0.809277             0.00475581428             0.00109225375           
       0.811917             0.00767903626             0.00129748429           
       0.814558             0.00636905878             0.00122810709           
       0.817198             0.00792674424             0.00130164055           
       0.819838             0.00655198165             0.00119768386           
       0.822479             0.00666090782             0.00141805041           
       0.825119             0.00721762275             0.00125636483           
       0.827760             0.00898311056             0.00141979254           
       0.830400             0.00946031008             0.00137132189           
       0.833040             0.00783457811             0.00130745933           
       0.835681             0.00650401189             0.00135427273           
       0.838321             0.00895730123             0.00133394456           
       0.840961             0.00610247586             0.00119963248           
       0.843602             0.00729577091             0.00120287211           
       0.846242             0.00532386814             0.00102738383           
       0.848883             0.00748102751             0.00124631115           
       0.851523             0.00607004366             0.00110869792           
       0.854163             0.00594777541             0.00116711534           
       0.856804             0.00626902921              0.0010773643           
       0.859444             0.00692203858              0.0011092256           
       0.862085             0.00889012228              0.0013101734           
       0.864725             0.00850825372             0.00131171407           
       0.867365             0.00816911655             0.00119185221           
       0.870006             0.00581804351            0.000958475964           
       0.872646             0.00974309742             0.00130066969           
       0.875286             0.00785745035             0.00112373091           
       0.877927             0.00609948763            0.000955376408           
       0.880567             0.00772206222             0.00111368599           
       0.883208             0.00740335912             0.00108018882           
       0.885848             0.00642396773             0.00104474471           
       0.888488              0.0077612625             0.00107708245           
       0.891129              0.0081843735             0.00113568442           
       0.893769             0.00460426675            0.000815208928           
       0.896410             0.00799684405             0.00100167577           
       0.899050             0.00880498947             0.00115589293           
       0.901690             0.00899172279             0.00127238455           
       0.904331             0.00665095962            0.000970163205           
       0.906971             0.00623169185            0.000999033422           
       0.909611             0.00649397769            0.000928381642           
       0.912252             0.00762690959             0.00103920592           
       0.914892             0.00656879027             0.00105391471           
       0.917533              0.0087186412             0.00114862067           
       0.920173             0.00781413986             0.00100890151           
       0.922813             0.00758850323              0.0010433309           
       0.925454             0.00696934828            0.000900348238           
       0.928094             0.00884248942             0.00108268943           
       0.930734             0.00766776122             0.00108544934           
       0.933375             0.00840366123             0.00112517228           
       0.936015             0.00782026533             0.00098578824           
       0.938656             0.00831729006             0.00109060601           
       0.941296             0.00775731292            0.000954537052           
       0.943936             0.00869239589            0.000990884724           
       0.946577             0.00822274256            0.000957372628           
       0.949217             0.00744007391            0.000837444149           
       0.951858             0.00803854799             0.00091121303           
       0.954498                0.00690545            0.000977555634           
       0.957138              0.0087114577             0.00104017734           
       0.959779              0.0090684507             0.00104620043           
       0.962419             0.00785074593             0.00096695302           
       0.965059             0.00858348723             0.00106338249           
       0.967700             0.00787061897             0.00104290843           
       0.970340             0.00831909987            0.000948799843           
       0.972981             0.00922262404             0.00091018108           
       0.975621             0.00855573336            0.000932610844           
       0.978261             0.00862649522            0.000889801273           
       0.980902             0.00731648165             0.00098044124           
       0.983542             0.00834629572            0.000927337533           
       0.986182             0.00874579193            0.000931989104           
       0.988823             0.00748359956            0.000837117729           
       0.991463             0.00839867756            0.000946147125           
       0.994104             0.00739512769            0.000866084344           
       0.996744             0.00749519796            0.000889356063           
       0.999384               0.007088162            0.000773483276           
       1.002025             0.00821345631             0.00092931445           
       1.004665             0.00878918588            0.000878539799           
       1.007306             0.00842445172            0.000855715248           
       1.009946             0.00687450338            0.000788351161           
       1.012586             0.00883597717            0.000870480478           
       1.015227             0.00830152835            0.000906445358           
       1.017867             0.00656272391            0.000774567566           
       1.020507             0.00713203278            0.000782139944           
       1.023148              0.0106715108             0.00103234107           
       1.025788             0.00838744998            0.000839184029           
       1.028429             0.00921633363            0.000921602289           
       1.031069             0.00899219822            0.000856652627           
       1.033709             0.00799313585            0.000858548202           
       1.036350             0.00899677767             0.00081807294           
       1.038990             0.00825786546            0.000798161461           
       1.041630              0.0077232653             0.00080509262           
       1.044271             0.00950773628             0.00084009028           
       1.046911             0.00773028744            0.000796795919           
       1.049552             0.00718242968            0.000806925571           
       1.052192             0.00938324448            0.000842180873           
       1.054832             0.00800363429            0.000784883732           
       1.057473             0.00875054127             0.00080902712           
       1.060113             0.00810761191            0.000759482583           
       1.062754              0.0091191929            0.000822370999           
       1.065394             0.00853774992            0.000841283722           
       1.068034             0.00832016881            0.000755636254           
       1.070675              0.0084520185            0.000794442373           
       1.073315             0.00845816471            0.000806122599           
       1.075955             0.00882766148            0.000777470926           
       1.078596             0.00850369938             0.00081099369           
       1.081236              0.0087326143            0.000786962518           
       1.083877             0.00919302119            0.000800198188           
       1.086517             0.00829322301            0.000814973398           
       1.089157             0.00880219483             0.00087118873           
       1.091798             0.00932823563            0.000786277204           
       1.094438              0.0082942111            0.000739025618           
       1.097078             0.00812657067            0.000701603477           
       1.099719             0.00782569449            0.000744710427           
       1.102359             0.00919845899            0.000756130675           
       1.105000             0.00783364713             0.00078025906           
       1.107640             0.00859026566            0.000781253314           
       1.110280             0.00926936305            0.000740474477           
       1.112921              0.0102485901            0.000836390165           
       1.115561             0.00914546196            0.000750919779           
       1.118202             0.00971570614            0.000774706026           
       1.120842              0.0101113758            0.000830635078           
       1.123482              0.0073567509             0.00070541904           
       1.126123             0.00813986234            0.000711716704           
       1.128763             0.00775545592            0.000699471131           
       1.131403             0.00889613524            0.000721866918           
       1.134044             0.00899214893            0.000746800499           
       1.136684             0.00974055707            0.000828690943           
       1.139325              0.0102501288            0.000783102759           
       1.141965             0.00848418132            0.000717167642           
       1.144605             0.00891887056             0.00070112054           
       1.147246             0.00892440859            0.000717758963           
       1.149886             0.00958783029            0.000741318103           
       1.152527             0.00830319777            0.000699901879           
       1.155167              0.0096585378            0.000717993027           
       1.157807             0.00907790278            0.000746318586           
       1.160448              0.0101223032            0.000769581816           
       1.163088              0.0085053801            0.000672888909           
       1.165728             0.00924881085            0.000720428713           
       1.168369              0.0107405638            0.000783529678           
       1.171009             0.00978157297            0.000725654115           
       1.173650             0.00883610079            0.000707789178           
       1.176290             0.00893561902            0.000695552921           
       1.178930              0.0084232149            0.000661870795           
       1.181571             0.00881353085            0.000690457861           
       1.184211              0.0094151484            0.000716164684           
       1.186851             0.00999299904            0.000721350691           
       1.189492             0.00893719151            0.000677590743           
       1.192132              0.0108776267            0.000739151857           
       1.194773               0.010085326            0.000714833637           
       1.197413             0.00855888912            0.000630955015           
       1.200053             0.00909854482            0.000667071779           
       1.202694              0.0104378984            0.000679434375           
       1.205334              0.0101481414             0.00072198286           
       1.207975              0.0103729874            0.000696745739           
       1.210615             0.00962447939            0.000740377866           
       1.213255                0.01016852            0.000681472135           
       1.215896              0.0105625232            0.000707133816           
       1.218536             0.00994733193            0.000659841599           
       1.221176              0.0104135578            0.000734002369           
       1.223817              0.0105129247            0.000692300016           
       1.226457              0.0109540144            0.000720911028           
       1.229098             0.00962643669            0.000675782025           
       1.231738             0.00980844548            0.000685497926           
       1.234378              0.0101371738            0.000654833299           
       1.237019             0.00880254101             0.00062881131           
       1.239659              0.0112127572            0.000703514104           
       1.242299             0.00972961698            0.000647010532           
       1.244940              0.0101966881            0.000644185066           
       1.247580             0.00988418584            0.000653633034           
       1.250221              0.0115198742            0.000701292757           
       1.252861              0.0113362908            0.000662292924           
       1.255501              0.0110377102            0.000709590027           
       1.258142              0.0094092275            0.000615636991           
       1.260782              0.0102863975            0.000657621639           
       1.263423             0.00993873204             0.00062112957           
       1.266063             0.00973044041            0.000629933469           
       1.268703              0.0100758224            0.000635696547           
       1.271344              0.0107851712            0.000679982541           
       1.273984              0.0101940076            0.000638476835           
       1.276624              0.0110242907            0.000651495613           
       1.279265              0.0104956392            0.000646239537           
       1.281905             0.00978325301            0.000626691668           
       1.284546              0.0107059822            0.000633677287           
       1.287186              0.0106105657            0.000618928005           
       1.289826              0.0101500746            0.000637987769           
       1.292467             0.00955005329            0.000605212684           
       1.295107              0.0109029909            0.000640239217           
       1.297747               0.010497147            0.000601145126           
       1.300388              0.0115295462            0.000686794157           
       1.303028              0.0101058772            0.000613841475           
       1.305669              0.0108218625            0.000650339275           
       1.308309              0.0110618583             0.00065103606           
       1.310949               0.010959964            0.000647379423           
       1.313590             0.00961369907            0.000587364002           
       1.316230              0.0104860208            0.000654618624           
       1.318871              0.0108023266            0.000650716243           
       1.321511              0.0122404123            0.000679838434           
       1.324151              0.0123206447            0.000661842214           
       1.326792              0.0107294541            0.000621445827           
       1.329432              0.0114342852            0.000637005785           
       1.332072              0.0105197386            0.000601894412           
       1.334713              0.0117113644            0.000655455245           
       1.337353              0.0111791094            0.000614144461           
       1.339994              0.0121160216            0.000670946936           
       1.342634              0.0117572179            0.000633797617           
       1.345274              0.0110355532             0.00063547181           
       1.347915              0.0114376019            0.000629078769           
       1.350555              0.0115308786            0.000642701136           
       1.353195              0.0123495567             0.00066839219           
       1.355836              0.0117773586             0.00064254607           
       1.358476              0.0118965201             0.00062715866           
       1.361117               0.010700218            0.000595606568           
       1.363757              0.0101638019            0.000598210204           
       1.366397              0.0113592374             0.00061327474           
       1.369038              0.0103322007            0.000590717567           
       1.371678               0.012132265            0.000634466466           
       1.374319              0.0111366427            0.000602641494           
       1.376959              0.0113648798            0.000602663238           
       1.379599              0.0121001641             0.00066643837           
       1.382240              0.0117227038            0.000616505214           
       1.384880              0.0111315732            0.000636341523           
       1.387520              0.0117532787            0.000621000651           
       1.390161              0.0115284615            0.000584133329           
       1.392801              0.0124830656             0.00063330695           
       1.395442              0.0109317676            0.000600744978           
       1.398082              0.0109904813            0.000564080238           
       1.400722             0.00977792843            0.000557314661           
       1.403363              0.0100273568            0.000594076687           
       1.406003              0.0101920522            0.000560523235           
       1.408644                 0.0106372            0.000599870426           
       1.411284              0.0119748468            0.000602681776           
       1.413924              0.0108521595            0.000571607773           
       1.416565             0.00933948649            0.000528192491           
       1.419205              0.0121192986            0.000627653873           
       1.421845              0.0117419669            0.000617442915           
       1.424486              0.0110691685            0.000576250267           
       1.427126              0.0119610597             0.00062226185           
       1.429767             0.00992156909            0.000533226894           
       1.432407              0.0115181862            0.000601260728           
       1.435047              0.0112868194            0.000558983426           
       1.437688              0.0118156882            0.000580481057           
       1.440328              0.0108689547            0.000568215672           
       1.442968              0.0105107857            0.000571294595           
       1.445609              0.0107044345            0.000558244106           
       1.448249              0.0112267108            0.000586175543           
       1.450890              0.0121346339             0.00060543964           
       1.453530              0.0103713447             0.00058558539           
       1.456170               0.010628528            0.000575327713           
       1.458811              0.0101134332            0.000536644198           
       1.461451              0.0101572668            0.000539216699           
       1.464092              0.0109863191            0.000564457314           
       1.466732              0.0121553598            0.000588627814           
       1.469372              0.0114555532            0.000558059183           
       1.472013              0.0108101777            0.000584678115           
       1.474653              0.0108207955            0.000575941351           
       1.477293              0.0107935259            0.000587338794           
       1.479934              0.0112944813            0.000573302225           
       1.482574             0.00938073907            0.000505417001           
       1.485215              0.0111947674            0.000562410324           
       1.487855              0.0102630499            0.000545601516           
       1.490495              0.0116803055             0.00057991191           
       1.493136              0.0109147646            0.000552901946           
       1.495776              0.0107863699            0.000547137628           
       1.498416              0.0107382305            0.000563776126           
       1.501057              0.0104923782            0.000545003183           
       1.503697               0.010246467            0.000526546549           
       1.506338              0.0100003336            0.000529689525           
       1.508978              0.0103359469             0.00053320861           
       1.511618              0.0104018474            0.000569672004           
       1.514259              0.0107352411            0.000558736117           
       1.516899             0.00955197589            0.000513166829           
       1.519540             0.00990112956            0.000530886637           
       1.522180              0.0110542259            0.000565876926           
       1.524820               0.010757387            0.000555095564           
       1.527461             0.00991568666            0.000535572592           
       1.530101              0.0105213901            0.000546170491           
       1.532741              0.0108239153            0.000550752082           
       1.535382              0.0108228508            0.000559590995           
       1.538022              0.0111166441            0.000534271542           
       1.540663              0.0105800551            0.000560601824           
       1.543303               0.010392079              0.0005158831           
       1.545943              0.0105878597            0.000551143558           
       1.548584              0.0102770959            0.000552742123           
       1.551224              0.0107477929            0.000522634783           
       1.553864              0.0104877299            0.000545538895           
       1.556505              0.0102414665             0.00052078062           
       1.559145              0.0103728968            0.000530531911           
       1.561786             0.00994642905              0.0005199115           
       1.564426              0.0096579746            0.000496381931           
       1.567066              0.0114350767            0.000565944943           
       1.569707             0.00954389606            0.000507744563           
       1.572347              0.0114940142            0.000575652834           
       1.574988             0.00970814056            0.000503562364           
       1.577628              0.0104400856             0.00054452634           
       1.580268             0.00838494713            0.000472816985           
       1.582909             0.00942895965            0.000531452391           
       1.585549              0.0100802515            0.000533547507           
       1.588189              0.0100193303            0.000520323149           
       1.590830             0.00930690488            0.000500853842           
       1.593470              0.0090438827            0.000513275322           
       1.596111             0.00845560474            0.000484544077           
       1.598751             0.00941499291             0.00049542704           
       1.601391             0.00884188955            0.000490704243           
       1.604032             0.00938517311            0.000516123716           
       1.606672             0.00889807886            0.000488276743           
       1.609312             0.00889139661            0.000509512392           
       1.611953             0.00944639119            0.000513914911           
       1.614593             0.00941684475            0.000503320832           
       1.617234             0.00939494994            0.000521023237           
       1.619874             0.00881740924            0.000502760773           
       1.622514             0.00905763475            0.000502612276           
       1.625155             0.00840435008             0.00048700767           
       1.627795             0.00906145437            0.000493297783           
       1.630436             0.00862557214            0.000478773917           
       1.633076             0.00867012514            0.000486304319           
       1.635716             0.00845880255            0.000472867553           
       1.638357             0.00823416558            0.000467776172           
       1.640997             0.00827885154            0.000483252028           
       1.643637              0.0088998896            0.000487577991           
       1.646278             0.00962255556            0.000522916791           
       1.648918             0.00899578646            0.000506979102           
       1.651559             0.00861139363            0.000499879082           
       1.654199             0.00810379131            0.000471629761           
       1.656839             0.00861654314            0.000486491416           
       1.659480             0.00868877194            0.000506871258           
       1.662120             0.00958081129            0.000501296365           
       1.664761             0.00863182744            0.000494256547           
       1.667401             0.00845341596             0.00046749588           
       1.670041             0.00946075881            0.000502107474           
       1.672682             0.00900539611            0.000487861344           
       1.675322             0.00829485744            0.000465208584           
       1.677962             0.00905317715            0.000480647093           
       1.680603             0.00885819948            0.000476906146           
       1.683243             0.00913416676            0.000505253683           
       1.685884             0.00907179381            0.000507244013           
       1.688524             0.00842308793            0.000479323631           
       1.691164             0.00907900603            0.000497749563           
       1.693805             0.00969911629            0.000520118978           
       1.696445             0.00941656975            0.000515459943           
       1.699085             0.00804614362             0.00046051169           
       1.701726             0.00882307936            0.000464547244           
       1.704366             0.00951222432             0.00050814081           
       1.707007             0.00866342646            0.000474130024           
       1.709647             0.00946921298            0.000501287172           
       1.712287             0.00955866936            0.000508033344           
       1.714928             0.00857164763            0.000484968076           
       1.717568              0.0088614195            0.000464499635           
       1.720209             0.00977624443             0.00051102839           
       1.722849             0.00806681654            0.000461818771           
       1.725489             0.00884822404             0.00048407546           
       1.728130             0.00919012954            0.000524281567           
       1.730770             0.00808173142            0.000466935297           
       1.733410             0.00904591442            0.000486239038           
       1.736051             0.00863287139              0.0004783146           
       1.738691             0.00813013814            0.000454768942           
       1.741332             0.00860570252            0.000481561692           
       1.743972             0.00919296816             0.00051398226           
       1.746612             0.00914509348             0.00049226717           
       1.749253             0.00908406777            0.000500310951           
       1.751893             0.00860608899            0.000483396148           
       1.754533             0.00910873697             0.00049684804           
       1.757174             0.00852703797            0.000476219846           
       1.759814             0.00858643424            0.000470631889           
       1.762455             0.00809597172            0.000465384219           
       1.765095             0.00804378492            0.000443759394           
       1.767735             0.00874013855            0.000476839213           
       1.770376             0.00809221392            0.000460033961           
       1.773016             0.00865597289            0.000472601779           
       1.775657             0.00832514386            0.000456813557           
       1.778297             0.00817023216            0.000448646684           
       1.780937             0.00779142002            0.000462438155           
       1.783578             0.00924419407            0.000491114331           
       1.786218             0.00892202296            0.000503521169           
       1.788858             0.00949043124            0.000493221868           
       1.791499             0.00880441209             0.00046972579           
       1.794139             0.00929290756            0.000478665526           
       1.796780             0.00895385772            0.000467587271           
       1.799420             0.00885377635            0.000462391837           
       1.802060             0.00926874541            0.000476925119           
       1.804701             0.00922853332            0.000456685156           
       1.807341             0.00902785818            0.000474630612           
       1.809981             0.00891362309            0.000473190548           
       1.812622             0.00940157297            0.000477220666           
       1.815262             0.00906330825            0.000478510149           
       1.817903              0.0084618956            0.000455510692           
       1.820543             0.00914556471             0.00048093359           
       1.823183             0.00835647252            0.000459465094           
       1.825824             0.00911371186            0.000458411495           
       1.828464              0.0090960867            0.000477451456           
       1.831105             0.00943840578            0.000472905996           
       1.833745             0.00876552859            0.000465470444           
       1.836385             0.00940608574            0.000495938759           
       1.839026             0.00813068145            0.000459634643           
       1.841666             0.00772836384            0.000446529696           
       1.844306             0.00864393823            0.000459354303           
       1.846947             0.00920831557            0.000478269163           
       1.849587             0.00980265684             0.00054490226           
       1.852228             0.00911736396            0.000475191673           
       1.854868             0.00907003268            0.000500665081           
       1.857508             0.00846696524            0.000478989754           
       1.860149             0.00991956103            0.000527871542           
       1.862789             0.00856113824            0.000473346486           
       1.865429             0.00843078423            0.000490325226           
       1.868070             0.00868494089            0.000491028137           
       1.870710             0.00894300526            0.000486782536           
       1.873351             0.00784342954            0.000461511154           
       1.875991             0.00920378617            0.000508092779           
       1.878631             0.00937855728            0.000503071134           
       1.881272             0.00906374889            0.000491242153           
       1.883912             0.00887934346            0.000506012789           
       1.886553             0.00859633614            0.000492317185           
       1.889193             0.00865514392            0.000493154216           
       1.891833             0.00792890724            0.000490202002           
       1.894474             0.00935187712            0.000527738737           
       1.897114             0.00864520472            0.000491008027           
       1.899754             0.00842963076            0.000486876215           
       1.902395             0.00863314823            0.000483085278           
       1.905035             0.00823064587            0.000499598183           
       1.907676             0.00847931812             0.00047793306           
       1.910316             0.00926505573            0.000512851293           
       1.912956             0.00911696666            0.000497543917           
       1.915597             0.00813546793            0.000472626384           
       1.918237             0.00881867126            0.000508190197           
       1.920878             0.00864342299            0.000501055799           
       1.923518             0.00883367426            0.000506755101           
       1.926158             0.00908563011            0.000507262159           
       1.928799             0.00920940419            0.000504794142           
       1.931439             0.00811027999            0.000486139307           
       1.934079             0.00806723004            0.000505441443           
       1.936720             0.00823354958            0.000473109012           
       1.939360             0.00884908419            0.000523268377           
       1.942001              0.0081558638             0.00046043365           
       1.944641             0.00867901051            0.000484326959           
       1.947281             0.00856321405            0.000476650733           
       1.949922             0.00823681073             0.00048286368           
       1.952562             0.00837230822            0.000502078738           
       1.955202             0.00858132116            0.000507687641           
       1.957843             0.00793944184            0.000475667395           
       1.960483             0.00877140637            0.000522716842           
       1.963124             0.00938887731            0.000529707731           
       1.965764             0.00843641859            0.000473514337           
       1.968404             0.00814910038            0.000460984174           
       1.971045             0.00870056411            0.000485640074           
       1.973685             0.00790654328            0.000485600045           
       1.976326             0.00846783647            0.000495634354           
       1.978966             0.00847173311            0.000500098992           
       1.981606             0.00894979946            0.000524735966           
       1.984247             0.00889608377            0.000519719377           
       1.986887             0.00805758151            0.000488695207           
       1.989527             0.00864026634            0.000500606909           
       1.992168             0.00814610317            0.000504349748           
       1.994808             0.00824268205            0.000505155969           
       1.997449             0.00792348137            0.000485106931           
       2.000089             0.00799003133            0.000485208548           
       2.002729             0.00775351707            0.000478259792           
       2.005370             0.00862081885            0.000498873643           
       2.008010             0.00820516997            0.000507939747           
       2.010650             0.00791445253            0.000502582601           
       2.013291             0.00771765184            0.000476167256           
       2.015931             0.00778668253            0.000474911062           
       2.018572             0.00837744788            0.000526879265           
       2.021212             0.00781754516            0.000499823467           
       2.023852             0.00772014635            0.000470103207           
       2.026493             0.00896330669            0.000529172161           
       2.029133             0.00806146727              0.0004917462           
       2.031774             0.00826678577            0.000522607398           
       2.034414             0.00727299751             0.00045104236           
       2.037054             0.00761152953            0.000473115662           
       2.039695             0.00706297475            0.000452306364           
       2.042335             0.00702563897            0.000468801601           
       2.044975             0.00845435132            0.000508027613           
       2.047616             0.00823573478            0.000500170636           
       2.050256             0.00766969808            0.000487244333           
       2.052897             0.00769787395            0.000497137614           
       2.055537             0.00758315009            0.000476870906           
       2.058177             0.00819406128            0.000485431438           
       2.060818             0.00699468933            0.000469838557           
       2.063458             0.00739615572            0.000503473457           
       2.066098             0.00762077183            0.000482102049           
       2.068739             0.00827102933            0.000510056184           
       2.071379             0.00736713507            0.000493933988           
       2.074020             0.00772707506            0.000494862633           
       2.076660             0.00707821278            0.000477458473           
       2.079300               0.007605809            0.000507059961           
       2.081941             0.00728625349            0.000454413407           
       2.084581             0.00678138851            0.000462722443           
       2.087222              0.0073022654            0.000463072779           
       2.089862             0.00832770489            0.000538606805           
       2.092502              0.0074317855            0.000493218792           
       2.095143             0.00834713147            0.000539777309           
       2.097783             0.00816328661            0.000516808189           
       2.100423             0.00746949896            0.000476360571           
       2.103064             0.00745569777            0.000493831255           
       2.105704             0.00754731426            0.000494395063           
       2.108345             0.00744363069             0.00047170757           
       2.110985             0.00747576856            0.000504904264           
       2.113625             0.00829639882            0.000536536577           
       2.116266             0.00806346232            0.000536455396           
       2.118906             0.00834199356             0.00050850774           
       2.121546             0.00721129071            0.000463763905           
       2.124187             0.00811364261            0.000516368709           
       2.126827             0.00749887025            0.000501961144           
       2.129468             0.00790137231            0.000516572596           
       2.132108             0.00684718447            0.000467858999           
       2.134748              0.0076102143            0.000491325348           
       2.137389             0.00779276737            0.000518685739           
       2.140029             0.00800634471            0.000470679492           
       2.142670             0.00771905245             0.00049391782           
       2.145310             0.00712581023            0.000461896363           
       2.147950               0.007424305            0.000485272513           
       2.150591             0.00815649487            0.000503498566           
       2.153231             0.00732302596            0.000491080288           
       2.155871             0.00823150365            0.000502983602           
       2.158512             0.00736907829            0.000496573757           
       2.161152             0.00715759258            0.000474059772           
       2.163793              0.0071575739            0.000471924988           
       2.166433             0.00916004091            0.000548232341           
       2.169073             0.00801077942            0.000501274031           
       2.171714             0.00797568643             0.00049643581           
       2.174354             0.00724604664             0.00049443309           
       2.176995             0.00780247097            0.000510906919           
       2.179635             0.00707382506            0.000514056444           
       2.182275             0.00768838729            0.000505995046           
       2.184916              0.0070020231            0.000466400641           
       2.187556              0.0085268098            0.000509525387           
       2.190196             0.00665046107            0.000470228675           
       2.192837             0.00703682184            0.000481063205           
       2.195477             0.00681092952            0.000451215128           
       2.198118             0.00814476869            0.000506066764           
       2.200758             0.00751808947            0.000498819991           
       2.203398             0.00754480139            0.000502902155           
       2.206039              0.0070497996            0.000460076179           
       2.208679             0.00758023971             0.00048817356           
       2.211319              0.0082337488            0.000511715459           
       2.213960              0.0073893998            0.000491263499           
       2.216600              0.0073042234            0.000505263669           
       2.219241             0.00703077931            0.000473770376           
       2.221881             0.00721959762            0.000481077099           
       2.224521             0.00810952684            0.000516113692           
       2.227162             0.00773347015            0.000493913626           
       2.229802             0.00700623322            0.000484833687           
       2.232443             0.00740733637            0.000490655693           
       2.235083             0.00755184285            0.000510032063           
       2.237723             0.00697901952            0.000470520881           
       2.240364             0.00698729296            0.000482398195           
       2.243004             0.00741774404            0.000493067582           
       2.245644             0.00743012007            0.000498418178           
       2.248285             0.00778247004            0.000499880453           
       2.250925             0.00868685689            0.000531335636           
       2.253566             0.00746633131            0.000526623268           
       2.256206             0.00778720904            0.000527066716           
       2.258846             0.00746620393            0.000490943394           
       2.261487             0.00644294248            0.000478679085           
       2.264127             0.00700098992             0.00048190578           
       2.266767             0.00769720447            0.000518762125           
       2.269408             0.00748840359             0.00051377289           
       2.272048             0.00763202393            0.000515580281           
       2.274689             0.00747921738            0.000517117875           
       2.277329             0.00764126172            0.000492146114           
       2.279969             0.00645788391            0.000481591641           
       2.282610             0.00787020027            0.000516864432           
       2.285250             0.00734130391            0.000477797593           
       2.287891             0.00725096357            0.000509109461           
       2.290531             0.00654608969            0.000490234054           
       2.293171              0.0067228672            0.000483937238           
       2.295812             0.00806222741            0.000527825129           
       2.298452             0.00661861934            0.000500112346           
       2.301092             0.00856139797            0.000528480988           
       2.303733             0.00770371078            0.000521538296           
       2.306373             0.00689290072            0.000501098869           
       2.309014             0.00709479025            0.000498466939           
       2.311654             0.00778600746             0.00054492432           
       2.314294             0.00680326797            0.000469289009           
       2.316935             0.00728195799            0.000487524265           
       2.319575             0.00655690847            0.000484715681           
       2.322215             0.00751225732             0.00054070553           
       2.324856             0.00648421008            0.000461856297           
       2.327496             0.00720439868            0.000517653003           
       2.330137             0.00704578093            0.000489871783           
       2.332777             0.00715621031            0.000509052971           
       2.335417             0.00771633947            0.000512820957           
       2.338058             0.00737704078            0.000516397967           
       2.340698             0.00733320548            0.000510815439           
       2.343339             0.00650797573            0.000491805597           
       2.345979             0.00775713199            0.000507982492           
       2.348619              0.0074001024            0.000514290823           
       2.351260             0.00795860445            0.000530237775           
       2.353900             0.00731690665            0.000506801654           
       2.356540             0.00711071118            0.000498900405           
       2.359181             0.00608995991            0.000455232102           
       2.361821             0.00768909607            0.000494115471           
       2.364462             0.00738399591            0.000506426314           
       2.367102             0.00693323969            0.000504298973           
       2.369742             0.00760374803            0.000555884337           
       2.372383             0.00680573525            0.000476206563           
       2.375023             0.00714519316            0.000512928802           
       2.377663             0.00733906075            0.000497044111           
       2.380304               0.006159197            0.000462933246           
       2.382944             0.00881686471            0.000527550409           
       2.385585             0.00681490033            0.000494657397           
       2.388225             0.00676368815             0.00049047966           
       2.390865             0.00630577999            0.000468720962           
       2.393506              0.0070055845            0.000484724987           
       2.396146             0.00829538702            0.000570316198           
       2.398787             0.00793317009            0.000513987639           
       2.401427             0.00697428578            0.000465168414           
       2.404067              0.0066784438            0.000465348934           
       2.406708             0.00693267889            0.000468438145           
       2.409348             0.00765942928            0.000522264724           
       2.411988             0.00800269228            0.000523044425           
       2.414629             0.00690256891            0.000500893212           
       2.417269             0.00702266762            0.000511130694           
       2.419910              0.0068083889            0.000504440183           
       2.422550             0.00678033475            0.000481621919           
       2.425190             0.00784894538            0.000546222978           
       2.427831             0.00623953753            0.000484275283           
       2.430471             0.00675469014            0.000480033856           
       2.433112             0.00676519186            0.000467801781           
       2.435752             0.00746337084            0.000519999742           
       2.438392             0.00786362778            0.000515188738           
       2.441033             0.00693081593            0.000512590524           
       2.443673              0.0065941603            0.000500370721           
       2.446313             0.00695890594            0.000514476293           
       2.448954             0.00761476443            0.000512417359           
       2.451594              0.0068462655            0.000522426649           
       2.454235              0.0068827084            0.000491472445           
       2.456875             0.00693619327            0.000516250581           
       2.459515             0.00861631891            0.000590283323           
       2.462156             0.00811577225            0.000540879621           
       2.464796             0.00780656729            0.000523631991           
       2.467436             0.00787774217            0.000543959875           
       2.470077             0.00782118337            0.000513721092           
       2.472717             0.00668956451            0.000477163587           
       2.475358             0.00867316518            0.000548987114           
       2.477998             0.00751850184            0.000502521901           
       2.480638             0.00652679544            0.000476528181           
       2.483279             0.00683598425            0.000509708236           
       2.485919             0.00649534952            0.000478825368           
       2.488560             0.00726675443            0.000505046011           
       2.491200              0.0067348859            0.000500670039           
       2.493840             0.00775724518            0.000568564397           
       2.496481             0.00705793485             0.00053346001           
       2.499121             0.00681320213            0.000509799739           
       2.501761             0.00767509895              0.0005482547           
       2.504402             0.00752162457            0.000534815977           
       2.507042             0.00678011023            0.000504008345           
       2.509683             0.00752191839            0.000522751002           
       2.512323             0.00785008114            0.000560866734           
       2.514963             0.00624822345            0.000494199144           
       2.517604              0.0074536804            0.000560094841           
       2.520244             0.00821944015            0.000551403389           
       2.522884             0.00817600699            0.000557809325           
       2.525525             0.00997422009            0.000623097745           
       2.528165             0.00715939103             0.00051967495           
       2.530806             0.00686355296            0.000517693695           
       2.533446             0.00755241689            0.000531460845           
       2.536086              0.0084540064            0.000557256293           
       2.538727             0.00764453261            0.000508364643           
       2.541367             0.00681927842            0.000484870937           
       2.544008             0.00704964188            0.000509141095           
       2.546648              0.0071107133            0.000520112583           
       2.549288             0.00684362682            0.000520647875           
       2.551929             0.00732055294            0.000529900577           
       2.554569             0.00743048649            0.000514333799           
       2.557209             0.00648477304            0.000484902129           
       2.559850             0.00722033534            0.000513307679           
       2.562490             0.00688547457            0.000518082664           
       2.565131             0.00633203761            0.000515131032           
       2.567771             0.00700546074            0.000522407005           
       2.570411             0.00663514168            0.000502910989           
       2.573052              0.0070330857            0.000524293123           
       2.575692             0.00691604336            0.000516763935           
       2.578332             0.00700431447            0.000522201815           
       2.580973             0.00676539452            0.000508335183           
       2.583613             0.00665539011            0.000492180384           
       2.586254             0.00854404229            0.000556884656           
       2.588894             0.00755712949            0.000543874288           
       2.591534              0.0069683638            0.000540635532           
       2.594175             0.00706417923             0.00053406774           
       2.596815             0.00698825042            0.000534321818           
       2.599456             0.00617779219            0.000476407895           
       2.602096             0.00662571937            0.000497131667           
       2.604736             0.00762183601            0.000545836513           
       2.607377             0.00811674667            0.000548435035           
       2.610017             0.00728968316            0.000510647533           
       2.612657             0.00723991216            0.000541293268           
       2.615298             0.00729056986            0.000530318154           
       2.617938             0.00692652364            0.000552959667           
       2.620579             0.00759850813            0.000555989529           
       2.623219             0.00761916937            0.000555951291           
       2.625859             0.00655676104            0.000501440237           
       2.628500             0.00761125989            0.000536718763           
       2.631140             0.00736416424            0.000536069308           
       2.633780             0.00599476324            0.000483245171           
       2.636421             0.00624757687            0.000505461676           
       2.639061             0.00749757046            0.000521266732           
       2.641702             0.00666687611            0.000502921837           
       2.644342              0.0068767574            0.000512953194           
       2.646982             0.00641246114            0.000487929006           
       2.649623             0.00672063214            0.000523472617           
       2.652263             0.00847859375            0.000582063916           
       2.654904             0.00604715968            0.000492063528           
       2.657544             0.00644989684            0.000478657559           
       2.660184             0.00683332854            0.000521398615           
       2.662825              0.0066530501            0.000526410547           
       2.665465             0.00786291502            0.000553485715           
       2.668105             0.00697294975            0.000549388166           
       2.670746             0.00733505777             0.00052052852           
       2.673386              0.0082137962            0.000567670731           
       2.676027             0.00847654636             0.00056742355           
       2.678667              0.0101256484            0.000605128872           
       2.681307              0.0098330336            0.000585919448           
       2.683948              0.0160106818            0.000768177008           
       2.686588              0.0113474268            0.000635978646           
       2.689229              0.0112104831            0.000617690729           
       2.691869             0.00935722245            0.000596439676           
       2.694509             0.00971775454            0.000608155424           
       2.697150             0.00766352983            0.000531303003           
       2.699790             0.00732173319            0.000544432096           
       2.702430             0.00762485696            0.000531075053           
       2.705071             0.00709561733            0.000529378515           
       2.707711             0.00719344457            0.000517331285           
       2.710352             0.00701148067            0.000539667308           
       2.712992             0.00710378345            0.000553251852           
       2.715632             0.00678867585            0.000501794243           
       2.718273             0.00725024293            0.000537430524           
       2.720913              0.0075115219            0.000545472107           
       2.723553             0.00594215376            0.000488410165           
       2.726194             0.00723384287            0.000563313997           
       2.728834             0.00874064824            0.000619500325           
       2.731475             0.00772575099            0.000537527281           
       2.734115             0.00785693679            0.000558895197           
       2.736755             0.00751418626            0.000551067358           
       2.739396             0.00669076249            0.000516985024           
       2.742036             0.00717809558            0.000560415779           
       2.744677             0.00723376307            0.000545862194           
       2.747317             0.00721897132            0.000541415396           
       2.749957             0.00715163288            0.000542666121           
       2.752598             0.00849495462            0.000597858553           
       2.755238              0.0072331015            0.000561629958           
       2.757878             0.00771428366            0.000574939239           
       2.760519             0.00846469569            0.000595868339           
       2.763159              0.0077974717            0.000566186745           
       2.765800             0.00735227492            0.000523937466           
       2.768440             0.00836027604             0.00056281617           
       2.771080             0.00804721956            0.000556787194           
       2.773721             0.00752678934            0.000552372801           
       2.776361             0.00763152302            0.000563875965           
       2.779001             0.00798101359            0.000597172218           
       2.781642             0.00620437362            0.000522645424           
       2.784282             0.00671527504            0.000552679703           
       2.786923             0.00661496479            0.000553366057           
       2.789563             0.00728753891            0.000559394825           
       2.792203             0.00712537693             0.00052840283           
       2.794844              0.0081386415            0.000618929602           
       2.797484             0.00656928638            0.000524788282           
       2.800125             0.00661816067            0.000553863961           
       2.802765             0.00675187189            0.000549806924           
       2.805405             0.00621141946            0.000529128279           
       2.808046             0.00642114855            0.000547444708           
       2.810686             0.00683558631            0.000519017906           
       2.813326             0.00612192722             0.00051019795           
       2.815967             0.00709732304             0.00056496022           
       2.818607             0.00728149109            0.000546077017           
       2.821248             0.00610028259            0.000489448998           
       2.823888             0.00646307507            0.000522949828           
       2.826528             0.00665023084            0.000513731567           
       2.829169             0.00586610314            0.000505386378           
       2.831809              0.0056731709            0.000503766349           
       2.834449             0.00660361025            0.000546944065           
       2.837090             0.00654680175            0.000525984093           
       2.839730             0.00636512786            0.000516102511           
       2.842371             0.00634387953            0.000515983973           
       2.845011             0.00724397238            0.000555770094           
       2.847651              0.0069289002            0.000544216853           
       2.850292             0.00597032817            0.000510129432           
       2.852932             0.00622781955            0.000532368509           
       2.855573             0.00693379872             0.00054489688           
       2.858213              0.0070366255            0.000576435054           
       2.860853             0.00655964122            0.000517724152           
       2.863494             0.00655127821            0.000535689318           
       2.866134             0.00709459835            0.000579410785           
       2.868774             0.00707254391            0.000568556255           
       2.871415             0.00669532038            0.000561802828           
       2.874055             0.00697967938            0.000548298902           
       2.876696             0.00727066912            0.000574748469           
       2.879336             0.00702033327            0.000544327037           
       2.881976             0.00735722774            0.000574749162           
       2.884617             0.00756768123            0.000574350608           
       2.887257             0.00704428491            0.000556993336           
       2.889897             0.00769540853            0.000570185165           
       2.892538             0.00724799092            0.000606209477           
       2.895178             0.00749599403            0.000556960818           
       2.897819             0.00696950001            0.000547837425           
       2.900459             0.00670734115            0.000526980358           
       2.903099             0.00660395939            0.000517550846           
       2.905740             0.00670464214            0.000534973037           
       2.908380             0.00828621749            0.000601490851           
       2.911021             0.00812078777            0.000605137524           
       2.913661             0.00719952665            0.000569609001           
       2.916301             0.00609418465            0.000524561775           
       2.918942             0.00693972353            0.000535434141           
       2.921582             0.00623592384            0.000531051525           
       2.924222             0.00674300669            0.000534996111           
       2.926863             0.00733532591             0.00058122052           
       2.929503              0.0071655023            0.000581258858           
       2.932144             0.00799594693            0.000589419883           
       2.934784              0.0074935059            0.000561244557           
       2.937424             0.00734800726            0.000561475082           
       2.940065             0.00710441647            0.000526641728           
       2.942705             0.00729785944            0.000533093768           
       2.945346             0.00684715961            0.000547999355           
       2.947986             0.00711206398            0.000569476032           
       2.950626             0.00716420294            0.000568341567           
       2.953267             0.00720849224            0.000560884391           
       2.955907             0.00652977481            0.000553771769           
       2.958547             0.00610401268            0.000505457936           
       2.961188             0.00723741993            0.000574208669           
       2.963828             0.00645590834            0.000530490332           
       2.966469             0.00810512857            0.000583104273           
       2.969109             0.00656160407            0.000532425458           
       2.971749             0.00753576594            0.000567021777           
       2.974390             0.00717067309            0.000543537411           
       2.977030               0.007032673            0.000550311435           
       2.979670             0.00806550358            0.000573244184           
       2.982311             0.00923827887            0.000635869025           
       2.984951             0.00677410717            0.000517867742           
       2.987592             0.00684471234            0.000530985939           
       2.990232              0.0079009392            0.000593299007           
       2.992872             0.00868930925            0.000586073029           
       2.995513              0.0088873473            0.000579869383           
       2.998153                0.01278518            0.000707185925           
       3.000794              0.0132186915            0.000696498372           
       3.003434             0.00997947218            0.000606086898           
       3.006074              0.0396562163             0.00119126024           
       3.008715               0.112459818             0.00193650272           
       3.011355               0.218269024             0.00260158497           
       3.013995               0.123145269             0.00195943486           
       3.016636              0.0754808875             0.00150220169           
       3.019276               0.140752305             0.00201642481           
       3.021917               0.511983438             0.00369788518           
       3.024557                1.46063375             0.00614081636           
       3.027197                1.12897896              0.0052635595           
       3.029838               0.551537679             0.00373113708           
       3.032478               0.255699915              0.0025430814           
       3.035118               0.068982826             0.00133860748           
       3.037759              0.0818459517             0.00145619877           
       3.040399               0.116276104             0.00179038755           
       3.043040               0.479706579             0.00368112527           
       3.045680               0.391869118             0.00313031062           
       3.048320               0.101881975             0.00163084527           
       3.050961               0.113988724             0.00175541887           
       3.053601              0.0981411183             0.00156875917           
       3.056242               0.073649623             0.00144489436           
       3.058882              0.0719847154             0.00153232363           
       3.061522              0.0535625418             0.00129682903           
       3.064163              0.0692805309             0.00145631125           
       3.066803               0.136472754             0.00215184573           
       3.069443               0.108639584             0.00200872384           
       3.072084              0.0349975224             0.00111015794           
       3.074724              0.0458302294             0.00141875209           
       3.077365              0.0574803017             0.00164476404           
       3.080005              0.0101235577            0.000694168081           
       3.082645              0.0140541185            0.000859222388           
       3.085286              0.0139096083            0.000861537561           
       3.087926              0.0109853489            0.000759737478           
       3.090566              0.0120017027            0.000778069858           
       3.093207              0.0122379006            0.000817590611           
       3.095847              0.0101035455            0.000712040185           
       3.098488             0.00845197087            0.000722122898           
       3.101128             0.00924388116            0.000760052056           
       3.103768              0.0103574409            0.000789394211           
       3.106409             0.00849953734            0.000761056248           
       3.109049             0.00789428438            0.000703863719           
       3.111690             0.00835081008            0.000711502272           
       3.114330              0.0092776354            0.000765900958           
       3.116970             0.00763284312            0.000700033031           
       3.119611              0.0136785846            0.000997504123           
       3.122251              0.0184789542             0.00121276998           
       3.124891              0.0366271155             0.00172332705           
       3.127532              0.0252621414             0.00140013375           
       3.130172              0.0146181868             0.00108348136           
       3.132813             0.00946881908            0.000858466013           
       3.135453             0.00723599251            0.000744272665           
       3.138093             0.00646484238            0.000762263426           
       3.140734              0.0069587324            0.000729615072           
       3.143374             0.00692648409            0.000769809886           
       3.146014             0.00651163326            0.000803534375           
       3.148655              0.0072067257            0.000785816506           
       3.151295             0.00701053043            0.000825932873           
       3.153936             0.00644084947            0.000764723533           
       3.156576             0.00590833966              0.0007224666           
       3.159216             0.00694377109            0.000787135652           
       3.161857             0.00634989646            0.000749659619           
       3.164497             0.00791326597            0.000879310604           
       3.167138             0.00822121961            0.000926052206           
       3.169778             0.00784350545            0.000889612018           
       3.172418             0.00632480143            0.000790731225           
       3.175059             0.00582512008            0.000672755661           
       3.177699             0.00538534873            0.000684988036           
       3.180339             0.00639153267            0.000799538393           
       3.182980             0.00522824782            0.000747640392           
       3.185620              0.0070058405            0.000881392864           
       3.188261              0.0074685856            0.000926275965           
       3.190901             0.00600922931            0.000764154901           
       3.193541             0.00665546297            0.000845014573           
       3.196182             0.00536853025            0.000790915832           
       3.198822               0.005246447            0.000782133256           
       3.201463             0.00684331799            0.000877877624           
       3.204103             0.00567984853            0.000794911218           
       3.206743             0.00490509059            0.000738640302           
       3.209384             0.00479265853            0.000788838645           
       3.212024             0.00631433327            0.000844161848           
       3.214664             0.00435658277             0.00079735154           
       3.217305             0.00641254948            0.000919551158           
       3.219945             0.00475409952            0.000814927481           
       3.222586             0.00646237976            0.000904978946           
       3.225226             0.00687137997             0.00103521499           
       3.227866             0.00518136805            0.000821622288           
       3.230507             0.00585608588            0.000905458961           
       3.233147             0.00627650847            0.000944967549           
       3.235787             0.00519129431            0.000879489149           
       3.238428              0.0055463452            0.000980998819           
       3.241068             0.00696384802             0.00102783729           
       3.243709             0.00518065821            0.000915923736           
       3.246349             0.00605634053            0.000902761606           
       3.248989             0.00638895426             0.00109484043           
       3.251630             0.00661752245             0.00107299485           
       3.254270             0.00611624552            0.000921930434           
       3.256911             0.00693529784             0.00107116699           
       3.259551             0.00479210676            0.000958600997           
       3.262191             0.00637659995             0.00112950031           
       3.264832             0.00413638173            0.000950508704           
       3.267472             0.00362716113            0.000834991077           
       3.270112             0.00534218575             0.00111987684           
       3.272753             0.00551355874              0.0010413616           
       3.275393             0.00612617326             0.00112002746           
       3.278034             0.00717887654             0.00121312824           
       3.280674             0.00652015041             0.00125456333           
       3.283314             0.00481964648            0.000964674925           
       3.285955             0.00743853426             0.00123652917           
       3.288595             0.00586111976             0.00122114045           
       3.291235             0.00699815625              0.0013716921           
       3.293876             0.00578316815             0.00126486476           
       3.296516             0.00764967223             0.00139657407           
       3.299157             0.00595908572             0.00121714083           
       3.301797             0.00647058904             0.00144673364           
       3.304437             0.00559337325              0.0011653663           
       3.307078              0.0058537136             0.00131325806           
       3.309718             0.00534294919             0.00129503099           
       3.312359             0.00408063952             0.00113202732           
       3.314999             0.00425865544              0.0011386254           
       3.317639             0.00305570368             0.00092242149           
       3.320280             0.00471078918             0.00121769409           
       3.322920             0.00390424153             0.00112721943           
       3.325560             0.00647229639             0.00145232655           
       3.328201             0.00525690544             0.00117880509           
       3.330841              0.0035163792             0.00117337724           
       3.333482             0.00384770087             0.00116018637           
       3.336122             0.00487486852              0.0013064962           
       3.338762             0.00465573086             0.00147489413           
       3.341403             0.00636718708             0.00164812291           
       3.344043             0.00586027012             0.00151803977           
       3.346683             0.00446518372             0.00135280458           
       3.349324             0.00362629021             0.00137069269           
       3.351964             0.00462225019             0.00163644194           
       3.354605             0.00686575408             0.00228093133           
       3.357245             0.00306776196             0.00137542425           
       3.359885             0.00355240129             0.00118460191           
       3.362526              0.0036553984             0.00150271635           
       3.365166             0.00497829334             0.00165405797           
       3.367807             0.00176932685             0.00126198886           
       3.370447              0.0043135971             0.00163453754           
       3.373087             0.00494615078             0.00187169915           
       3.375728             0.00447071511             0.00200830697           
       3.378368             0.00586298474             0.00341327183           
       3.381008             0.00329642898             0.00190814553           
       3.383649             0.00279281552             0.00140894881           
       3.386289               0.001960508             0.00139713683           
       3.388930             0.00495121923             0.00351199611           
       3.391570             0.00994264882             0.00352055785           
       3.394210              0.0120634231             0.00490756073           
       3.396851             0.00981942793             0.00495276011           
       3.399491             0.00479118989             0.00346057274           
       3.402131             0.00983485809             0.00701466328           
       3.404772           -2.67418554e-05                         0           
       3.407412                       nan                       nan           
       3.410053           -2.68077207e-05                         0           
       3.412693                       nan                       nan           
       3.415333             0.00910058417             0.00956590225           
