################################################################################
# EDF_DataBlockID                     0.Image.Psd
# EDF_BinarySize                      4366944
# EDF_HeaderSize                      2560
# ByteOrder                           LowByteFirst
# DataType                            FloatValue
# Dim_1                               1028
# Dim_2                               1062
# Image                               0
# HeaderID                            EH:000000:000000:000000
# Size                                4366944
# Center_1                            607.5200
# Center_2                            651.5500
# Comment                             Xenocs_Cell_Window - 20251028_20perc_iodine_1.23mg
# DDummy                              0.6
# Date                                2025-10-31T08:08:36
# Delta                               0
# Dummy                               -1.5
# ExposureTime                        360
# Gamma                               0
# Intensity1                          8.5322e-10
# PSize_1                             7.5e-05
# PSize_2                             7.5e-05
# Pressure                            0.0329475
# SampleDistance                      0.450002
# SampleEnvKind                       large
# SampleEnvPN                         ElectroChemical cell
# SampleEnvSN                         1141
# Thickness                           0
# Wavelength                          1.541891e-10
# Wavelength                          1.54189e-10
# aux                                 0
# aux_dial                            0.002375
# beamx                               588.434
# beamx_dial                          588.434
# beamz                               657.808
# beamz_dial                          657.808
# det0x                               0
# det0x_dial                          6.36945
# det0xvd                             0
# det0xvd_dial                        0
# det0y                               450.002
# det0y_dial                          481.635
# det0z                               0
# det0z_dial                          1.23302
# det0zvd                             0
# det0zvd_dial                        0
# mag                                 1.818
# mag_dial                            1.818
# om                                  0.2499
# om_dial                             -0.610199
# phi                                 -0.0120535
# phi_dial                            0
# ry                                  0.599993
# ry_dial                             0.599993
# s1bot                               0.8
# s1bot_dial                          -1.66094
# s1hl                                0.8
# s1hl_dial                           -0.608437
# s1hr                                0.8
# s1hr_dial                           0.970938
# s1top                               0.8
# s1top_dial                          -0.461562
# s2bot                               0.45
# s2bot_dial                          1.36109
# s2hl                                0.45
# s2hl_dial                           -0.83375
# s2hr                                0.45
# s2hr_dial                           -0.118594
# s2top                               0.45
# s2top_dial                          1.44734
# w2theta                             32
# w2theta_dial                        32
# waxsch                              19.2605
# waxsch_dial                         -32.7355
# waxsh                               137.085
# waxsh_dial                          -43.5338
# waxsth                              26.0607
# waxsth_dial                         -19.4086
# waxsz                               67.0407
# waxsz_dial                          -23.7954
# wind                                65.9854
# wind_dial                           66.0041
# wpsi                                124
# wpsi_dial                           124
# wstod                               115
# wstod_dial                          115
# x                                   0
# x_dial                              1.00969
# z                                   0
# z_dial                              13.3172
# CountCutoff                         15302352
# DetectorModel                       Dectris EIGER2 Si 1M, S/N E-02-0362
# ThresholdSetting                    4023.88989258
# Saturation                          0
# FlatField                           Corrected
# BackgroundReductionExtra            0.02
# BackgroundCorrectionConstant        0.0026712
# Detector                            0
# Monitor                             0
# Pil_Roi0                            0
# SumForIntensity1                    3.07159e+08
# TransmittedFlux                     853220
# det                                 0
# mon                                 0
# pilai0                              3.07159e+08
# pilai1                              782478
# pilct0                              5.31761e+08
# pilct1                              782478
# pilroi0                             0
# pilroi1                             0
# sec                                 1
# title                               20251028_20perc_iodine_1.23mg_0_00598.edf
# usaxs0                              0
# Operation                           Azimuthal average I(q)
# Error_model                         ErrorModel.poisson
# Geometrical_correction              True
# Transmission_correction             True
# Thickness_correction                False
# Binning mode                        Uniform
# Binning factor                      1.0
# Psi                                 0.0
# Omega                               0.2499
# MaskInvalidPixels                   True
# DetectorEdge                        3
# MaskFiles                           ['20251028_20perc_iodine_1.23mg_0_00012_mask.edf']
################################################################################
    q(A⁻¹)                Intensity(a.u.)            Sigma_I(a.u.)            
       0.000340                  372070.3                120.565568           
       0.001019                359370.701                 72.560084           
       0.001698                349881.636                50.6258182           
       0.002377                330943.242                44.0385776           
       0.003056                307888.683                35.8995861           
       0.003735                253447.149                28.7252713           
       0.004415                205009.869                25.8349675           
       0.005094                153056.418                19.3320123           
       0.005773                101046.589                14.5424934           
       0.006452                58933.0456                10.6411056           
       0.007131                32388.5304                7.64207596           
       0.007810                16190.5649                5.36205953           
       0.008490                8104.07248                 3.3626745           
       0.009169                3885.88672                2.30127702           
       0.009848                1201.26069                1.23708071           
       0.010527                 467.85934               0.772035579           
       0.011206                117.844025               0.369800043           
       0.011885                54.3435735                0.23332181           
       0.012564                24.9964292               0.162462075           
       0.013244                17.0249846               0.125347693           
       0.013923                 12.333132               0.108407501           
       0.014602                9.41104069              0.0878266658           
       0.015281                7.44719384              0.0795303279           
       0.015960                5.98473607              0.0707839629           
       0.016639                4.94575835              0.0607635921           
       0.017319                4.00753412              0.0538466122           
       0.017998                3.39356944              0.0474044928           
       0.018677                 2.8680349              0.0451365643           
       0.019356                2.58585875              0.0423484761           
       0.020035                2.08957192              0.0357155471           
       0.020714                1.85195291              0.0339794112           
       0.021394                1.66010182              0.0304395408           
       0.022073                1.43799024              0.0294752883           
       0.022752                1.27058778              0.0265042767           
       0.023431                1.07378705              0.0236510265           
       0.024110               0.967820969              0.0234096616           
       0.024789               0.911870492              0.0211030099           
       0.025469               0.789984025                0.02024133           
       0.026148               0.738353994              0.0183864185           
       0.026827               0.659415457              0.0176538425           
       0.027506               0.654221083              0.0178377463           
       0.028185               0.566795431              0.0158335099           
       0.028864               0.509551145              0.0149284331           
       0.029544                0.47599587                0.01399161           
       0.030223               0.442507184              0.0136838912           
       0.030902               0.393927424               0.013029081           
       0.031581               0.373998047              0.0120681965           
       0.032260               0.360316944              0.0120472425           
       0.032939               0.327102378              0.0110678269           
       0.033619               0.309214309              0.0109190929           
       0.034298               0.268746099             0.00990633558           
       0.034977               0.256489484             0.00948761277           
       0.035656               0.243442307             0.00948778293           
       0.036335               0.230918556             0.00896214055           
       0.037014               0.225607502              0.0088849015           
       0.037693               0.198170896             0.00801059752           
       0.038373               0.184021444             0.00779507548           
       0.039052               0.174164228              0.0076156935           
       0.039731               0.152925811              0.0069699483           
       0.040410               0.139417641             0.00661038082           
       0.041089               0.139383927             0.00650604714           
       0.041768               0.145532205             0.00668272338           
       0.042448               0.136923818             0.00643176793           
       0.043127                0.13536218             0.00624394877           
       0.043806               0.120397127              0.0059325978           
       0.044485               0.121133044             0.00582845416           
       0.045164               0.104644651             0.00552404083           
       0.045843                0.11561065             0.00556891781           
       0.046523               0.107461008             0.00538758878           
       0.047202               0.104860418             0.00535918814           
       0.047881               0.102694559             0.00520127793           
       0.048560               0.101606732             0.00522081307           
       0.049239              0.0910129038             0.00474439951           
       0.049918              0.0898257766             0.00480549729           
       0.050598                0.08674838             0.00465161076           
       0.051277                0.08972538             0.00471574207           
       0.051956              0.0775348867             0.00435617337           
       0.052635              0.0708554071             0.00407593491           
       0.053314              0.0818826531              0.0045097461           
       0.053993              0.0725383187             0.00412821223           
       0.054673              0.0782774323             0.00419288592           
       0.055352              0.0745999185             0.00415333242           
       0.056031              0.0723826148             0.00400518224           
       0.056710              0.0725282716              0.0041074555           
       0.057389              0.0657015716             0.00376985131           
       0.058068              0.0665753834             0.00383395593           
       0.058748              0.0637803605             0.00379942342           
       0.059427              0.0661522834             0.00380391389           
       0.060106              0.0612701811             0.00369550632           
       0.060785              0.0584597884             0.00350160039           
       0.061464              0.0597034209             0.00362394425           
       0.062143              0.0607321609             0.00361790411           
       0.062822              0.0606306678                0.00357246           
       0.063502              0.0575062508             0.00347297865           
       0.064181               0.049870907              0.0032000575           
       0.064860              0.0570910965             0.00347602767           
       0.065539              0.0526942475             0.00330683864           
       0.066218              0.0474641482              0.0030712433           
       0.066897                0.04752673             0.00309699193           
       0.067577              0.0471347744             0.00311382547           
       0.068256              0.0492715754              0.0032618283           
       0.068935              0.0497142218             0.00322346903           
       0.069614              0.0448025356             0.00309055457           
       0.070293              0.0441481971             0.00309619231           
       0.070972              0.0381251207             0.00285617962           
       0.071652              0.0419974868             0.00300322185           
       0.072331              0.0461678629             0.00309268504           
       0.073010              0.0427222448             0.00304301693           
       0.073689              0.0454987553             0.00312308644           
       0.074368              0.0376523058             0.00283589061           
       0.075047              0.0388959935             0.00285136532           
       0.075727              0.0336346731             0.00263513779           
       0.076406              0.0406621145             0.00295518431           
       0.077085              0.0374231956             0.00278206231           
       0.077764              0.0331371208             0.00260873132           
       0.078443              0.0370522912             0.00277562054           
       0.079122              0.0346824781             0.00265959393           
       0.079802              0.0339785481             0.00266038508           
       0.080481              0.0387594466             0.00274554501           
       0.081160              0.0341994588             0.00263190945           
       0.081839              0.0355212688              0.0026393466           
       0.082518               0.035417637             0.00263771329           
       0.083197              0.0335723538             0.00252817835           
       0.083876              0.0362738001             0.00258426019           
       0.084556              0.0321295677             0.00249980114           
       0.085235              0.0363418703             0.00260725673           
       0.085914              0.0330378054             0.00251006077           
       0.086593              0.0354316739             0.00258267819           
       0.087272              0.0316538068             0.00240660472           
       0.087951              0.0272241855             0.00228228746           
       0.088631              0.0300104827             0.00231461789           
       0.089310               0.031475278             0.00242070801           
       0.089989               0.029103146             0.00230049029           
       0.090668              0.0308259882              0.0023937374           
       0.091347              0.0282287607             0.00230350242           
       0.092026              0.0360835069             0.00248932468           
       0.092706              0.0280468252              0.0022743292           
       0.093385              0.0282208804             0.00224634189           
       0.094064              0.0271143969             0.00222749085           
       0.094743              0.0307669404             0.00233662437           
       0.095422              0.0311686235             0.00232560256           
       0.096101              0.0303985421             0.00234399469           
       0.096781              0.0258358196              0.0021299923           
       0.097460              0.0279778678             0.00215606912           
       0.098139              0.0294964575             0.00219677555           
       0.098818              0.0333524563              0.0023071891           
       0.099497              0.0265357325             0.00206217529           
       0.100176              0.0281675661               0.002068875           
       0.100856              0.0255756114             0.00197012698           
       0.101535              0.0271039769             0.00202422745           
       0.102214              0.0290385539             0.00209523617           
       0.102893              0.0295766823             0.00209046813           
       0.103572              0.0280553474             0.00200591722           
       0.104251              0.0214345948             0.00175980379           
       0.104931              0.0259942159             0.00192031743           
       0.105610              0.0220651082             0.00177679087           
       0.106289              0.0224252644             0.00176142395           
       0.106968              0.0265975295             0.00192398969           
       0.107647              0.0212265234             0.00171981647           
       0.108326              0.0253637099             0.00185481206           
       0.109005              0.0237965856             0.00178529404           
       0.109685               0.022802017             0.00172798538           
       0.110364              0.0212079501             0.00168541816           
       0.111043              0.0240862945             0.00178903132           
       0.111722              0.0224366019             0.00170557377           
       0.112401              0.0231283266             0.00173648125           
       0.113080              0.0216434466              0.0016605642           
       0.113760              0.0233215725             0.00175252958           
       0.114439              0.0229339612             0.00171310186           
       0.115118              0.0224799686              0.0016832724           
       0.115797              0.0221143297             0.00168499364           
       0.116476              0.0214010598             0.00163278784           
       0.117155              0.0216711221              0.0016563096           
       0.117835              0.0215195194             0.00161769433           
       0.118514              0.0214663729             0.00163618167           
       0.119193              0.0224777114             0.00167429263           
       0.119872              0.0185011369             0.00149999165           
       0.120551              0.0231518974             0.00166678805           
       0.121230              0.0192918557             0.00150619605           
       0.121910              0.0229274611             0.00165786693           
       0.122589              0.0240078817             0.00169822761           
       0.123268              0.0205429202             0.00154047183           
       0.123947              0.0217533129             0.00159545688           
       0.124626              0.0224848308             0.00160222831           
       0.125305              0.0216909138             0.00158141013           
       0.125985              0.0200033277             0.00150686267           
       0.126664              0.0202776613             0.00150270881           
       0.127343              0.0207295659             0.00153697246           
       0.128022              0.0211944279             0.00154219026           
       0.128701              0.0223007745             0.00157368875           
       0.129380               0.022190641             0.00155013709           
       0.130059              0.0214230503              0.0015266281           
       0.130739              0.0232245069              0.0016006974           
       0.131418              0.0199408065             0.00147907341           
       0.132097              0.0202863847             0.00147270219           
       0.132776              0.0181940339             0.00138839155           
       0.133455              0.0205305459             0.00148630785           
       0.134134               0.018905437             0.00142172839           
       0.134814              0.0194632878             0.00142768802           
       0.135493              0.0215355494             0.00150784678           
       0.136172              0.0195068177             0.00142423444           
       0.136851              0.0199827182             0.00144988664           
       0.137530              0.0188215776             0.00137370068           
       0.138209              0.0220355351              0.0015038172           
       0.138889              0.0197349743             0.00142942608           
       0.139568              0.0163301777             0.00129972399           
       0.140247              0.0190557981             0.00140216699           
       0.140926              0.0176555834             0.00131107783           
       0.141605              0.0184218294             0.00137324985           
       0.142284              0.0168978975             0.00129342922           
       0.142964              0.0220827969             0.00148426445           
       0.143643              0.0188592128             0.00136992583           
       0.144322              0.0195067127             0.00136409038           
       0.145001              0.0211238093             0.00144864296           
       0.145680              0.0215426932             0.00142832489           
       0.146359               0.018809935             0.00133954217           
       0.147039              0.0201370123             0.00139740122           
       0.147718              0.0180524929             0.00130126578           
       0.148397              0.0177654828             0.00131093959           
       0.149076              0.0180995752             0.00128216059           
       0.149755              0.0168064137             0.00125458557           
       0.150434              0.0210153724             0.00140348744           
       0.151114               0.018657808             0.00131510825           
       0.151793              0.0163808242              0.0012322621           
       0.152472                0.01907587             0.00130628338           
       0.153151              0.0182760177             0.00129096521           
       0.153830              0.0172034747             0.00124338628           
       0.154509              0.0184633044             0.00128273487           
       0.155188              0.0152498189             0.00116534355           
       0.155868              0.0178603961             0.00125217679           
       0.156547              0.0159703221             0.00119167472           
       0.157226              0.0197249175             0.00129202037           
       0.157905               0.016790121             0.00120204667           
       0.158584              0.0175235889             0.00122579044           
       0.159263              0.0165885291             0.00119702627           
       0.159943              0.0162865343             0.00118696487           
       0.160622              0.0153949446             0.00113174712           
       0.161301              0.0200792019             0.00130979659           
       0.161980               0.016846272             0.00117933113           
       0.162659              0.0176286154             0.00121977611           
       0.163338                0.01710662              0.0011917876           
       0.164018              0.0178260688              0.0012102055           
       0.164697              0.0177266959             0.00122232367           
       0.165376              0.0156131303             0.00112207871           
       0.166055              0.0185469034             0.00123103051           
       0.166734              0.0169864223             0.00117282782           
       0.167413              0.0162892099             0.00114931024           
       0.168093              0.0163587544             0.00116265591           
       0.168772              0.0169000836             0.00114717637           
       0.169451              0.0183267766             0.00121659628           
       0.170130              0.0162554877              0.0011307437           
       0.170809              0.0151289208             0.00110387609           
       0.171488              0.0151706063             0.00109531894           
       0.172168              0.0165110482             0.00113170732           
       0.172847              0.0176674107             0.00118604452           
       0.173526              0.0164483947             0.00112256478           
       0.174205              0.0170057929             0.00114668375           
       0.174884              0.0165893894             0.00112665589           
       0.175563              0.0158801483             0.00110701548           
       0.176243               0.014472263             0.00106738064           
       0.176922              0.0166954397             0.00111656049           
       0.177601              0.0170759275             0.00114162177           
       0.178280              0.0169771608             0.00112560878           
       0.178959              0.0179461392             0.00116659377           
       0.179638              0.0167185374             0.00112274426           
       0.180317              0.0138788949             0.00101550892           
       0.180997              0.0161487128             0.00110135199           
       0.181676              0.0157900643             0.00107742465           
       0.182355              0.0157663404             0.00108308101           
       0.183034              0.0164047264             0.00108705963           
       0.183713              0.0158431694             0.00108130198           
       0.184392              0.0187655319             0.00117645416           
       0.185072              0.0168885702              0.0011033495           
       0.185751              0.0190291847             0.00117444657           
       0.186430              0.0158365704             0.00106390099           
       0.187109              0.0186581894             0.00116765702           
       0.187788              0.0176344928             0.00113237432           
       0.188467              0.0174157659              0.0011120125           
       0.189147              0.0179228402             0.00113950896           
       0.189826              0.0175163176             0.00110659084           
       0.190505              0.0152105352             0.00104816291           
       0.191184              0.0178485185              0.0011190588           
       0.191863              0.0169456531             0.00109268489           
       0.192542              0.0154033764             0.00105159874           
       0.193222              0.0175151803             0.00109624108           
       0.193901              0.0161608028             0.00106711854           
       0.194580              0.0149094009             0.00100704105           
       0.195259              0.0155441273             0.00104006294           
       0.195938              0.0153508749             0.00103604483           
       0.196617              0.0157932195             0.00103619731           
       0.197297               0.014922187             0.00101133033           
       0.197976              0.0141154885            0.000968505409           
       0.198655              0.0158385904             0.00103712322           
       0.199334              0.0168886952             0.00106150793           
       0.200013              0.0165970215             0.00105171823           
       0.200692              0.0171497237             0.00107551714           
       0.201371              0.0156909352             0.00101717185           
       0.202051              0.0163910628              0.0010428502           
       0.202730              0.0153465625            0.000998997583           
       0.203409              0.0144410489            0.000975582165           
       0.204088              0.0142007203            0.000966360208           
       0.204767              0.0154274146             0.00100194023           
       0.205446               0.015236511            0.000997667504           
       0.206126              0.0145016952            0.000960089263           
       0.206805              0.0176786287             0.00107948375           
       0.207484              0.0165935881             0.00102703061           
       0.208163              0.0160988856             0.00101768423           
       0.208842              0.0150988232              0.0009828975           
       0.209521              0.0164135472             0.00101628042           
       0.210201              0.0180217298             0.00107678778           
       0.210880              0.0148968174            0.000959780064           
       0.211559              0.0150887904            0.000980226084           
       0.212238              0.0151906986            0.000978525981           
       0.212917              0.0171963296             0.00103725318           
       0.213596              0.0169472654             0.00103580279           
       0.214276              0.0151525477            0.000959017709           
       0.214955              0.0135929134            0.000927423885           
       0.215634              0.0158404969            0.000993991414           
       0.216313              0.0155238659            0.000981940702           
       0.216992              0.0148918121            0.000961502279           
       0.217671              0.0146742024            0.000947986319           
       0.218351              0.0145535456            0.000953314175           
       0.219030              0.0143811917               0.000932694           
       0.219709              0.0155893301            0.000977138399           
       0.220388              0.0153863365            0.000969508637           
       0.221067              0.0154088067             0.00097098551           
       0.221746              0.0168432362             0.00101413536           
       0.222426              0.0157188077            0.000965058151           
       0.223105              0.0141053836            0.000926643751           
       0.223784               0.015017581            0.000946653382           
       0.224463              0.0159174192            0.000982363459           
       0.225142              0.0153013605            0.000947925769           
       0.225821              0.0154215735            0.000955475361           
       0.226500              0.0141274966            0.000920323285           
       0.227180              0.0148504202            0.000929039637           
       0.227859               0.013886373            0.000902408634           
       0.228538              0.0146748151             0.00091835828           
       0.229217              0.0165507177            0.000983010984           
       0.229896              0.0142715939            0.000912382746           
       0.230575              0.0141933604            0.000895374494           
       0.231255              0.0150421596            0.000935558942           
       0.231934               0.014720013            0.000919163748           
       0.232613              0.0149884747            0.000930929629           
       0.233292              0.0157422693            0.000944833564           
       0.233971              0.0156902224             0.00094283017           
       0.234650              0.0154506536            0.000946609564           
       0.235330              0.0146601693            0.000914024626           
       0.236009              0.0136330768            0.000879525031           
       0.236688              0.0137523596            0.000880203052           
       0.237367              0.0129585288            0.000855662358           
       0.238046              0.0135833764            0.000882218656           
       0.238725              0.0157276628            0.000934656484           
       0.239405              0.0149023922            0.000915445843           
       0.240084              0.0163781061            0.000953591216           
       0.240763              0.0143800504            0.000902088862           
       0.241442              0.0154073661            0.000920598762           
       0.242121              0.0155230445             0.00092579246           
       0.242800              0.0149505818            0.000912862615           
       0.243480              0.0136951942            0.000869605354           
       0.244159              0.0124332786            0.000828974232           
       0.244838               0.014817251            0.000890074597           
       0.245517              0.0145193673            0.000893756214           
       0.246196              0.0146336302            0.000897698761           
       0.246875              0.0142438941            0.000873317951           
       0.247554              0.0147965943            0.000899146496           
       0.248234              0.0133544508            0.000841253513           
       0.248913              0.0150588902            0.000903347338           
       0.249592              0.0140384799            0.000863916478           
       0.250271              0.0140076327            0.000860460994           
       0.250950              0.0134254838            0.000847550646           
       0.251629              0.0148179191             0.00088285073           
       0.252309              0.0137638536            0.000852597842           
       0.252988              0.0121225492            0.000786366653           
       0.253667              0.0143283452            0.000864910057           
       0.254346              0.0134569814            0.000838025769           
       0.255025              0.0147503391            0.000875451646           
       0.255704              0.0124364939            0.000800177744           
       0.256384               0.012820978            0.000809641952           
       0.257063              0.0123541737            0.000799297312           
       0.257742              0.0126286286            0.000802527597           
       0.258421              0.0139531924            0.000841941485           
       0.259100              0.0142985935            0.000853784881           
       0.259779              0.0131676097            0.000818628698           
       0.260459              0.0124596623            0.000797881976           
       0.261138              0.0125390675            0.000784778289           
       0.261817              0.0134659326            0.000829682386           
       0.262496              0.0125563989            0.000793315614           
       0.263175              0.0130180688            0.000809503143           
       0.263854              0.0120941287            0.000776622828           
       0.264534               0.011692347            0.000757091832           
       0.265213              0.0133764057            0.000822541911           
       0.265892               0.012144271            0.000773702529           
       0.266571              0.0126260713            0.000787106799           
       0.267250              0.0119365847            0.000766603102           
       0.267929              0.0117593575            0.000760110586           
       0.268609              0.0116955392            0.000762195734           
       0.269288              0.0122000878            0.000765530808           
       0.269967              0.0111180073            0.000738667269           
       0.270646              0.0127604271            0.000787928018           
       0.271325              0.0127663807            0.000789428092           
       0.272004              0.0129193928            0.000786228547           
       0.272683              0.0126242614            0.000778156649           
       0.273363              0.0108927733            0.000727435276           
       0.274042              0.0142225961            0.000826313138           
       0.274721              0.0107942395            0.000719438517           
       0.275400              0.0115387138            0.000738909623           
       0.276079              0.0124781795            0.000772764715           
       0.276758              0.0127430748            0.000790778979           
       0.277438              0.0119898887            0.000758443049           
       0.278117              0.0127395286            0.000796009414           
       0.278796              0.0108298052            0.000726475694           
       0.279475              0.0112946188            0.000754157842           
       0.280154              0.0120036372            0.000766285337           
       0.280833              0.0121744657            0.000776411774           
       0.281513              0.0122830026            0.000792100038           
       0.282192              0.0122917457            0.000778863599           
       0.282871              0.0112562782            0.000750544137           
       0.283550              0.0106031235            0.000732346973           
       0.284229              0.0116967869            0.000780486744           
       0.284908                0.01092872              0.0007623839           
       0.285588              0.0107477479            0.000747191925           
       0.286267              0.0106180604            0.000754561704           
       0.286946              0.0101346591            0.000732391457           
       0.287625             0.00960260284            0.000725045963           
       0.288304              0.0115440129            0.000784327347           
       0.288983              0.0105902231            0.000760740834           
       0.289663             0.00977880449            0.000735294817           
       0.290342             0.00962541544            0.000725621891           
       0.291021             0.00879012269            0.000697158581           
       0.291700              0.0109016243            0.000766247181           
       0.292379              0.0105444934            0.000770846041           
       0.293058              0.0111337319            0.000789099175           
       0.293738              0.0102269776            0.000749933081           
       0.294417             0.00934765872            0.000725302322           
       0.295096              0.0108387361            0.000772424775           
       0.295775             0.00994497535            0.000751192283           
       0.296454              0.0109966946            0.000779697878           
       0.297133             0.00986258571            0.000741891618           
       0.297812              0.0097601467            0.000741730264           
       0.298492             0.00952304456            0.000734081068           
       0.299171              0.0101623115            0.000756885083           
       0.299850              0.0104581214            0.000762578824           
       0.300529              0.0100164574            0.000754709341           
       0.301208             0.00977634261            0.000747422856           
       0.301887              0.0102007789            0.000762567772           
       0.302567              0.0100967421            0.000754869445           
       0.303246              0.0108133242            0.000786297753           
       0.303925              0.0108855089            0.000799047386           
       0.304604              0.0106264068            0.000772433312           
       0.305283             0.00921804554            0.000730097739           
       0.305962              0.0111313793            0.000797451859           
       0.306642             0.00995107465            0.000764229208           
       0.307321             0.00998922762            0.000763247848           
       0.308000             0.00929956011            0.000727699849           
       0.308679             0.00971613102            0.000759927715           
       0.309358             0.00973683536            0.000750446389           
       0.310037             0.00862765523            0.000707984431           
       0.310717             0.00754880084            0.000661604207           
       0.311396             0.00835355375            0.000700644706           
       0.312075             0.00792788473            0.000691215715           
       0.312754              0.0092102485            0.000730119981           
       0.313433             0.00816502611            0.000693422788           
       0.314112             0.00949642865            0.000747652474           
       0.314792             0.00878864489            0.000724330324           
       0.315471             0.00887252761            0.000718778625           
       0.316150             0.00967380406            0.000757479674           
       0.316829              0.0071186975            0.000654080307           
       0.317508              0.0091388084            0.000732781896           
       0.318187             0.00926168657            0.000747423209           
       0.318866             0.00771003657            0.000672759094           
       0.319546             0.00832627652            0.000709607855           
       0.320225             0.00782312468            0.000687846632           
       0.320904             0.00770392071            0.000672031829           
       0.321583              0.0078903756            0.000695101808           
       0.322262             0.00710113981            0.000649428102           
       0.322941             0.00796259446            0.000696503067           
       0.323621             0.00724441482            0.000660296315           
       0.324300             0.00852689367            0.000716923635           
       0.324979             0.00783427018            0.000688432225           
       0.325658             0.00901729972            0.000739924385           
       0.326337             0.00789174078            0.000693109728           
       0.327016             0.00773594855            0.000681877577           
       0.327696             0.00863465788             0.00072840958           
       0.328375             0.00727697637            0.000663053049           
       0.329054              0.0081062952            0.000703611817           
       0.329733             0.00895842619             0.00074237086           
       0.330412             0.00790927303            0.000691831398           
       0.331091             0.00626514054            0.000626909228           
       0.331771             0.00816251365             0.00069681826           
       0.332450             0.00782206199             0.00069537536           
       0.333129             0.00680643196            0.000646988153           
       0.333808             0.00621600209            0.000619107094           
       0.334487             0.00645604555            0.000633939422           
       0.335166             0.00825433111            0.000706321479           
       0.335846             0.00730551428             0.00067616475           
       0.336525             0.00616477952            0.000615002362           
       0.337204             0.00646532644            0.000631466493           
       0.337883             0.00698004601             0.00065699115           
       0.338562             0.00737486844            0.000679064295           
       0.339241             0.00656936202            0.000642108461           
       0.339921              0.0075643079            0.000677464524           
       0.340600             0.00810552024            0.000714599205           
       0.341279              0.0061498739            0.000615785624           
       0.341958             0.00709354007            0.000670675251           
       0.342637             0.00601944559            0.000609087821           
       0.343316             0.00686814309            0.000652494574           
       0.343995             0.00627238476             0.00063376346           
       0.344675             0.00738809914            0.000675183176           
       0.345354             0.00649554221            0.000637262349           
       0.346033             0.00626897874            0.000624417931           
       0.346712             0.00654724024            0.000642197267           
       0.347391             0.00522416046            0.000577202679           
       0.348070             0.00519078368            0.000567184972           
       0.348750             0.00712350458            0.000674039785           
       0.349429             0.00557441954            0.000588566227           
       0.350108             0.00566008536            0.000600208129           
       0.350787             0.00628464672            0.000621712013           
       0.351466             0.00497685057            0.000563447629           
       0.352145             0.00594467546            0.000616311924           
       0.352825             0.00657305328            0.000645131802           
       0.353504             0.00682027439            0.000656990787           
       0.354183             0.00623909641            0.000621135862           
       0.354862              0.0056954292            0.000607246979           
       0.355541             0.00579290514            0.000604400817           
       0.356220             0.00720644818            0.000675393743           
       0.356900             0.00654943033            0.000649985708           
       0.357579             0.00608971032            0.000619073434           
       0.358258             0.00511589085            0.000575272046           
       0.358937             0.00534197046            0.000576794022           
       0.359616             0.00608472956             0.00062418498           
       0.360295             0.00583201968            0.000611594837           
       0.360975             0.00533408719            0.000582402216           
       0.361654             0.00630090734            0.000636249951           
       0.362333             0.00584745832            0.000609811856           
       0.363012             0.00556150963            0.000602366444           
       0.363691              0.0050066859            0.000560254961           
       0.364370              0.0055876002            0.000599208156           
       0.365050             0.00501716077            0.000564759961           
       0.365729             0.00531285247            0.000586705498           
       0.366408             0.00547259273            0.000596778813           
       0.367087             0.00452478184            0.000533941451           
       0.367766             0.00537849315            0.000594266227           
       0.368445             0.00424454282            0.000518544718           
       0.369124             0.00618452156            0.000630844278           
       0.369804             0.00519456277            0.000577228998           
       0.370483             0.00543497223            0.000593018678           
       0.371162             0.00569847554            0.000610744674           
       0.371841             0.00536454687            0.000582247883           
       0.372520              0.0056664066            0.000610399871           
       0.373199             0.00533180223            0.000585029361           
       0.373879             0.00466385079            0.000553493192           
       0.374558             0.00451645164            0.000536728399           
       0.375237             0.00529181472              0.0005819284           
       0.375916             0.00605480444            0.000634393235           
       0.376595             0.00504317391            0.000567660045           
       0.377274             0.00468415686            0.000555838664           
       0.377954             0.00516664195            0.000574593524           
       0.378633             0.00393190889            0.000507588963           
       0.379312             0.00452880695            0.000544618888           
       0.379991             0.00428873304            0.000527243993           
       0.380670             0.00410742854            0.000525098933           
       0.381349             0.00444699347            0.000538528172           
       0.382029             0.00410480908            0.000524807688           
       0.382708             0.00302077037            0.000440375991           
       0.383387             0.00430219012            0.000537454641           
       0.384066             0.00434566857            0.000535207379           
       0.384745             0.00419037431            0.000527623463           
       0.385424             0.00415877865            0.000527415807           
       0.386104             0.00341797801            0.000472855848           
       0.386783             0.00411184014            0.000529853526           
       0.387462             0.00422030896            0.000523442867           
       0.388141             0.00315816874            0.000460040889           
       0.388820             0.00357277728              0.0004857703           
       0.389499             0.00449089575            0.000547687067           
       0.390178             0.00358811966            0.000491502213           
       0.390858             0.00463202855            0.000553922699           
       0.391537             0.00636464125            0.000655937913           
       0.392216             0.00408707842            0.000519044178           
       0.392895             0.00399692464            0.000515016863           
       0.393574             0.00428221439            0.000531758968           
       0.394253             0.00398837817            0.000515499416           
       0.394933             0.00417601982            0.000533514137           
       0.395612             0.00372988932            0.000489565314           
       0.396291             0.00382840022            0.000506085857           
       0.396970             0.00466607979            0.000553766467           
       0.397649             0.00490302791            0.000569400483           
       0.398328             0.00414248051            0.000521077984           
       0.399008             0.00345722097            0.000474997348           
       0.399687             0.00520988024            0.000585365559           
       0.400366              0.0033335116            0.000466444536           
       0.401045             0.00454013421            0.000543327227           
       0.401724             0.00430249269            0.000529799459           
       0.402403             0.00344804761            0.000477980156           
       0.403083             0.00464410923            0.000546721934           
       0.403762             0.00371005495            0.000491068151           
       0.404441             0.00454773516            0.000547150049           
       0.405120             0.00438927954            0.000535770724           
       0.405799             0.00362867449            0.000485026586           
       0.406478             0.00343303688            0.000471782341           
       0.407158             0.00406241008            0.000512245901           
       0.407837             0.00426620021            0.000529570344           
       0.408516              0.0032937695            0.000461269778           
       0.409195             0.00407868823            0.000519119727           
       0.409874             0.00359459042            0.000494120387           
       0.410553             0.00333987205             0.00048141421           
       0.411233             0.00439290224            0.000549254449           
       0.411912             0.00412022106            0.000539471445           
       0.412591              0.0029479223            0.000459336582           
       0.413270             0.00251987627            0.000422663229           
       0.413949             0.00337643695            0.000494597421           
       0.414628             0.00372588418            0.000518628941           
       0.415307              0.0029196001            0.000464203031           
       0.415987             0.00322445446            0.000483816589           
       0.416666             0.00289931761            0.000456015575           
       0.417345             0.00271141809            0.000448355527           
       0.418024             0.00294389695            0.000467193345           
       0.418703             0.00337171924            0.000499071152           
       0.419382             0.00385629026             0.00053111453           
       0.420062             0.00283455338             0.00045662611           
       0.420741             0.00278850582            0.000455310509           
       0.421420              0.0031263493            0.000483932281           
       0.422099              0.0028964572            0.000465812017           
       0.422778             0.00300876556            0.000477327877           
       0.423457             0.00281861377             0.00046482611           
       0.424137             0.00293824415            0.000466853706           
       0.424816             0.00231409398            0.000422970678           
       0.425495             0.00322563202             0.00049890302           
       0.426174             0.00298627039            0.000480203507           
       0.426853             0.00287495895            0.000468306867           
       0.427532             0.00268649456            0.000456524494           
       0.428212             0.00290065042            0.000477503151           
       0.428891             0.00240841301            0.000434115309           
       0.429570             0.00242317403            0.000435741341           
       0.430249             0.00254357135            0.000444117325           
       0.430928              0.0031598742            0.000505830693           
       0.431607             0.00242048969            0.000435105764           
       0.432287             0.00189988394            0.000388307634           
       0.432966              0.0021647814            0.000418141023           
       0.433645              0.0019524967            0.000397524773           
       0.434324             0.00191953052            0.000391778626           
       0.435003             0.00184079603            0.000384314869           
       0.435682              0.0013970612            0.000337551043           
       0.436361             0.00219420926            0.000422463441           
       0.437041              0.0016236338            0.000362922743           
       0.437720              0.0021292015            0.000417607473           
       0.438399             0.00165855822            0.000370497792           
       0.439078             0.00283372405            0.000498326069           
       0.439757             0.00183144116            0.000398150795           
       0.440436             0.00338817241            0.000553748683           
       0.441116             0.00302539616            0.000531820677           
       0.441795             0.00220163575            0.000454223656           
       0.442474             0.00249277353             0.00048467179           
       0.443153             0.00234242239            0.000480788951           
       0.443832             0.00195767795            0.000440274892           
       0.444511             0.00193523133            0.000435771139           
       0.445191              0.0023510204            0.000491991081           
       0.445870             0.00142690295            0.000383299374           
       0.446549             0.00189199881            0.000446022756           
       0.447228             0.00194466233            0.000449632506           
       0.447907             0.00244517414            0.000510235567           
       0.448586             0.00235424208            0.000512704636           
       0.449266             0.00208395776             0.00047793949           
       0.449945             0.00260738484            0.000532421999           
       0.450624             0.00307914014            0.000587774476           
       0.451303             0.00221973695            0.000505522195           
       0.451982             0.00184599842            0.000458154583           
       0.452661             0.00156815244            0.000430137206           
       0.453341               0.002055694            0.000494209855           
       0.454020             0.00290644331            0.000588537869           
       0.454699             0.00246832352            0.000547322166           
       0.455378             0.00124216569            0.000388476509           
       0.456057             0.00268176169            0.000580952905           
       0.456736             0.00206208363            0.000507840793           
       0.457416             0.00278936059            0.000590662104           
       0.458095             0.00147654171            0.000435963083           
       0.458774             0.00087007895            0.000339084637           
       0.459453             0.00101631228            0.000368321629           
       0.460132             0.00133917797            0.000413667094           
       0.460811             0.00145406448            0.000447128192           
       0.461490             0.00169511578            0.000477859597           
       0.462170             0.00176942608            0.000495840323           
       0.462849             0.00107903586            0.000389718721           
       0.463528            0.000927966958            0.000360571429           
       0.464207             0.00199997658            0.000539248013           
       0.464886             0.00110025381            0.000396851116           
       0.465565             0.00186845735            0.000522838461           
       0.466245               0.001300854            0.000437608538           
       0.466924             0.00198990522             0.00055402231           
       0.467603             0.00145205911            0.000463225393           
       0.468282             0.00184335485            0.000534297264           
       0.468961             0.00125132282            0.000443105188           
       0.469640             0.00203281277            0.000567022037           
       0.470320             0.00267753587            0.000651206857           
       0.470999             0.00176597679            0.000533851974           
       0.471678             0.00182433776            0.000547817009           
       0.472357            0.000834553528            0.000371552959           
       0.473036            0.000845193198            0.000376274094           
       0.473715             0.00155363514            0.000514144318           
       0.474395            0.000548538296            0.000309724962           
       0.475074            0.000903725283            0.000397560838           
       0.475753             0.00155579998            0.000517128635           
       0.476432            0.000580230425             0.00032730441           
       0.477111             0.00093529612            0.000410527544           
       0.477790             0.00168198576            0.000553468796           
       0.478470             0.00206827633            0.000621858926           
       0.479149            0.000805266002            0.000392036245           
       0.479828            0.000995041534            0.000434763998           
       0.480507             0.00160625922             0.00055683707           
       0.481186            0.000268528609            0.000232807466           
       0.481865            0.000252713755            0.000223051168           
       0.482545            0.000678633567            0.000369810597           
       0.483224            8.33575235e-05            0.000130494298           
       0.483903             0.00114534529            0.000491331849           
       0.484582             0.00011481811            0.000158094777           
       0.485261             0.00151076831            0.000558941456           
       0.485940            0.000776522458            0.000416888522           
       0.486619            0.000540611791             0.00034401854           
       0.487299           -0.000102568479                         0           
       0.487978            0.000340051711            0.000274367673           
       0.488657            -8.0610542e-05                         0           
       0.489336            0.000146615076            0.000184301649           
       0.490015            0.000153263256             0.00018991471           
       0.490694           -0.000319985041                         0           
       0.491374           -0.000320004329                         0           
       0.492053           -0.000320023818                         0           
       0.492732           -6.98306495e-05                         0           
       0.493411           -0.000320062775                         0           
       0.494090           -0.000320082508                         0           
       0.494769            0.000216498776            0.000241185493           
       0.495449           -6.66812565e-05                         0           
       0.496128           -0.000320141167                         0           
       0.496807           -3.79047768e-05                         0           
       0.497486           -0.000320180283                         0           
       0.498165           -0.000320200214                         0           
       0.498844           -3.63362014e-05                         0           
       0.499524           -0.000320239567                         0           
       0.500203           -3.35725818e-05                         0           
       0.500882           -0.000320279243                         0           
       0.501561            0.000289523794            0.000295341951           
       0.502240           -2.13688677e-05                         0           
       0.502919             -5.546101e-06                         0           
       0.503599           -0.000320358747                         0           
       0.504278           -0.000320378985                         0           
       0.504957            0.000633216948            0.000451246872           
       0.505636            1.10324097e-05            5.99676603e-05           
       0.506315            0.000340475912            0.000334515522           
       0.506994            1.88070638e-05            7.99477232e-05           
       0.507673            -0.00032047869                         0           
       0.508353           -0.000320498905                         0           
       0.509032           -0.000320519033                         0           
       0.509711            -0.00032053917                         0           
       0.510390           -0.000320559622                         0           
       0.511069            0.000405878871            0.000384199026           
       0.511748            3.96155652e-05            0.000120768282           
       0.512428           -0.000320620759                         0           
       0.513107           -0.000320640892                         0           
       0.513786           -0.000320661089                         0           
       0.514465            -0.00032068163                         0           
       0.515144           -0.000320702156                         0           
       0.515823           -0.000320722496                         0           
       0.516503           -0.000320743027                         0           
       0.517182           -0.000320763556                         0           
       0.517861           -0.000320784035                         0           
       0.518540           -0.000320804629                         0           
       0.519219           -0.000320825104                         0           
       0.519898            0.000143513813            0.000258985381           
       0.520578           -0.000320866593                         0           
       0.521257           -0.000320887131                         0           
       0.521936            0.000135180854             0.00024944466           
       0.522615           -0.000320928551                         0           
       0.523294           -0.000320949462                         0           
       0.523973           -0.000320970084                         0           
       0.524653            0.000201043881            0.000323394298           
       0.525332           -0.000321011329                         0           
       0.526011            0.000192668074            0.000315923664           
       0.526690            0.000160174127            0.000280316517           
       0.527369           -0.000321074508                         0           
       0.528048           -0.000321095588                         0           
       0.528728           -0.000321116642                         0           
       0.529407           -0.000321137599                         0           
       0.530086           -0.000321158448                         0           
       0.530765           -0.000321179327                         0           
       0.531444            -0.00032120043                         0           
       0.532123           -0.000321221907                         0           
       0.532802           -0.000321243209                         0           
       0.533482           -0.000321264438                         0           
       0.534161           -0.000321285702                         0           
       0.534840            0.000274476035             0.00040229429           
       0.535519           -0.000321328254                         0           
       0.536198           -0.000321349503                         0           
       0.536877           -0.000321370459                         0           
       0.537557           -0.000321391776                         0           
       0.538236            0.000322799372            0.000458204319           
       0.538915           -0.000321434786                         0           
       0.539594           -0.000321456258                         0           
       0.540273           -0.000321478066                         0           
       0.540952             0.00167555346             0.00105264148           
       0.541632           -0.000321520801                         0           
       0.542311           -0.000321542166                         0           
       0.542990            -0.00032156377                         0           
       0.543669           -0.000321585555                         0           
       0.544348           -0.000321607314                         0           
       0.545027           -0.000321629026                         0           
       0.545707           -0.000321650803                         0           
       0.546386             0.00039248231             0.00053040701           
       0.547065           -0.000321694218                         0           
       0.547744           -0.000321715893                         0           
       0.548423           -0.000321737806                         0           
       0.549102           -0.000321759742                         0           
       0.549782           -0.000321781567                         0           
       0.550461           -0.000321803651                         0           
       0.551140           -0.000321825868                         0           
       0.551819           -0.000321847823                         0           
       0.552498             0.00131962557             0.00104360452           
       0.553177            0.000519724318            0.000664116155           
       0.553856             0.00144562747             0.00114450793           
       0.554536            -0.00032193548                         0           
       0.555215           -0.000321957726                         0           
       0.555894            -0.00032197992                         0           
       0.556573            0.000637695143            0.000784201716           
       0.557252           -0.000322024552                         0           
       0.557931           -0.000322046758                         0           
       0.558611           -0.000322069483                         0           
       0.559290           -0.000322091631                         0           
       0.559969           -0.000322113233                         0           
       0.560648           -0.000322135408                         0           
       0.561327           -0.000322158077                         0           
       0.562006           -0.000322180642                         0           
       0.562686           -0.000322203218                         0           
       0.563365           -0.000322225878                         0           
       0.564044           -0.000322248424                         0           
       0.564723            -0.00032227092                         0           
       0.565402           -0.000322292997                         0           
       0.566081            0.000963096383             0.00111784245           
       0.566761            0.000802489256            0.000955804368           
       0.567440             0.00107311391              0.0012271325           
       0.568119            -0.00032238334                         0           
       0.568798           -0.000322406398                         0           
       0.569477           -0.000322429308                         0           
       0.570156           -0.000322452329                         0           
       0.570836           -0.000322475263                         0           
       0.571515           -0.000322497712                         0           
       0.572194           -0.000322520813                         0           
       0.572873           -0.000322543384                         0           
       0.573552           -0.000322565823                         0           
       0.574231           -0.000322588717                         0           
       0.574911           -0.000322612188                         0           
       0.575590           -0.000322635207                         0           
       0.576269           -0.000322658156                         0           
       0.576948           -0.000322681546                         0           
       0.577627           -0.000322704223                         0           
       0.578306           -0.000322727219                         0           
       0.578985           -0.000322750412                         0           
       0.579665           -0.000322773471                         0           
       0.580344            -0.00032279688                         0           
       0.581023           -0.000322820263                         0           
       0.581702           -0.000322843429                         0           
       0.582381           -0.000322866386                         0           
       0.583060           -0.000322890027                         0           
       0.583740             0.00247892605             0.00263989901           
       0.584419           -0.000322936644                         0           
       0.585098           -0.000322959963                         0           
       0.585777           -0.000322983464                         0           
       0.586456           -0.000323007347                         0           
       0.587135           -0.000323030595                         0           
       0.587815           -0.000323053592                         0           
       0.588494           -0.000323077306                         0           
       0.589173           -0.000323101565                         0           
       0.589852           -0.000323124534                         0           
       0.590531           -0.000323148369                         0           
       0.591210           -0.000323171655                         0           
       0.591890            -0.00032319539                         0           
       0.592569           -0.000323218331                         0           
       0.593248           -0.000323243412                         0           
       0.593927           -0.000323267259                         0           
       0.594606           -0.000323291596                         0           
       0.595285           -0.000323314483                         0           
       0.595965            -0.00032333584                         0           
       0.596644           -0.000323357817                         0           
