################################################################################
# EDF_DataBlockID                     0.Image.Psd
# EDF_BinarySize                      2105344
# EDF_HeaderSize                      2560
# ByteOrder                           LowByteFirst
# DataType                            FloatValue
# Dim_1                               512
# Dim_2                               1028
# Image                               0
# HeaderID                            EH:000000:000000:000000
# Size                                2105344
# Center_1                            304.9000
# Center_2                            588.7000
# Comment                             Xenocs_Cell_Window - 20251028_20perc_iodine_1.23mg
# DDummy                              0.6
# Date                                2025-10-30T18:50:00
# Delta                               21.910000
# Dummy                               -1.5
# ExposureTime                        360
# Gamma                               15.360000
# Intensity1                          8.48065e-10
# PSize_1                             7.5e-05
# PSize_2                             7.5e-05
# Pressure                            0.0327291
# SampleDistance                      0.115750
# SampleEnvKind                       large
# SampleEnvPN                         ElectroChemical cell
# SampleEnvSN                         1141
# Thickness                           0
# Wavelength                          1.541891e-10
# Wavelength                          1.54189e-10
# aux                                 0
# aux_dial                            0.002375
# beamx                               588.434
# beamx_dial                          588.434
# beamz                               657.808
# beamz_dial                          657.808
# det0x                               0
# det0x_dial                          6.36945
# det0xvd                             0
# det0xvd_dial                        0
# det0y                               450.002
# det0y_dial                          481.635
# det0z                               0
# det0z_dial                          1.23302
# det0zvd                             0
# det0zvd_dial                        0
# mag                                 1.818
# mag_dial                            1.818
# om                                  0.2499
# om_dial                             -0.610199
# phi                                 -0.0120535
# phi_dial                            0
# ry                                  0.599993
# ry_dial                             0.599993
# s1bot                               0.8
# s1bot_dial                          -1.66094
# s1hl                                0.8
# s1hl_dial                           -0.608437
# s1hr                                0.8
# s1hr_dial                           0.970938
# s1top                               0.8
# s1top_dial                          -0.461562
# s2bot                               0.45
# s2bot_dial                          1.36109
# s2hl                                0.45
# s2hl_dial                           -0.83375
# s2hr                                0.45
# s2hr_dial                           -0.118594
# s2top                               0.45
# s2top_dial                          1.44734
# w2theta                             32
# w2theta_dial                        32
# waxsch                              19.2605
# waxsch_dial                         -32.7355
# waxsh                               137.085
# waxsh_dial                          -43.5338
# waxsth                              26.0607
# waxsth_dial                         -19.4086
# waxsz                               67.0407
# waxsz_dial                          -23.7954
# wind                                65.9854
# wind_dial                           66.0041
# wpsi                                124
# wpsi_dial                           124
# wstod                               115
# wstod_dial                          115
# x                                   0
# x_dial                              1.00969
# z                                   0
# z_dial                              13.3172
# CountCutoff                         6807993
# DetectorModel                       Dectris EIGER2 Si 500K, S/N E-01-0554
# ThresholdSetting                    4023.88989258
# Saturation                          0
# FlatField                           Corrected
# BackgroundReductionExtra            0.02
# BackgroundCorrectionConstant        0.0026712
# Detector                            0
# Monitor                             0
# Pil_Roi0                            0
# SumForIntensity1                    3.05303e+08
# TransmittedFlux                     848065
# det                                 0
# mon                                 0
# pilai0                              3.05303e+08
# pilai1                              776028
# pilct0                              5.28516e+08
# pilct1                              776028
# pilroi0                             0
# pilroi1                             0
# sec                                 1
# title                               20251028_20perc_iodine_1.23mg_1_00477.edf
# usaxs0                              0
# Operation                           Azimuthal average I(q)
# Error_model                         ErrorModel.poisson
# Geometrical_correction              True
# Transmission_correction             True
# Thickness_correction                False
# Binning mode                        Uniform
# Binning factor                      1.0
# Psi                                 0.0
# Omega                               0.2499
# MaskInvalidPixels                   True
# DetectorEdge                        3
# MaskFiles                           ['WAXS_corrected.edf']
################################################################################
    q(A⁻¹)                Intensity(a.u.)            Sigma_I(a.u.)            
       0.693100              0.0167049604              0.0086521138           
       0.695741             0.00276953028             0.00287481748           
       0.698381             0.00420637335             0.00433984265           
       0.701021              0.0178005098              0.0126208464           
       0.703662             0.00281897953              0.0028990632           
       0.706302             0.00692403594             0.00351761685           
       0.708942             0.00870570856             0.00509086985           
       0.711583              0.0133902692             0.00546726821           
       0.714223             0.00880914878             0.00511967765           
       0.716864               0.011421624             0.00381426057           
       0.719504              0.0073727675             0.00330696466           
       0.722144             0.00758615736             0.00310650478           
       0.724785             0.00402303518             0.00180455208           
       0.727425             0.00886520275             0.00362390572           
       0.730065                0.01028777             0.00276143226           
       0.732706             0.00408823501             0.00146180836           
       0.735346             0.00794615675             0.00265659402           
       0.737987             0.00475441977              0.0014520864           
       0.740627             0.00391447467              0.0019659249           
       0.743267             0.00706725331             0.00176928449           
       0.745908             0.00624709177             0.00180476229           
       0.748548             0.00574132162             0.00159478241           
       0.751189             0.00559238211              0.0021208524           
       0.753829             0.00884346294             0.00245159266           
       0.756469             0.00353151229             0.00124925427           
       0.759110             0.00537765792              0.0016245669           
       0.761750             0.00686510099             0.00162302475           
       0.764390             0.00419003363             0.00132713743           
       0.767031             0.00786777615             0.00157482501           
       0.769671             0.00787334061             0.00196517154           
       0.772312             0.00767493878             0.00147709952           
       0.774952              0.0103650586             0.00231802381           
       0.777592             0.00739606925             0.00142623039           
       0.780233             0.00514802663             0.00143559972           
       0.782873             0.00511345638             0.00136839942           
       0.785513             0.00751988738              0.0017740467           
       0.788154             0.00846130365             0.00157420718           
       0.790794             0.00749673641             0.00177148878           
       0.793435             0.00672780369             0.00150761052           
       0.796075             0.00782431828             0.00156618089           
       0.798715             0.00916720606             0.00200331807           
       0.801356             0.00512414085             0.00128907402           
       0.803996             0.00567111801             0.00138259309           
       0.806637             0.00702436067             0.00122454757           
       0.809277             0.00725652178             0.00134715587           
       0.811917             0.00457202968             0.00099964492           
       0.814558              0.0079804811              0.0013726368           
       0.817198              0.0063971881             0.00116756401           
       0.819838             0.00780923259             0.00130557712           
       0.822479              0.0093352101             0.00167621414           
       0.825119             0.00933874525              0.0014269391           
       0.827760             0.00783882952             0.00132427939           
       0.830400             0.00552681553             0.00104656619           
       0.833040             0.00715124946             0.00124725094           
       0.835681             0.00476108866              0.0011569407           
       0.838321             0.00770531724             0.00123534125           
       0.840961             0.00538429266             0.00112512818           
       0.843602             0.00886895568             0.00132422748           
       0.846242             0.00628846944             0.00111489521           
       0.848883             0.00953662159             0.00140503008           
       0.851523             0.00706860329             0.00119461131           
       0.854163             0.00683202833             0.00124897521           
       0.856804             0.00663147217             0.00110639423           
       0.859444              0.0079798442             0.00118916625           
       0.862085             0.00942373721             0.00134688026           
       0.864725             0.00888059533             0.00133808128           
       0.867365             0.00815478283             0.00118900465           
       0.870006             0.00801062975             0.00112297106           
       0.872646             0.00883845558             0.00123694156           
       0.875286             0.00862517677             0.00117556866           
       0.877927             0.00820014615             0.00110606621           
       0.880567             0.00479383188            0.000876153095           
       0.883208             0.00832720031             0.00114387157           
       0.885848             0.00908963421             0.00124086405           
       0.888488             0.00816227941             0.00110288692           
       0.891129              0.0071918461             0.00106298622           
       0.893769             0.00617979691             0.00094301431           
       0.896410              0.0077410004            0.000984031251           
       0.899050             0.00709981059             0.00103638009           
       0.901690             0.00806303266             0.00120306373           
       0.904331             0.00805778301             0.00106623497           
       0.906971             0.00622338276            0.000996856814           
       0.909611             0.00805645892             0.00103248973           
       0.912252             0.00634245042            0.000946233559           
       0.914892             0.00708300093             0.00109273262           
       0.917533              0.0055497241            0.000915019635           
       0.920173              0.0080122647             0.00102006611           
       0.922813             0.00783935509             0.00105883105           
       0.925454             0.00811741857            0.000970210338           
       0.928094              0.0076357927             0.00100458382           
       0.930734             0.00810397495             0.00111420937           
       0.933375             0.00791579312             0.00109037144           
       0.936015             0.00617860589            0.000874904456           
       0.938656             0.00986843074             0.00118616063           
       0.941296              0.0069068647            0.000899332116           
       0.943936             0.00776564004            0.000935156947           
       0.946577              0.0087654154            0.000986964209           
       0.949217             0.00561890612            0.000726667285           
       0.951858             0.00813252656            0.000915137505           
       0.954498             0.00677652952            0.000966922465           
       0.957138             0.00816967457             0.00100578891           
       0.959779             0.00624602948            0.000866947611           
       0.962419             0.00616125891            0.000855317061           
       0.965059             0.00825774242             0.00104143167           
       0.967700             0.00795404539             0.00104683506           
       0.970340              0.0090425188             0.00098769678           
       0.972981             0.00643336712            0.000759035715           
       0.975621             0.00933803725            0.000972841601           
       0.978261             0.00621150627            0.000753905283           
       0.980902             0.00795237207              0.0010206134           
       0.983542             0.00687571964            0.000840412545           
       0.986182             0.00812459654            0.000896921964           
       0.988823             0.00653221738            0.000780915561           
       0.991463             0.00891814786             0.00097349348           
       0.994104             0.00707265284            0.000845709118           
       0.996744             0.00884887397            0.000964874023           
       0.999384             0.00799295485            0.000820125439           
       1.002025             0.00965768996             0.00100618731           
       1.004665             0.00885828611            0.000880652272           
       1.007306             0.00892365885            0.000879371569           
       1.009946             0.00630142074            0.000753634512           
       1.012586             0.00709533661            0.000778862399           
       1.015227             0.00707842871            0.000835744497           
       1.017867             0.00839608098            0.000874778383           
       1.020507             0.00778153318            0.000815742106           
       1.023148             0.00685338802            0.000826048227           
       1.025788             0.00760373352            0.000797807611           
       1.028429              0.0071594718            0.000811049639           
       1.031069             0.00731667056            0.000771562405           
       1.033709             0.00825903513            0.000871391332           
       1.036350             0.00882027809            0.000808783281           
       1.038990             0.00929730266            0.000845625031           
       1.041630             0.00677872881            0.000753116204           
       1.044271             0.00842718861            0.000789716562           
       1.046911             0.00901494016            0.000859158312           
       1.049552                0.01067147             0.00098209252           
       1.052192             0.00747508193            0.000750549481           
       1.054832             0.00875012261             0.00081942889           
       1.057473              0.0081260621            0.000778445447           
       1.060113             0.00737301985            0.000723163565           
       1.062754              0.0088767435            0.000810137831           
       1.065394              0.0100844964            0.000912936079           
       1.068034             0.00773191579            0.000727332122           
       1.070675             0.00752207509            0.000748330602           
       1.073315             0.00903615947            0.000831950455           
       1.075955             0.00853461009            0.000763300693           
       1.078596             0.00807784365            0.000789230281           
       1.081236             0.00939896255            0.000815200356           
       1.083877             0.00930821777            0.000803978053           
       1.086517             0.00923731213            0.000858809942           
       1.089157             0.00945453631            0.000901528312           
       1.091798             0.00929803157            0.000783815652           
       1.094438             0.00918990428            0.000776729746           
       1.097078               0.010327712            0.000789737255           
       1.099719             0.00905456773            0.000799838571           
       1.102359             0.00936372569            0.000761738932           
       1.105000             0.00922267786            0.000845333014           
       1.107640             0.00906886863            0.000801507561           
       1.110280             0.00813145423            0.000692487201           
       1.112921             0.00837149891            0.000754781002           
       1.115561             0.00912151499            0.000748801491           
       1.118202             0.00775544844            0.000691107648           
       1.120842             0.00767506766            0.000722584664           
       1.123482             0.00842627989             0.00075381467           
       1.126123             0.00837074786             0.00072064811           
       1.128763             0.00954883544            0.000774968099           
       1.131403             0.00897537437            0.000723977767           
       1.134044             0.00792605766            0.000700074019           
       1.136684             0.00809365277            0.000754250266           
       1.139325             0.00923946624            0.000742369341           
       1.141965             0.00863375815            0.000722367415           
       1.144605             0.00939697589            0.000718578649           
       1.147246             0.00845658347            0.000697635969           
       1.149886             0.00838823994            0.000692344668           
       1.152527             0.00823003639            0.000695757407           
       1.155167             0.00862038161            0.000677283154           
       1.157807             0.00935397947            0.000756436005           
       1.160448             0.00882196816            0.000717365296           
       1.163088             0.00784500918            0.000645261462           
       1.165728             0.00799654229            0.000668869937           
       1.168369              0.0111034434            0.000795450657           
       1.171009             0.00933709567             0.00070790293           
       1.173650             0.00993667979            0.000749439756           
       1.176290              0.0102644081            0.000744350191           
       1.178930             0.00928459028            0.000693838097           
       1.181571             0.00916795747            0.000703138701           
       1.184211             0.00883888829            0.000692852249           
       1.186851             0.00975768814            0.000711728716           
       1.189492             0.00949185237            0.000697244203           
       1.192132             0.00944568721            0.000687742512           
       1.194773              0.0102688549            0.000720217238           
       1.197413             0.00933017182            0.000657774465           
       1.200053              0.0100407475            0.000699700385           
       1.202694             0.00930224268            0.000640438318           
       1.205334             0.00968391489            0.000704209057           
       1.207975              0.0110467256            0.000717929292           
       1.210615             0.00957765204            0.000737457206           
       1.213255             0.00959650968            0.000661025747           
       1.215896             0.00952696524            0.000670559858           
       1.218536              0.0100140539            0.000661049287           
       1.221176             0.00963505638             0.00070496494           
       1.223817              0.0103044944             0.00068436596           
       1.226457             0.00954495677             0.00067193071           
       1.229098              0.0105910181            0.000707758681           
       1.231738             0.00892714471             0.00065298745           
       1.234378             0.00988972212            0.000645813095           
       1.237019             0.00992415806            0.000666661914           
       1.239659             0.00994133937            0.000661426424           
       1.242299              0.0101526932             0.00065992807           
       1.244940              0.0109756107            0.000667325816           
       1.247580              0.0107218829            0.000679738023           
       1.250221             0.00978640603             0.00064540094           
       1.252861             0.00948414489            0.000604861872           
       1.255501              0.0104532171            0.000689501931           
       1.258142              0.0107491124            0.000657016863           
       1.260782              0.0105569906            0.000665207295           
       1.263423                0.01013731            0.000626355032           
       1.266063              0.0118656501             0.00069457108           
       1.268703              0.0110485813            0.000664668887           
       1.271344              0.0104658118             0.00066882607           
       1.273984              0.0101174379            0.000635112169           
       1.276624              0.0119303273            0.000676713497           
       1.279265              0.0113877558            0.000672125918           
       1.281905              0.0103417583            0.000643356899           
       1.284546              0.0094942251            0.000595836547           
       1.287186              0.0107874634            0.000623121913           
       1.289826             0.00975367255            0.000624459554           
       1.292467              0.0108231077            0.000643314895           
       1.295107              0.0107108196            0.000633611851           
       1.297747              0.0108223305            0.000609461926           
       1.300388              0.0106351921            0.000658621111           
       1.303028              0.0103261374            0.000619556137           
       1.305669              0.0103872372            0.000636182171           
       1.308309              0.0107669923            0.000641328725           
       1.310949              0.0100760896            0.000619787526           
       1.313590              0.0106286684            0.000616657456           
       1.316230              0.0106500283            0.000658720033           
       1.318871              0.0110064253            0.000655841107           
       1.321511              0.0108780871            0.000639921127           
       1.324151              0.0108355302            0.000619733999           
       1.326792             0.00988761103            0.000595665767           
       1.329432              0.0111583005             0.00062831928           
       1.332072              0.0108747249             0.00061103976           
       1.334713               0.010513447            0.000620089467           
       1.337353              0.0103035716            0.000588712594           
       1.339994              0.0112072014            0.000644316473           
       1.342634              0.0105436727            0.000599289638           
       1.345274              0.0117059962            0.000653500489           
       1.347915              0.0119270703            0.000641426538           
       1.350555              0.0122475619            0.000661371052           
       1.353195              0.0111807029            0.000635013163           
       1.355836              0.0107924369             0.00061416148           
       1.358476               0.011364438            0.000612045807           
       1.361117              0.0109434101            0.000601425717           
       1.363757               0.011290168            0.000629532879           
       1.366397              0.0112604755            0.000609679155           
       1.369038              0.0124589717            0.000647689806           
       1.371678              0.0114924088            0.000616574778           
       1.374319               0.011528611            0.000612227556           
       1.376959              0.0100935654            0.000567096636           
       1.379599              0.0106313912            0.000623737572           
       1.382240              0.0116643618            0.000614038839           
       1.384880              0.0116341181            0.000649562909           
       1.387520              0.0105704229             0.00058803234           
       1.390161              0.0103100281            0.000551567574           
       1.392801               0.011519114            0.000607443178           
       1.395442              0.0118880288            0.000625521687           
       1.398082              0.0111111152            0.000566309499           
       1.400722              0.0105702658            0.000578578762           
       1.403363              0.0106484564            0.000611272836           
       1.406003              0.0113622889            0.000590932949           
       1.408644              0.0121949931            0.000641323364           
       1.411284               0.011276395            0.000583956787           
       1.413924              0.0114861317            0.000587177533           
       1.416565              0.0101412143              0.0005495639           
       1.419205              0.0104031187             0.00058063838           
       1.421845              0.0113269057            0.000605514462           
       1.424486               0.010850443            0.000569665433           
       1.427126              0.0118129677             0.00061746216           
       1.429767              0.0111568836            0.000564593415           
       1.432407              0.0118215431            0.000608205536           
       1.435047               0.010533904            0.000539200536           
       1.437688              0.0110097359            0.000559486336           
       1.440328              0.0111894922            0.000575661255           
       1.442968              0.0116808894            0.000601343985           
       1.445609              0.0115417648            0.000578789822           
       1.448249              0.0107119968            0.000571714409           
       1.450890              0.0100451138            0.000550018675           
       1.453530              0.0104276009            0.000586283121           
       1.456170              0.0102716462            0.000564730512           
       1.458811              0.0106567734            0.000550037741           
       1.461451              0.0116024429            0.000575429489           
       1.464092               0.011245555            0.000570214084           
       1.466732              0.0106566923            0.000550314018           
       1.469372              0.0113196211            0.000553899104           
       1.472013              0.0117504213            0.000608652813           
       1.474653              0.0106483675            0.000570469821           
       1.477293              0.0119040965            0.000615882309           
       1.479934              0.0121138987            0.000592836513           
       1.482574              0.0112874125            0.000553568041           
       1.485215                0.01088102            0.000553634371           
       1.487855              0.0108335171            0.000559711949           
       1.490495              0.0113817129             0.00057158554           
       1.493136              0.0113555799            0.000563103312           
       1.495776              0.0112503219             0.00055793537           
       1.498416              0.0112063189            0.000575061512           
       1.501057              0.0103425231            0.000540278659           
       1.503697              0.0107822618            0.000539320746           
       1.506338              0.0110150793             0.00055507344           
       1.508978              0.0113976271            0.000559077137           
       1.511618               0.010464627            0.000570524116           
       1.514259              0.0111370897             0.00056823659           
       1.516899              0.0105392038            0.000538218177           
       1.519540              0.0108953402             0.00055606084           
       1.522180              0.0110761403            0.000565580639           
       1.524820              0.0111312295            0.000563804351           
       1.527461             0.00985899507            0.000533231459           
       1.530101              0.0107438654            0.000551079738           
       1.532741              0.0105264325              0.0005423093           
       1.535382              0.0105302142            0.000551138788           
       1.538022              0.0103830722            0.000515561668           
       1.540663              0.0110985662            0.000573305981           
       1.543303              0.0110473747            0.000531094882           
       1.545943              0.0100440345             0.00053599068           
       1.548584               0.011359654            0.000580246329           
       1.551224             0.00980008283            0.000498305903           
       1.553864              0.0108611619            0.000554326461           
       1.556505             0.00996821237            0.000513008868           
       1.559145              0.0109329757             0.00054384253           
       1.561786              0.0108140485            0.000541293084           
       1.564426              0.0103210855            0.000512363419           
       1.567066              0.0104458456            0.000540093483           
       1.569707             0.00971112793            0.000511398867           
       1.572347             0.00970819705            0.000528246425           
       1.574988             0.00982978322            0.000505940795           
       1.577628             0.00972601342            0.000524779412           
       1.580268             0.00986929184            0.000512186814           
       1.582909             0.00994176928            0.000544887456           
       1.585549             0.00899838245            0.000503340791           
       1.588189              0.0101213428             0.00052217414           
       1.590830             0.00940172118            0.000502637109           
       1.593470             0.00943394539            0.000523434201           
       1.596111             0.00888149244            0.000495845551           
       1.598751             0.00906219738             0.00048532086           
       1.601391             0.00940684991            0.000505372808           
       1.604032             0.00995432565            0.000530739104           
       1.606672             0.00922049562            0.000496292303           
       1.609312             0.00906681447            0.000513735547           
       1.611953             0.00916722033            0.000505498165           
       1.614593             0.00893511162            0.000489536056           
       1.617234             0.00851219552            0.000495191459           
       1.619874             0.00991421323            0.000532307403           
       1.622514             0.00854976511            0.000487579316           
       1.625155             0.00865224954            0.000493390457           
       1.627795              0.0089573592              0.0004897142           
       1.630436             0.00953020548            0.000502493157           
       1.633076             0.00937656285            0.000504963248           
       1.635716             0.00922685503            0.000493122038           
       1.638357             0.00940033712            0.000499048213           
       1.640997              0.0095564827            0.000518418116           
       1.643637             0.00948282014            0.000502531203           
       1.646278             0.00987588668            0.000528954012           
       1.648918             0.00882927218            0.000501505193           
       1.651559             0.00950959329            0.000524507506           
       1.654199             0.00895011813            0.000494896012           
       1.656839             0.00914742179            0.000500495865           
       1.659480              0.0084589748            0.000499366983           
       1.662120             0.00975743706            0.000505130724           
       1.664761             0.00920345098            0.000509587657           
       1.667401             0.00946505284            0.000493930315           
       1.670041             0.00863209698            0.000478888435           
       1.672682             0.00885073368            0.000482922151           
       1.675322             0.00888070282            0.000480628387           
       1.677962             0.00862332502            0.000468387915           
       1.680603             0.00829593966            0.000460824411           
       1.683243             0.00914307745            0.000504735337           
       1.685884             0.00855112913            0.000491727582           
       1.688524             0.00864622816            0.000484896458           
       1.691164             0.00859635681            0.000483605738           
       1.693805             0.00848420126            0.000485718439           
       1.696445             0.00851760746            0.000489496805           
       1.699085             0.00883904059            0.000481938727           
       1.701726             0.00838782654            0.000452258782           
       1.704366             0.00853284556            0.000480543236           
       1.707007             0.00944476411            0.000494300058           
       1.709647             0.00907344692            0.000489957368           
       1.712287              0.0090730918            0.000494212406           
       1.714928             0.00862222206            0.000485660845           
       1.717568             0.00798342438            0.000440221075           
       1.720209             0.00785719589            0.000457441209           
       1.722849             0.00831242058            0.000468087171           
       1.725489             0.00836557054            0.000469975573           
       1.728130             0.00810926606            0.000491741702           
       1.730770             0.00859047903             0.00048067959           
       1.733410             0.00785976565             0.00045255449           
       1.736051             0.00935089225            0.000497055657           
       1.738691             0.00859238343            0.000466811076           
       1.741332             0.00943555613            0.000503483232           
       1.743972             0.00824507541            0.000486026625           
       1.746612             0.00964569167            0.000504796086           
       1.749253             0.00810656091             0.00047191159           
       1.751893             0.00839321869            0.000476658159           
       1.754533              0.0091113959              0.0004961688           
       1.757174             0.00850319098            0.000474834047           
       1.759814             0.00897181753            0.000480349824           
       1.762455              0.0087611988            0.000483394185           
       1.765095             0.00801734703            0.000442359307           
       1.767735             0.00809421931            0.000458187018           
       1.770376             0.00919542711            0.000489648763           
       1.773016             0.00891012378            0.000478764312           
       1.775657                0.00939738            0.000484606235           
       1.778297             0.00822368655            0.000449431005           
       1.780937             0.00858662846            0.000484729197           
       1.783578              0.0100660043            0.000511704373           
       1.786218             0.00903610229            0.000505963429           
       1.788858             0.00942241032            0.000490707673           
       1.791499             0.00931735899            0.000482484239           
       1.794139             0.00923973245             0.00047657201           
       1.796780             0.00800497205            0.000441448442           
       1.799420             0.00870840719            0.000457886397           
       1.802060             0.00961463916            0.000485007783           
       1.804701             0.00870084115             0.00044276539           
       1.807341              0.0085395392            0.000460917388           
       1.809981             0.00867121617            0.000466005913           
       1.812622             0.00937562736            0.000475840763           
       1.815262             0.00969468127            0.000494147997           
       1.817903              0.0092467617            0.000475446954           
       1.820543             0.00999981836            0.000502132575           
       1.823183             0.00892204699            0.000474040857           
       1.825824             0.00883615982            0.000450694363           
       1.828464             0.00856559409            0.000462618679           
       1.831105              0.0085844752            0.000450323765           
       1.833745             0.00860390841             0.00046046162           
       1.836385             0.00900647932            0.000484555587           
       1.839026             0.00838981555            0.000466195396           
       1.841666             0.00922733487            0.000487177475           
       1.844306             0.00943271655            0.000479129428           
       1.846947             0.00922961821            0.000478097689           
       1.849587             0.00836637504            0.000502640949           
       1.852228             0.00849239684            0.000457922316           
       1.854868             0.00912252628            0.000501352207           
       1.857508              0.0082621918            0.000472446314           
       1.860149              0.0100585223            0.000530751959           
       1.862789             0.00852799963            0.000471714777           
       1.865429             0.00920618199            0.000511602338           
       1.868070             0.00813776597            0.000474589403           
       1.870710             0.00883690115            0.000483154175           
       1.873351              0.0096281006            0.000510554377           
       1.875991              0.0079927626            0.000472770873           
       1.878631             0.00854200773            0.000479384352           
       1.881272             0.00874332985            0.000481750992           
       1.883912             0.00793080582            0.000477498725           
       1.886553              0.0084073761            0.000486139636           
       1.889193             0.00958488727            0.000518181138           
       1.891833             0.00821210356            0.000498124742           
       1.894474             0.00867621472            0.000507548112           
       1.897114             0.00784014329            0.000466880187           
       1.899754             0.00916686835            0.000506952505           
       1.902395             0.00903010159            0.000493319195           
       1.905035             0.00912528399            0.000525254256           
       1.907676             0.00859223827            0.000480377056           
       1.910316             0.00922813171            0.000511054036           
       1.912956             0.00792767915            0.000463256758           
       1.915597             0.00858789031            0.000484855616           
       1.918237             0.00892954225             0.00051060116           
       1.920878             0.00931969847            0.000519501292           
       1.923518             0.00901417529            0.000511131835           
       1.926158             0.00943778065            0.000516217083           
       1.928799             0.00879579551            0.000492582064           
       1.931439             0.00832303856            0.000491729496           
       1.934079             0.00863715939            0.000522199663           
       1.936720             0.00903325311            0.000494802916           
       1.939360              0.0085080991            0.000512311481           
       1.942001              0.0083879728            0.000466233068           
       1.944641             0.00845270764             0.00047724782           
       1.947281             0.00840610648            0.000471543542           
       1.949922             0.00822392281            0.000481755856           
       1.952562             0.00864194128            0.000509327792           
       1.955202             0.00858761334            0.000507105414           
       1.957843             0.00845858316            0.000490229794           
       1.960483             0.00911063574            0.000531922929           
       1.963124              0.0077379208            0.000480157937           
       1.965764              0.0084417488             0.00047294733           
       1.968404             0.00794641762            0.000454526667           
       1.971045             0.00766907298            0.000455255016           
       1.973685             0.00865678394            0.000507348259           
       1.976326             0.00929938253            0.000518614576           
       1.978966             0.00828988295            0.000493954036           
       1.981606             0.00779192614            0.000488876415           
       1.984247              0.0072012101             0.00046689015           
       1.986887             0.00827050058            0.000494360902           
       1.989527             0.00734431594            0.000460841352           
       1.992168             0.00846261424            0.000513276783           
       1.994808             0.00789663594            0.000493690495           
       1.997449             0.00848471313            0.000501234013           
       2.000089             0.00784443934            0.000480040246           
       2.002729             0.00819997168            0.000491092346           
       2.005370             0.00833433547            0.000489772371           
       2.008010             0.00852390415            0.000516928145           
       2.010650             0.00805019797            0.000506107512           
       2.013291              0.0084890649            0.000498642574           
       2.015931             0.00830707458            0.000489781751           
       2.018572              0.0075856978            0.000500605367           
       2.021212             0.00661614933            0.000459120395           
       2.023852             0.00775790974            0.000470538649           
       2.026493             0.00844300095            0.000512806796           
       2.029133             0.00741189168            0.000470804917           
       2.031774             0.00700450759             0.00048032867           
       2.034414             0.00778275746             0.00046587548           
       2.037054             0.00790941719            0.000481555216           
       2.039695             0.00674991685            0.000441499865           
       2.042335             0.00750044258            0.000483651022           
       2.044975             0.00754629129            0.000479243739           
       2.047616             0.00753037408            0.000477548828           
       2.050256             0.00733694556            0.000475836556           
       2.052897             0.00687422628            0.000469078611           
       2.055537             0.00692828844            0.000455125819           
       2.058177             0.00842731088            0.000491547279           
       2.060818             0.00794542815            0.000499994911           
       2.063458             0.00849473996            0.000538754727           
       2.066098             0.00714255167            0.000466024432           
       2.068739              0.0071741269             0.00047431325           
       2.071379             0.00771942321            0.000504840879           
       2.074020             0.00766743926            0.000492203572           
       2.076660             0.00724852735            0.000482437636           
       2.079300             0.00868703267            0.000541084174           
       2.081941             0.00814500753            0.000479719349           
       2.084581             0.00764655656             0.00049061034           
       2.087222             0.00786514286            0.000479861874           
       2.089862             0.00804434669            0.000528563361           
       2.092502             0.00721823609            0.000485345565           
       2.095143             0.00797440112            0.000526790008           
       2.097783              0.0076330363             0.00049898561           
       2.100423             0.00681436311            0.000454302577           
       2.103064             0.00703504667            0.000478972314           
       2.105704             0.00825970909            0.000516419671           
       2.108345             0.00846656452            0.000502315455           
       2.110985             0.00707442557            0.000490421157           
       2.113625             0.00754825813            0.000510999398           
       2.116266             0.00647408944            0.000479959595           
       2.118906             0.00667724403            0.000454259229           
       2.121546             0.00698004045             0.00045557712           
       2.124187             0.00740259404            0.000492477553           
       2.126827             0.00786969599            0.000513444672           
       2.129468             0.00690979326            0.000482342044           
       2.132108             0.00701256424            0.000472759094           
       2.134748             0.00809415362            0.000505939913           
       2.137389               0.007541343            0.000509477831           
       2.140029             0.00762877989            0.000458752209           
       2.142670             0.00782220064            0.000496454747           
       2.145310             0.00752306169            0.000473878735           
       2.147950             0.00699303127            0.000470254563           
       2.150591             0.00741404623            0.000479310113           
       2.153231             0.00742437822            0.000493718899           
       2.155871             0.00746727582            0.000478341243           
       2.158512             0.00791494224            0.000513858502           
       2.161152             0.00776701748            0.000493082116           
       2.163793             0.00801642192            0.000498681009           
       2.166433              0.0069285551            0.000476079823           
       2.169073             0.00719634771            0.000474390935           
       2.171714             0.00745773689            0.000479319489           
       2.174354             0.00807545685             0.00052117432           
       2.176995             0.00773028402            0.000507768694           
       2.179635             0.00757201089             0.00053104553           
       2.182275             0.00676288699            0.000473845976           
       2.184916             0.00775176417            0.000489993296           
       2.187556             0.00683043651            0.000455343626           
       2.190196             0.00722928255             0.00048952325           
       2.192837             0.00728396216            0.000488697588           
       2.195477             0.00807049402            0.000490425464           
       2.198118             0.00696877585            0.000467400506           
       2.200758             0.00809485958            0.000516817555           
       2.203398             0.00802480603            0.000517868333           
       2.206039             0.00720450852            0.000464393395           
       2.208679             0.00774639374            0.000492748216           
       2.211319             0.00744075092            0.000485713983           
       2.213960             0.00783374286            0.000505053126           
       2.216600             0.00734606554            0.000505942241           
       2.219241             0.00729624119            0.000481901471           
       2.221881             0.00761422339            0.000493302694           
       2.224521             0.00741933862            0.000492915769           
       2.227162             0.00763816343            0.000490118129           
       2.229802             0.00686105638            0.000479058422           
       2.232443             0.00692809312            0.000473800112           
       2.235083             0.00700034948            0.000490312946           
       2.237723             0.00813438756            0.000507208611           
       2.240364             0.00640480941            0.000461154866           
       2.243004             0.00803904966             0.00051252538           
       2.245644             0.00681179962            0.000476507107           
       2.248285             0.00760334111            0.000493346619           
       2.250925             0.00739422628            0.000489470443           
       2.253566             0.00795755733            0.000542848693           
       2.256206             0.00726140489            0.000508191615           
       2.258846             0.00782183637            0.000501739569           
       2.261487             0.00660361933             0.00048387795           
       2.264127             0.00694796778            0.000479351178           
       2.266767             0.00826496455            0.000536740961           
       2.269408             0.00708501242            0.000498987153           
       2.272048             0.00764238556            0.000515149642           
       2.274689             0.00787385813            0.000529782682           
       2.277329             0.00794589622            0.000501101219           
       2.279969             0.00652381587            0.000483311539           
       2.282610             0.00734703128             0.00049863435           
       2.285250             0.00715446382            0.000470964741           
       2.287891             0.00716513802            0.000505321852           
       2.290531             0.00717638216            0.000512516406           
       2.293171              0.0068051151             0.00048615192           
       2.295812             0.00754912547            0.000509980247           
       2.298452             0.00720039849            0.000520840363           
       2.301092             0.00796694123            0.000509032282           
       2.303733             0.00819686397            0.000537158652           
       2.306373             0.00661934609            0.000490311915           
       2.309014             0.00782175638            0.000522590144           
       2.311654             0.00661878573            0.000501661113           
       2.314294             0.00684705536            0.000470084581           
       2.316935              0.0071305259            0.000481698645           
       2.319575             0.00819150108            0.000540955758           
       2.322215             0.00698159353            0.000520469586           
       2.324856             0.00718593731            0.000485470154           
       2.327496              0.0067018981            0.000498518491           
       2.330137             0.00763615448            0.000509210912           
       2.332777              0.0072558507            0.000511809203           
       2.335417             0.00734737967            0.000499653387           
       2.338058             0.00702985928            0.000503337445           
       2.340698             0.00798246644            0.000532142727           
       2.343339             0.00775205312            0.000535946411           
       2.345979             0.00680046531            0.000474908521           
       2.348619             0.00734448034            0.000511579271           
       2.351260             0.00651233076            0.000478919943           
       2.353900             0.00776992796            0.000521465108           
       2.356540             0.00705355462            0.000496139547           
       2.359181             0.00702269709            0.000488112719           
       2.361821             0.00772931586            0.000494656623           
       2.364462             0.00759241658            0.000512746904           
       2.367102             0.00694864206            0.000504095058           
       2.369742             0.00619821583            0.000501125404           
       2.372383             0.00730718149            0.000492691751           
       2.375023             0.00711828687             0.00051118763           
       2.377663             0.00616924799            0.000455022946           
       2.380304             0.00711591311            0.000496837233           
       2.382944             0.00809846004            0.000504836318           
       2.385585             0.00712467791            0.000505009868           
       2.388225             0.00770784425            0.000522803121           
       2.390865             0.00740599311            0.000507199847           
       2.393506             0.00745717672            0.000499347557           
       2.396146             0.00740381476            0.000537981876           
       2.398787             0.00669900904            0.000471603551           
       2.401427             0.00716909288            0.000470906781           
       2.404067             0.00821841191            0.000515439303           
       2.406708             0.00667045558             0.00045879846           
       2.409348             0.00756413511            0.000518220536           
       2.411988             0.00726903659            0.000497738734           
       2.414629              0.0070337833            0.000504866734           
       2.417269              0.0073443914            0.000521916833           
       2.419910             0.00666627111            0.000498392475           
       2.422550             0.00715630535            0.000494046242           
       2.425190              0.0072560127            0.000524391716           
       2.427831             0.00761221036            0.000534089435           
       2.430471             0.00633028121             0.00046400552           
       2.433112             0.00651338815            0.000458318919           
       2.435752             0.00773136487             0.00052845279           
       2.438392             0.00810283338            0.000522174709           
       2.441033             0.00721955832            0.000522367559           
       2.443673              0.0068858239            0.000510543307           
       2.446313             0.00704321124            0.000516800273           
       2.448954             0.00727886693            0.000500230283           
       2.451594             0.00825658823            0.000572850452           
       2.454235             0.00812872037            0.000533301829           
       2.456875             0.00765105868            0.000541381261           
       2.459515             0.00672860349            0.000520840314           
       2.462156             0.00744636872            0.000517309501           
       2.464796             0.00770549676            0.000519444237           
       2.467436             0.00839056722             0.00056053681           
       2.470077             0.00847676942            0.000534009325           
       2.472717             0.00722448719            0.000495124454           
       2.475358             0.00734313475             0.00050437852           
       2.477998             0.00769916531            0.000507754351           
       2.480638             0.00768770748            0.000516392001           
       2.483279             0.00856146464              0.0005695576           
       2.485919             0.00802270459            0.000531347671           
       2.488560             0.00643852549            0.000474675051           
       2.491200             0.00798595833            0.000544367883           
       2.493840             0.00631595866            0.000512257156           
       2.496481             0.00734962995            0.000543548468           
       2.499121              0.0071053981            0.000519829202           
       2.501761             0.00647615521            0.000502853513           
       2.504402             0.00686142425            0.000510032882           
       2.507042             0.00795433181            0.000545084327           
       2.509683             0.00810695633            0.000541878568           
       2.512323             0.00681422931            0.000521763234           
       2.514963             0.00723027799            0.000530815631           
       2.517604             0.00742931648            0.000558332761           
       2.520244             0.00692915771            0.000505511486           
       2.522884             0.00833798107            0.000562455396           
       2.525525             0.00807144296            0.000559673559           
       2.528165              0.0078878843            0.000544648736           
       2.530806             0.00696197334            0.000520603463           
       2.533446             0.00729757239            0.000521626919           
       2.536086             0.00736284075             0.00051926481           
       2.538727              0.0076923167            0.000509179535           
       2.541367             0.00641906279            0.000469715885           
       2.544008             0.00725139242            0.000515593961           
       2.546648             0.00610283341            0.000481115143           
       2.549288             0.00785086834            0.000556803915           
       2.551929             0.00728911382            0.000527961566           
       2.554569             0.00825953976            0.000541448128           
       2.557209             0.00762697347            0.000525079799           
       2.559850             0.00734036743            0.000516773779           
       2.562490             0.00750904649            0.000540215462           
       2.565131             0.00668583269            0.000528525828           
       2.567771             0.00749571291            0.000539559825           
       2.570411             0.00649976193            0.000497000978           
       2.573052             0.00678412808             0.00051415104           
       2.575692             0.00681734107            0.000512287013           
       2.578332             0.00761102121            0.000543524992           
       2.580973             0.00640668712            0.000493927101           
       2.583613             0.00594704542            0.000464548073           
       2.586254             0.00793418447            0.000535830211           
       2.588894             0.00659067221            0.000507139508           
       2.591534             0.00681735444            0.000533936496           
       2.594175              0.0070788841            0.000533814522           
       2.596815             0.00659597581             0.00051832326           
       2.599456             0.00641468252            0.000484721606           
       2.602096             0.00688164671            0.000505875433           
       2.604736             0.00650472129            0.000503488578           
       2.607377             0.00693590878            0.000506207264           
       2.610017             0.00619825134            0.000470158179           
       2.612657             0.00656722481            0.000514753623           
       2.615298              0.0066510136            0.000505757308           
       2.617938             0.00686300205            0.000549585608           
       2.620579             0.00683904564            0.000526674984           
       2.623219             0.00655626144            0.000514936354           
       2.625859             0.00680134816             0.00050993462           
       2.628500             0.00776988789            0.000541462484           
       2.631140             0.00664622707            0.000508498049           
       2.633780             0.00656413348            0.000504908521           
       2.636421             0.00732691553            0.000546557067           
       2.639061             0.00743224042            0.000518205596           
       2.641702             0.00713297138            0.000519418046           
       2.644342             0.00682176604            0.000510125213           
       2.646982             0.00743837518            0.000524717799           
       2.649623             0.00828229612            0.000580238813           
       2.652263             0.00635914983            0.000503327646           
       2.654904             0.00830802457            0.000575886419           
       2.657544              0.0067555588            0.000489127037           
       2.660184             0.00702184439            0.000527742191           
       2.662825             0.00696645684            0.000537851833           
       2.665465             0.00746311678            0.000538415108           
       2.668105             0.00732919882            0.000562395422           
       2.670746              0.0077628775              0.0005346833           
       2.673386             0.00897590995            0.000592524453           
       2.676027             0.00857064539             0.00056970121           
       2.678667             0.00985671491             0.00059613558           
       2.681307               0.010851978            0.000614597934           
       2.683948              0.0164209613            0.000776780246           
       2.686588              0.0109636588            0.000624186092           
       2.689229             0.00934963626            0.000563246847           
       2.691869             0.00908622974             0.00058685039           
       2.694509              0.0089924637            0.000584135313           
       2.697150             0.00656510862            0.000491011083           
       2.699790             0.00765622452            0.000555887097           
       2.702430             0.00796855515            0.000542091172           
       2.705071              0.0071895036            0.000532063128           
       2.707711             0.00649817972             0.00049095156           
       2.710352             0.00740628485             0.00055381401           
       2.712992             0.00653067809            0.000529663018           
       2.715632             0.00699262942            0.000508505772           
       2.718273             0.00754188633            0.000547303888           
       2.720913             0.00752761493            0.000545230032           
       2.723553             0.00748853955            0.000547461783           
       2.726194             0.00765395642            0.000578564114           
       2.728834             0.00814037267            0.000596945048           
       2.731475             0.00763307446             0.00053348523           
       2.734115             0.00715427246            0.000532511484           
       2.736755             0.00676151293            0.000521949088           
       2.739396              0.0077926165            0.000557088637           
       2.742036             0.00592847371             0.00050853363           
       2.744677             0.00673108004            0.000525757826           
       2.747317               0.007938374            0.000566893156           
       2.749957             0.00762156414            0.000559364177           
       2.752598             0.00842414072             0.00059446079           
       2.755238             0.00732626939            0.000564380397           
       2.757878             0.00773175231            0.000574719068           
       2.760519              0.0086080097            0.000599982387           
       2.763159             0.00784883183               0.000567189           
       2.765800             0.00740344174            0.000524962053           
       2.768440             0.00686923016             0.00050939278           
       2.771080             0.00847138225            0.000570408443           
       2.773721             0.00759619105            0.000554074084           
       2.776361             0.00617824307            0.000506585741           
       2.779001             0.00742075413            0.000574959274           
       2.781642             0.00671375741            0.000542854567           
       2.784282             0.00661388314            0.000547661693           
       2.786923             0.00706764265             0.00057112153           
       2.789563             0.00640472233             0.00052362533           
       2.792203             0.00768113181            0.000547792794           
       2.794844             0.00800995114            0.000613087867           
       2.797484             0.00641341975             0.00051774076           
       2.800125             0.00697797902            0.000567860652           
       2.802765             0.00731753784             0.00057150902           
       2.805405             0.00723095644            0.000570040759           
       2.808046              0.0065514369            0.000552134236           
       2.810686               0.007624367            0.000547316883           
       2.813326             0.00623051563            0.000513924256           
       2.815967              0.0073926635            0.000575722953           
       2.818607             0.00663989013            0.000520674942           
       2.821248             0.00766007387            0.000547635305           
       2.823888             0.00758850246            0.000565797412           
       2.826528             0.00690562986            0.000522711474           
       2.829169             0.00654537286            0.000533038249           
       2.831809             0.00672646355            0.000547711815           
       2.834449             0.00628602338             0.00053282266           
       2.837090             0.00694568741            0.000540951245           
       2.839730             0.00764314669            0.000564691169           
       2.842371             0.00631264474            0.000513933486           
       2.845011             0.00739603941             0.00056072366           
       2.847651             0.00725664772            0.000556096736           
       2.850292             0.00620554769            0.000519294629           
       2.852932             0.00730927558            0.000575869408           
       2.855573             0.00755832257            0.000568046528           
       2.858213             0.00634983104            0.000546753714           
       2.860853             0.00785617932            0.000565726561           
       2.863494              0.0072730508            0.000563573765           
       2.866134             0.00701893602            0.000575441001           
       2.868774             0.00736452509            0.000579295935           
       2.871415             0.00789993422            0.000609329872           
       2.874055             0.00708303134             0.00055150787           
       2.876696             0.00716069935            0.000569522446           
       2.879336              0.0080502887            0.000582008412           
       2.881976             0.00679827903            0.000551649505           
       2.884617             0.00650295736            0.000531610581           
       2.887257             0.00724178592            0.000563893225           
       2.889897             0.00701921992            0.000543734626           
       2.892538             0.00682468879            0.000587351145           
       2.895178             0.00672851749            0.000526880607           
       2.897819             0.00703175257            0.000549446194           
       2.900459             0.00866691858            0.000598127928           
       2.903099             0.00707563132            0.000534904087           
       2.905740             0.00684882727            0.000539876834           
       2.908380             0.00708535384            0.000555359399           
       2.911021             0.00669421631            0.000548589343           
       2.913661             0.00731383482            0.000573244555           
       2.916301             0.00652687196            0.000542043168           
       2.918942             0.00621162064            0.000505801287           
       2.921582             0.00599095339            0.000519728727           
       2.924222             0.00791406221             0.00057871675           
       2.926863             0.00841996499            0.000621768716           
       2.929503             0.00779784131            0.000605446752           
       2.932144             0.00736026346            0.000564649572           
       2.934784             0.00695014228            0.000539695698           
       2.937424             0.00689384549            0.000543023925           
       2.940065               0.005870866            0.000478018426           
       2.942705             0.00796794393            0.000556187835           
       2.945346             0.00703884054            0.000554776272           
       2.947986             0.00695250208             0.00056219979           
       2.950626              0.0075192645            0.000581374065           
       2.953267             0.00756933829            0.000573881978           
       2.955907             0.00659689957            0.000555768769           
       2.958547              0.0069197587            0.000537359924           
       2.961188             0.00650141526            0.000543405844           
       2.963828             0.00730366864            0.000563393483           
       2.966469             0.00719789833            0.000548670508           
       2.969109             0.00728150376            0.000560024251           
       2.971749             0.00642265039            0.000522679746           
       2.974390             0.00755826134            0.000557189502           
       2.977030             0.00777562565            0.000577774659           
       2.979670             0.00872821553             0.00059542784           
       2.982311             0.00912522383            0.000631010217           
       2.984951             0.00809659791             0.00056530992           
       2.987592             0.00748568138            0.000554451525           
       2.990232             0.00768443086            0.000584228324           
       2.992872              0.0079108771            0.000558359513           
       2.995513             0.00905414069            0.000584400011           
       2.998153              0.0113822011            0.000666247824           
       3.000794              0.0132577638            0.000696471747           
       3.003434              0.0106385461            0.000624834127           
       3.006074               0.043041923              0.0012391941           
       3.008715               0.119071113             0.00198959702           
       3.011355               0.203440833             0.00250786132           
       3.013995               0.108065259             0.00183276806           
       3.016636              0.0697242981             0.00144159848           
       3.019276               0.135432731             0.00197496128           
       3.021917               0.487429532             0.00360266498           
       3.024557                1.56311424             0.00634297934           
       3.027197                1.16708896             0.00534356488           
       3.029838               0.529102836             0.00364893518           
       3.032478               0.267500626             0.00259716693           
       3.035118              0.0702626465             0.00134892406           
       3.037759              0.0925958251             0.00154653679           
       3.040399               0.125035011             0.00185378825           
       3.043040               0.509274022             0.00378713698           
       3.045680               0.399043791             0.00315405809           
       3.048320              0.0946894253             0.00156984695           
       3.050961               0.108658994             0.00171129605           
       3.053601              0.0907807962             0.00150650391           
       3.056242              0.0665404486             0.00137131172           
       3.058882              0.0626524287             0.00142738721           
       3.061522              0.0452311039             0.00118990755           
       3.064163              0.0595550328              0.0013481876           
       3.066803               0.118556566              0.0020025965           
       3.069443               0.115468539             0.00206776184           
       3.072084              0.0406571751             0.00119475047           
       3.074724              0.0397999509             0.00132012258           
       3.077365              0.0783921265             0.00191788604           
       3.080005              0.0135591922            0.000802153462           
       3.082645              0.0127387416            0.000816788352           
       3.085286              0.0132401262               0.000839277           
       3.087926              0.0104782359            0.000740872035           
       3.090566              0.0124119224            0.000790058368           
       3.093207              0.0111171597            0.000778075695           
       3.095847             0.00854721583            0.000653916705           
       3.098488              0.0085808143            0.000726505431           
       3.101128              0.0100235043            0.000790257167           
       3.103768             0.00881289307            0.000727058655           
       3.106409             0.00807401298            0.000740638574           
       3.109049             0.00768570413            0.000693452184           
       3.111690             0.00929037234            0.000749326411           
       3.114330             0.00823371374            0.000720434226           
       3.116970             0.00876971518            0.000749222139           
       3.119611              0.0120875929            0.000936281676           
       3.122251              0.0197980767             0.00125341168           
       3.124891              0.0362625781             0.00171213568           
       3.127532              0.0235828578             0.00135075055           
       3.130172              0.0164201985             0.00114658534           
       3.132813              0.0101868721            0.000889074423           
       3.135453             0.00676897072             0.00071876484           
       3.138093             0.00760787948            0.000825658425           
       3.140734             0.00648418232            0.000703232333           
       3.143374             0.00826459954            0.000839615531           
       3.146014              0.0063126367            0.000789964154           
       3.148655             0.00665216842            0.000753834937           
       3.151295             0.00747667339            0.000851659528           
       3.153936             0.00652092329            0.000768298383           
       3.156576             0.00723566327            0.000798301074           
       3.159216             0.00585068237            0.000721435716           
       3.161857             0.00763885788            0.000820989313           
       3.164497             0.00817521573            0.000892393777           
       3.167138             0.00873288145            0.000952990609           
       3.169778             0.00651818049            0.000809750498           
       3.172418             0.00649252031            0.000799934804           
       3.175059             0.00518192129            0.000633567394           
       3.177699             0.00624433882            0.000736481418           
       3.180339             0.00527022304            0.000724926217           
       3.182980             0.00722634677            0.000877640318           
       3.185620             0.00541119766            0.000773443509           
       3.188261             0.00640993137             0.00085682158           
       3.190901              0.0061154182            0.000769710813           
       3.193541             0.00641321773            0.000828238755           
       3.196182             0.00603773946             0.00083749504           
       3.198822             0.00519507958            0.000777117524           
       3.201463             0.00437999962            0.000701261746           
       3.204103             0.00610799789             0.00082308025           
       3.206743             0.00632608827            0.000837567082           
       3.209384             0.00517478122            0.000818442973           
       3.212024             0.00595557358            0.000818589671           
       3.214664               0.005968428            0.000931857114           
       3.217305             0.00420046857            0.000743107927           
       3.219945              0.0061216883            0.000923342718           
       3.222586             0.00518159202            0.000809126338           
       3.225226             0.00449907166            0.000836397097           
       3.227866             0.00531010802            0.000830508651           
       3.230507             0.00654558393             0.00095583239           
       3.233147             0.00655569474              0.0009642945           
       3.235787             0.00651796229            0.000983990882           
       3.238428             0.00606535519             0.00102431999           
       3.241068             0.00467136804            0.000840551373           
       3.243709             0.00808475756             0.00114246482           
       3.246349             0.00576450647            0.000879410194           
       3.248989              0.0041103076            0.000876830389           
       3.251630             0.00659346175             0.00106942212           
       3.254270             0.00650244055            0.000949153348           
       3.256911             0.00641481326             0.00102862985           
       3.259551             0.00458000782            0.000935729316           
       3.262191             0.00656826121              0.0011446151           
       3.264832             0.00778624339             0.00130212379           
       3.267472             0.00649565001             0.00111571228           
       3.270112             0.00884755403             0.00143901352           
       3.272753             0.00490149778            0.000980375508           
       3.275393             0.00511735407             0.00102211381           
       3.278034             0.00609901281             0.00111647946           
       3.280674             0.00334490987             0.00089721905           
       3.283314             0.00576087918             0.00105307736           
       3.285955             0.00719413835             0.00121420654           
       3.288595             0.00457283043             0.00107698675           
       3.291235             0.00666796521             0.00133691556           
       3.293876             0.00438586734             0.00109984484           
       3.296516             0.00585053331             0.00121950275           
       3.299157             0.00692455862             0.00131005508           
       3.301797             0.00705931533              0.0015088305           
       3.304437             0.00604368954             0.00120953689           
       3.307078             0.00349556165             0.00101329364           
       3.309718              0.0065525394                0.00143198           
       3.312359             0.00533145738             0.00129198734           
       3.314999              0.0066696324             0.00142278101           
       3.317639             0.00388696737             0.00103877559           
       3.320280             0.00342562425             0.00103682084           
       3.322920             0.00782029278              0.0015929206           
       3.325560             0.00353869184             0.00107225713           
       3.328201             0.00631823571             0.00129037911           
       3.330841             0.00389918573             0.00123372755           
       3.333482             0.00733463421             0.00159940641           
       3.336122             0.00521353513             0.00134907267           
       3.338762              0.0050798469             0.00153827761           
       3.341403             0.00592634495             0.00158763896           
       3.344043             0.00780344315             0.00174908115           
       3.346683             0.00405858777             0.00128779093           
       3.349324             0.00205142183             0.00102938728           
       3.351964              0.0057641933             0.00182467549           
       3.354605             0.00303787579             0.00151494054           
       3.357245             0.00364796865              0.0014975933           
       3.359885             0.00672068378             0.00162689919           
       3.362526             0.00306134176             0.00137311861           
       3.365166             0.00438986336             0.00155088101           
       3.367807             0.00358225433             0.00179296655           
       3.370447             0.00428575881              0.0016267899           
       3.373087             0.00421107435             0.00172441311           
       3.375728              0.0116737768             0.00324033404           
       3.378368             0.00997119513             0.00444454795           
       3.381008             0.00220720786             0.00155902738           
       3.383649             0.00212964734             0.00122848662           
       3.386289              0.0108971695             0.00328892507           
       3.388930             0.00493026997              0.0034992566           
       3.391570             0.00494272089             0.00247848316           
       3.394210             0.00599966179             0.00345570197           
       3.396851              0.0148350964             0.00607843643           
       3.399491           -2.66258805e-05                         0           
       3.402131              0.0146110885              0.0085370251           
       3.404772              0.0195022324              0.0139517027           
       3.407412                       nan                       nan           
       3.410053           -2.67266715e-05                         0           
       3.412693                       nan                       nan           
       3.415333           -2.67777457e-05                         0           
