################################################################################
# EDF_DataBlockID                     0.Image.Psd
# EDF_BinarySize                      4366944
# EDF_HeaderSize                      2560
# ByteOrder                           LowByteFirst
# DataType                            FloatValue
# Dim_1                               1028
# Dim_2                               1062
# Image                               0
# HeaderID                            EH:000000:000000:000000
# Size                                4366944
# Center_1                            607.5200
# Center_2                            651.5500
# Comment                             Xenocs_Cell_Window - 20251028_20perc_iodine_1.23mg
# DDummy                              0.6
# Date                                2025-10-29T16:00:18
# Delta                               0
# Dummy                               -1.5
# ExposureTime                        360
# Gamma                               0
# Intensity1                          8.48242e-10
# PSize_1                             7.5e-05
# PSize_2                             7.5e-05
# Pressure                            0.0326958
# SampleDistance                      0.450002
# SampleEnvKind                       large
# SampleEnvPN                         ElectroChemical cell
# SampleEnvSN                         1141
# Thickness                           0
# Wavelength                          1.541891e-10
# Wavelength                          1.54189e-10
# aux                                 0
# aux_dial                            0.002375
# beamx                               588.434
# beamx_dial                          588.434
# beamz                               657.808
# beamz_dial                          657.808
# det0x                               0
# det0x_dial                          6.36945
# det0xvd                             0
# det0xvd_dial                        0
# det0y                               450.002
# det0y_dial                          481.635
# det0z                               0
# det0z_dial                          1.23302
# det0zvd                             0
# det0zvd_dial                        0
# mag                                 1.818
# mag_dial                            1.818
# om                                  0.2499
# om_dial                             -0.610199
# phi                                 -0.0120535
# phi_dial                            0
# ry                                  0.599993
# ry_dial                             0.599993
# s1bot                               0.8
# s1bot_dial                          -1.66094
# s1hl                                0.8
# s1hl_dial                           -0.608437
# s1hr                                0.8
# s1hr_dial                           0.970938
# s1top                               0.8
# s1top_dial                          -0.461562
# s2bot                               0.45
# s2bot_dial                          1.36109
# s2hl                                0.45
# s2hl_dial                           -0.83375
# s2hr                                0.45
# s2hr_dial                           -0.118594
# s2top                               0.45
# s2top_dial                          1.44734
# w2theta                             32
# w2theta_dial                        32
# waxsch                              19.2605
# waxsch_dial                         -32.7355
# waxsh                               137.085
# waxsh_dial                          -43.5338
# waxsth                              26.0607
# waxsth_dial                         -19.4086
# waxsz                               67.0407
# waxsz_dial                          -23.7954
# wind                                65.9854
# wind_dial                           66.0041
# wpsi                                124
# wpsi_dial                           124
# wstod                               115
# wstod_dial                          115
# x                                   0
# x_dial                              1.00969
# z                                   0
# z_dial                              13.3172
# CountCutoff                         15302352
# DetectorModel                       Dectris EIGER2 Si 1M, S/N E-02-0362
# ThresholdSetting                    4023.88989258
# Saturation                          0
# FlatField                           Corrected
# BackgroundReductionExtra            0.02
# BackgroundCorrectionConstant        0.0026712
# Detector                            0
# Monitor                             0
# Pil_Roi0                            0
# SumForIntensity1                    3.05367e+08
# TransmittedFlux                     848242
# det                                 0
# mon                                 0
# pilai0                              3.05367e+08
# pilai1                              767587
# pilct0                              5.29578e+08
# pilct1                              767587
# pilroi0                             0
# pilroi1                             0
# sec                                 1
# title                               20251028_20perc_iodine_1.23mg_0_00233.edf
# usaxs0                              0
# Operation                           Azimuthal average I(q)
# Error_model                         ErrorModel.poisson
# Geometrical_correction              True
# Transmission_correction             True
# Thickness_correction                False
# Binning mode                        Uniform
# Binning factor                      1.0
# Psi                                 0.0
# Omega                               0.2499
# MaskInvalidPixels                   True
# DetectorEdge                        3
# MaskFiles                           ['20251028_20perc_iodine_1.23mg_0_00012_mask.edf']
################################################################################
    q(A⁻¹)                Intensity(a.u.)            Sigma_I(a.u.)            
       0.000340                372105.068                120.924476           
       0.001019                359340.403                72.7696181           
       0.001698                350229.466                50.7993844           
       0.002377                330846.899                44.1611817           
       0.003056                307862.686                36.0032522           
       0.003735                253249.522                28.7982023           
       0.004415                 205336.73                25.9313116           
       0.005094                153846.496                19.4386331           
       0.005773                101765.392                14.6368873           
       0.006452                59343.8783                10.7094188           
       0.007131                32421.6936                7.66839022           
       0.007810                16216.4096                5.38206094           
       0.008490                8080.23187                3.36756286           
       0.009169                3876.22013                2.30514726           
       0.009848                1181.72065                1.23057317           
       0.010527                454.151461               0.762870197           
       0.011206                114.787957                0.36604288           
       0.011885                53.0759084               0.231260034           
       0.012564                24.8902708               0.162591728           
       0.013244                 17.090753               0.125957551           
       0.013923                12.5665709               0.109749276           
       0.014602                9.38530973              0.0879635002           
       0.015281                7.50225963              0.0800577013           
       0.015960                6.11018697              0.0717315556           
       0.016639                4.94849674               0.060958499           
       0.017319                4.22003014              0.0554176587           
       0.017998                3.53886249              0.0485504886           
       0.018677                2.97762283              0.0461255707           
       0.019356                2.60516582              0.0426308214           
       0.020035                2.17678223              0.0365600487           
       0.020714                1.90393016              0.0345538954           
       0.021394                1.67649395              0.0306790817           
       0.022073                1.43748431              0.0295564505           
       0.022752                1.31317934              0.0270237906           
       0.023431                1.09578724              0.0239620881           
       0.024110                1.02582669              0.0241715915           
       0.024789                0.89268867              0.0209410503           
       0.025469               0.851363324              0.0210745343           
       0.026148               0.745893507              0.0185342009           
       0.026827               0.675381501              0.0179186338           
       0.027506               0.631633195              0.0175784596           
       0.028185               0.571012644              0.0159388696           
       0.028864               0.523818157              0.0151803308           
       0.029544                 0.4606758              0.0138049369           
       0.030223               0.454545537              0.0139094121           
       0.030902               0.402326151              0.0132058219           
       0.031581               0.368717395              0.0120178048           
       0.032260               0.327975097              0.0115275329           
       0.032939               0.300019625              0.0106308004           
       0.033619               0.301203968              0.0108083087           
       0.034298               0.277437746               0.010094745           
       0.034977               0.276089144             0.00987227994           
       0.035656               0.239823637             0.00944459485           
       0.036335               0.222015465             0.00881342218           
       0.037014               0.205398774             0.00850247571           
       0.037693                0.18621117             0.00778786595           
       0.038373               0.166260649             0.00743107203           
       0.039052               0.158189183             0.00727928958           
       0.039731               0.165057698             0.00726235842           
       0.040410               0.151388161             0.00690850694           
       0.041089               0.159423048             0.00697841896           
       0.041768               0.131763085             0.00637736735           
       0.042448               0.124621368             0.00615400366           
       0.043127               0.124307615             0.00600109022           
       0.043806               0.128762926             0.00615322636           
       0.044485               0.119052779             0.00579512041           
       0.045164               0.122846227             0.00600274508           
       0.045843               0.111419644             0.00548306506           
       0.046523               0.108084316             0.00541902245           
       0.047202              0.0968269369             0.00516490021           
       0.047881               0.104659955             0.00526619871           
       0.048560              0.0977297217             0.00513524136           
       0.049239              0.0848139453             0.00459339747           
       0.049918              0.0841051358             0.00466358322           
       0.050598              0.0835201729             0.00457761222           
       0.051277              0.0849821827             0.00460285145           
       0.051956               0.087154463             0.00463203701           
       0.052635              0.0768356337             0.00425689273           
       0.053314              0.0726536725             0.00426045078           
       0.053993              0.0724590084             0.00413804391           
       0.054673              0.0772127122              0.0041764741           
       0.055352              0.0778455601             0.00425515189           
       0.056031               0.062767598             0.00374061947           
       0.056710              0.0703608343             0.00405747003           
       0.057389              0.0647535439             0.00375352005           
       0.058068              0.0689678567              0.0039136706           
       0.058748              0.0635199385             0.00380276836           
       0.059427              0.0650969761             0.00378450682           
       0.060106              0.0622720326             0.00373651315           
       0.060785              0.0623338116             0.00362635595           
       0.061464              0.0704773597             0.00394891094           
       0.062143              0.0624072246             0.00367820344           
       0.062822              0.0517169969             0.00330908921           
       0.063502              0.0551353437             0.00341059583           
       0.064181               0.054330023             0.00334984507           
       0.064860              0.0514583169              0.0033097672           
       0.065539              0.0509057908             0.00325975996           
       0.066218              0.0480899206             0.00310048071           
       0.066897              0.0537928354             0.00330448627           
       0.067577               0.051787227             0.00327344845           
       0.068256              0.0490950064             0.00326551858           
       0.068935              0.0474315455             0.00315782054           
       0.069614              0.0406014321             0.00295070928           
       0.070293              0.0483423906              0.0032494221           
       0.070972              0.0433657739              0.0030550905           
       0.071652              0.0415553084             0.00299612305           
       0.072331              0.0454913277             0.00307893657           
       0.073010              0.0416727076              0.0030142122           
       0.073689              0.0384165215             0.00287815311           
       0.074368              0.0335612415             0.00268524133           
       0.075047              0.0429379743             0.00300463576           
       0.075727              0.0401201545             0.00288643411           
       0.076406              0.0339791255             0.00270935753           
       0.077085              0.0331582981             0.00262641386           
       0.077764              0.0353737165             0.00270322963           
       0.078443              0.0376534906             0.00280624644           
       0.079122              0.0373432785              0.0027678154           
       0.079802               0.038387622             0.00283601371           
       0.080481              0.0320636918             0.00250447773           
       0.081160              0.0377785752             0.00277430843           
       0.081839              0.0358890696             0.00266074906           
       0.082518              0.0367793497             0.00269581724           
       0.083197              0.0310637407             0.00243901413           
       0.083876              0.0335454272             0.00249245313           
       0.084556              0.0303781215             0.00243783387           
       0.085235              0.0308674263             0.00240991096           
       0.085914              0.0361089997             0.00263182493           
       0.086593              0.0322366678             0.00247070081           
       0.087272              0.0364253167             0.00258919099           
       0.087951               0.036970394             0.00266741484           
       0.088631              0.0314276452             0.00237557838           
       0.089310              0.0340873421             0.00252653208           
       0.089989              0.0340301023             0.00249489739           
       0.090668              0.0267241946             0.00223532636           
       0.091347              0.0285644008             0.00232394557           
       0.092026              0.0326129246              0.0023735188           
       0.092706               0.027672159             0.00226570635           
       0.093385              0.0309277647             0.00235849777           
       0.094064              0.0283896043              0.0022859475           
       0.094743              0.0314679615             0.00237001818           
       0.095422              0.0266705129             0.00215756057           
       0.096101              0.0227742415             0.00203480518           
       0.096781              0.0249108161             0.00209764271           
       0.097460              0.0308000456             0.00226882855           
       0.098139              0.0274177787             0.00212416142           
       0.098818              0.0295451116             0.00217787387           
       0.099497              0.0255513438             0.00202949291           
       0.100176              0.0260893072              0.0019969238           
       0.100856              0.0254320811             0.00197034731           
       0.101535               0.026386571             0.00200311049           
       0.102214              0.0265520055             0.00200939252           
       0.102893              0.0241635212             0.00189504514           
       0.103572              0.0250167132             0.00189972586           
       0.104251              0.0250308826             0.00190728379           
       0.104931              0.0272749044             0.00197281749           
       0.105610              0.0246008941             0.00188160889           
       0.106289              0.0235392468               0.001809931           
       0.106968               0.024517027             0.00185262117           
       0.107647              0.0254051774             0.00188701092           
       0.108326              0.0242083896             0.00181738567           
       0.109005              0.0241892299             0.00180523639           
       0.109685               0.025705482             0.00184008097           
       0.110364              0.0238737414             0.00179344966           
       0.111043              0.0230001748             0.00175335212           
       0.111722              0.0237611498             0.00176033904           
       0.112401              0.0246307192             0.00179724452           
       0.113080               0.025344347             0.00180220272           
       0.113760              0.0251962851             0.00182694438           
       0.114439               0.021924307             0.00167987595           
       0.115118              0.0227061335             0.00169667544           
       0.115797              0.0239102586             0.00175721192           
       0.116476              0.0228589004             0.00169242882           
       0.117155              0.0218042955             0.00166625888           
       0.117835              0.0217844599             0.00163239105           
       0.118514              0.0228353469             0.00169249199           
       0.119193              0.0206776746             0.00161055958           
       0.119872              0.0188626838             0.00151901479           
       0.120551              0.0217096736             0.00161876705           
       0.121230              0.0231618887             0.00165520623           
       0.121910              0.0203971093             0.00156829091           
       0.122589               0.019811415             0.00154720319           
       0.123268              0.0190498143             0.00148777984           
       0.123947              0.0234100678             0.00165994742           
       0.124626              0.0206796807             0.00154106917           
       0.125305              0.0228940689             0.00162943752           
       0.125985              0.0225058424             0.00160302691           
       0.126664              0.0220303341             0.00157089467           
       0.127343              0.0200787435             0.00151708487           
       0.128022              0.0229131118             0.00160819894           
       0.128701              0.0198819323             0.00149024883           
       0.129380              0.0227563127             0.00157436983           
       0.130059              0.0240665959             0.00162282078           
       0.130739              0.0228528354             0.00159248981           
       0.131418              0.0176321601             0.00139489577           
       0.132097              0.0208279803             0.00149660368           
       0.132776              0.0194486817             0.00143967072           
       0.133455              0.0209702598             0.00150654134           
       0.134134              0.0210430582             0.00150434807           
       0.134814              0.0186183591             0.00140044657           
       0.135493              0.0199283663             0.00145474111           
       0.136172              0.0219433366             0.00151499162           
       0.136851              0.0193443601             0.00143071977           
       0.137530              0.0197248778             0.00141039868           
       0.138209              0.0210395295             0.00147374345           
       0.138889              0.0226595858             0.00153617265           
       0.139568              0.0214956726             0.00149555306           
       0.140247              0.0185311521             0.00138678139           
       0.140926               0.018442635             0.00134390804           
       0.141605              0.0171677503             0.00132956785           
       0.142284              0.0182973462              0.0013498671           
       0.142964               0.017534656             0.00132648853           
       0.143643              0.0175700116             0.00132614779           
       0.144322               0.016090013             0.00124251009           
       0.145001              0.0160273628             0.00126554299           
       0.145680              0.0193653573             0.00135818957           
       0.146359              0.0172180279             0.00128536087           
       0.147039              0.0184775522             0.00134250665           
       0.147718              0.0178742098             0.00129861816           
       0.148397              0.0181431739             0.00132868316           
       0.149076              0.0173976725             0.00126073682           
       0.149755              0.0185868537             0.00132323303           
       0.150434              0.0172865359             0.00127662868           
       0.151114              0.0173808441             0.00127302594           
       0.151793              0.0201585678              0.0013709944           
       0.152472              0.0171173713             0.00124103602           
       0.153151              0.0197592359             0.00134626159           
       0.153830              0.0181141509             0.00127960994           
       0.154509              0.0166910902              0.0012231935           
       0.155188              0.0193627774             0.00131697062           
       0.155868              0.0172424585             0.00123392944           
       0.156547              0.0182098154              0.0012762163           
       0.157226              0.0170404485             0.00120440597           
       0.157905              0.0193102716             0.00129288303           
       0.158584               0.018728286             0.00127093795           
       0.159263              0.0167861263             0.00120766259           
       0.159943                0.01776652             0.00124335555           
       0.160622              0.0190844106             0.00126377668           
       0.161301              0.0204758711             0.00132654642           
       0.161980              0.0172664508             0.00119744624           
       0.162659              0.0187514011               0.001261707           
       0.163338              0.0180501301             0.00122779979           
       0.164018              0.0173323387              0.0011968247           
       0.164697              0.0180592732             0.00123735149           
       0.165376              0.0166155918             0.00116093222           
       0.166055              0.0178411935             0.00121092067           
       0.166734              0.0188612664             0.00123947952           
       0.167413              0.0149955708             0.00110595993           
       0.168093              0.0169673863             0.00118755625           
       0.168772              0.0168405275             0.00114850856           
       0.169451               0.016473026              0.0011568066           
       0.170130              0.0162812824             0.00113495621           
       0.170809              0.0185463937             0.00122579182           
       0.171488              0.0155794655              0.0011132329           
       0.172168              0.0159705058             0.00111628931           
       0.172847              0.0179978257             0.00120059128           
       0.173526              0.0181962237             0.00118416144           
       0.174205              0.0180901132             0.00118614145           
       0.174884              0.0189896295              0.0012089406           
       0.175563              0.0169777995             0.00114798904           
       0.176243              0.0160475703              0.0011272659           
       0.176922              0.0168872919             0.00112624781           
       0.177601              0.0168050669             0.00113584963           
       0.178280              0.0159144207             0.00109300208           
       0.178959               0.016277607             0.00111429465           
       0.179638              0.0150776465             0.00106934811           
       0.180317              0.0147058962             0.00104838953           
       0.180997              0.0144274051             0.00104405151           
       0.181676              0.0178089227              0.0011475838           
       0.182355              0.0167312903             0.00111900193           
       0.183034              0.0165674307             0.00109563798           
       0.183713              0.0164601869             0.00110538603           
       0.184392              0.0165120445             0.00110679101           
       0.185072              0.0155443909             0.00106163234           
       0.185751              0.0160827562             0.00108286431           
       0.186430              0.0163418546             0.00108390681           
       0.187109              0.0173228012             0.00112839262           
       0.187788              0.0180951046             0.00115042869           
       0.188467              0.0174573084             0.00111660007           
       0.189147              0.0169476357             0.00111132098           
       0.189826              0.0169944962             0.00109317689           
       0.190505              0.0174851445             0.00112709827           
       0.191184              0.0147771643             0.00102121692           
       0.191863              0.0144248436             0.00101109501           
       0.192542              0.0165712382             0.00109393168           
       0.193222              0.0162991304             0.00106059997           
       0.193901              0.0158937132              0.0010613644           
       0.194580              0.0156156914             0.00103363764           
       0.195259              0.0163357536              0.0010693421           
       0.195938              0.0151485944              0.0010322117           
       0.196617              0.0150691172             0.00101512999           
       0.197297              0.0143708417            0.000995379117           
       0.197976              0.0131775303            0.000938516113           
       0.198655              0.0167378685             0.00106928333           
       0.199334              0.0163937002             0.00104890055           
       0.200013               0.015562914             0.00102141071           
       0.200692               0.015275615             0.00101802572           
       0.201371              0.0150451882              0.0009989399           
       0.202051              0.0164318869             0.00104720743           
       0.202730              0.0169492556             0.00105294291           
       0.203409              0.0135274903            0.000946986367           
       0.204088              0.0148781018            0.000992037846           
       0.204767               0.015824613             0.00101772962           
       0.205446              0.0140647997            0.000961347641           
       0.206126              0.0157909161             0.00100479281           
       0.206805              0.0169137996             0.00105896849           
       0.207484              0.0159307609             0.00100925782           
       0.208163              0.0141013326            0.000955247358           
       0.208842              0.0129306382            0.000912257178           
       0.209521              0.0155038424            0.000990609833           
       0.210201              0.0167116816              0.0010399503           
       0.210880              0.0147967474            0.000959353653           
       0.211559              0.0150375384            0.000981427094           
       0.212238              0.0141895281            0.000948501652           
       0.212917              0.0159687441              0.0010024735           
       0.213596              0.0148952391            0.000973916284           
       0.214276              0.0177523179             0.00104107486           
       0.214955              0.0153933943            0.000989828208           
       0.215634              0.0157292327            0.000993396507           
       0.216313              0.0161415607             0.00100421964           
       0.216992              0.0159025132            0.000996506312           
       0.217671              0.0158805271            0.000989071986           
       0.218351              0.0140564518            0.000939637036           
       0.219030              0.0151865854            0.000961263474           
       0.219709                0.01377403            0.000921177865           
       0.220388               0.014934259            0.000957958148           
       0.221067              0.0135818548            0.000914278305           
       0.221746              0.0153590937              0.0009712624           
       0.222426              0.0141619015            0.000918702915           
       0.223105                0.01466756            0.000947697892           
       0.223784              0.0160773024            0.000982354452           
       0.224463              0.0131037546            0.000893931777           
       0.225142              0.0170377663             0.00100319709           
       0.225821              0.0149773683            0.000944372931           
       0.226500              0.0148738887            0.000947088789           
       0.227180              0.0126001329             0.00085826828           
       0.227859              0.0140745986            0.000911165913           
       0.228538              0.0138898347            0.000896076304           
       0.229217              0.0140566541             0.00090857663           
       0.229896                0.01515915            0.000943080743           
       0.230575              0.0150145213            0.000923609681           
       0.231255              0.0137286142            0.000896396258           
       0.231934              0.0137058188            0.000889532689           
       0.232613              0.0148643485            0.000929783211           
       0.233292              0.0146277522            0.000913442194           
       0.233971              0.0139754003            0.000892424897           
       0.234650               0.015309189            0.000945026917           
       0.235330              0.0147457132            0.000919373375           
       0.236009              0.0138888397            0.000890337925           
       0.236688              0.0136801481            0.000880461329           
       0.237367              0.0151877367            0.000929055662           
       0.238046              0.0130363838            0.000866805318           
       0.238725              0.0145742337            0.000902367448           
       0.239405              0.0132345355            0.000865226158           
       0.240084              0.0139109293            0.000881412288           
       0.240763              0.0136230719            0.000880597134           
       0.241442              0.0135016647             0.00086431186           
       0.242121              0.0144947645            0.000897225062           
       0.242800              0.0157578776            0.000939930761           
       0.243480              0.0152163305            0.000919313636           
       0.244159              0.0146772441            0.000903318874           
       0.244838              0.0147748694            0.000891404948           
       0.245517              0.0152812672            0.000919592751           
       0.246196              0.0137348589            0.000872242646           
       0.246875              0.0143675822            0.000879671438           
       0.247554              0.0133057993            0.000855146818           
       0.248234              0.0129462735            0.000830724256           
       0.248913              0.0148172411             0.00089869554           
       0.249592              0.0127708264            0.000826402921           
       0.250271              0.0142367732            0.000870011967           
       0.250950              0.0150601731            0.000900298021           
       0.251629              0.0132247247            0.000836483962           
       0.252309              0.0140145499            0.000862848227           
       0.252988              0.0134855295            0.000831826479           
       0.253667                0.01462849            0.000876482613           
       0.254346              0.0148973305             0.00088431787           
       0.255025              0.0106414096            0.000745763919           
       0.255704              0.0124225181            0.000802071219           
       0.256384               0.013252708            0.000825572784           
       0.257063              0.0138228747             0.00084795209           
       0.257742              0.0139815737            0.000846896885           
       0.258421              0.0135782769            0.000832986714           
       0.259100              0.0127944133            0.000809995516           
       0.259779              0.0125296397            0.000800890997           
       0.260459              0.0124244025            0.000799086698           
       0.261138              0.0133430046            0.000811917318           
       0.261817               0.012631559             0.00080592153           
       0.262496                0.01358251            0.000827511606           
       0.263175              0.0129883341            0.000810947263           
       0.263854              0.0129668871             0.00080651296           
       0.264534               0.012279988            0.000778157148           
       0.265213              0.0123299279            0.000792025593           
       0.265892               0.013495668            0.000818005289           
       0.266571              0.0128082093            0.000795086501           
       0.267250              0.0141674064             0.00083761864           
       0.267929              0.0116303878            0.000758145758           
       0.268609              0.0130497892            0.000807474404           
       0.269288              0.0127152108            0.000783815065           
       0.269967              0.0123187074            0.000779809595           
       0.270646              0.0129328915            0.000795558983           
       0.271325              0.0120477335            0.000769133954           
       0.272004              0.0116007159             0.00074720674           
       0.272683              0.0106710394            0.000717526645           
       0.273363              0.0129187884            0.000794523313           
       0.274042              0.0122935023            0.000770484062           
       0.274721              0.0124048801            0.000773507577           
       0.275400              0.0127022342            0.000777541014           
       0.276079              0.0119619188            0.000758826906           
       0.276758              0.0117866254            0.000762752024           
       0.277438              0.0103295467            0.000706035697           
       0.278117             0.00971828943            0.000697279771           
       0.278796              0.0107943103            0.000727409291           
       0.279475              0.0109618122            0.000745140671           
       0.280154              0.0121507854            0.000773226779           
       0.280833             0.00997489713            0.000704842362           
       0.281513              0.0121024935            0.000788561953           
       0.282192              0.0115577056            0.000757462375           
       0.282871              0.0128776984            0.000805134768           
       0.283550              0.0113546315            0.000760076194           
       0.284229              0.0105417699            0.000743121174           
       0.284908              0.0100812436             0.00073437308           
       0.285588              0.0103127413            0.000734059261           
       0.286267              0.0108694742             0.00076567957           
       0.286946              0.0115314975            0.000783523774           
       0.287625              0.0102342931            0.000750707245           
       0.288304              0.0110738427            0.000770439886           
       0.288983              0.0106180594            0.000763971885           
       0.289663             0.00995282596            0.000743982047           
       0.290342               0.010003998            0.000741921676           
       0.291021              0.0108993991            0.000778584968           
       0.291700              0.0100146035            0.000736564514           
       0.292379              0.0122403528            0.000832956613           
       0.293058              0.0103586754               0.000763368           
       0.293738              0.0089675412             0.00070429755           
       0.294417             0.00974504715            0.000742728764           
       0.295096              0.0109084734            0.000777176196           
       0.295775             0.00937779882            0.000731594354           
       0.296454              0.0104596467            0.000762648473           
       0.297133              0.0102168921            0.000757312455           
       0.297812              0.0106094111            0.000775593379           
       0.298492              0.0102015305            0.000762007787           
       0.299171             0.00937247654            0.000729006671           
       0.299850              0.0112361015             0.00079275019           
       0.300529              0.0108011624            0.000786010824           
       0.301208             0.00915311075            0.000725325847           
       0.301887               0.010207345            0.000765048209           
       0.302567              0.0100425923             0.00075504834           
       0.303246              0.0089756237            0.000718472862           
       0.303925             0.00917194179            0.000735613072           
       0.304604             0.00987615009            0.000746848038           
       0.305283             0.00874355157            0.000713142212           
       0.305962             0.00988409546            0.000753648912           
       0.306642             0.00930159834             0.00074103387           
       0.307321               0.010001814            0.000765966273           
       0.308000             0.00975321643            0.000747421592           
       0.308679             0.00833207827            0.000705785774           
       0.309358             0.00776634771            0.000672186525           
       0.310037             0.00919360928            0.000732978043           
       0.310717             0.00801140036            0.000683571771           
       0.311396             0.00929467001              0.0007412246           
       0.312075              0.0088212067            0.000731256209           
       0.312754             0.00839690868            0.000699179848           
       0.313433              0.0102233477            0.000778191555           
       0.314112              0.0107437296            0.000797568113           
       0.314792             0.00867033852            0.000721546565           
       0.315471              0.0082129692            0.000693573032           
       0.316150              0.0102913964            0.000783574186           
       0.316829             0.00818404329             0.00070337251           
       0.317508              0.0100179675            0.000769467677           
       0.318187             0.00846038765            0.000716452328           
       0.318866             0.00982290104            0.000761591117           
       0.319546             0.00775955475            0.000687040008           
       0.320225             0.00897815397             0.00073903608           
       0.320904             0.00845019289            0.000705891381           
       0.321583             0.00786171938            0.000695871381           
       0.322262             0.00768019434            0.000677366599           
       0.322941             0.00902747864            0.000743788735           
       0.323621             0.00789247623            0.000691217121           
       0.324300             0.00810468932            0.000700997207           
       0.324979             0.00783651867            0.000690548415           
       0.325658             0.00810016373              0.0007033421           
       0.326337             0.00880365161             0.00073420551           
       0.327016             0.00843580318            0.000714140181           
       0.327696             0.00777545773            0.000693244913           
       0.328375             0.00882964077            0.000732512329           
       0.329054             0.00832424385            0.000715096976           
       0.329733             0.00722125256            0.000668470046           
       0.330412             0.00752470264            0.000676779636           
       0.331091             0.00863886103            0.000738308936           
       0.331771             0.00792011037            0.000688404667           
       0.332450              0.0077453754             0.00069398572           
       0.333129             0.00659557784            0.000638753992           
       0.333808             0.00594119245            0.000607040465           
       0.334487             0.00693524806            0.000658970683           
       0.335166             0.00648271853            0.000627784633           
       0.335846             0.00633057324            0.000631275996           
       0.336525             0.00663593771            0.000639940781           
       0.337204             0.00643997348            0.000632073741           
       0.337883             0.00664238979            0.000642781225           
       0.338562             0.00614869918            0.000621864847           
       0.339241             0.00579504752            0.000604847546           
       0.339921             0.00662372781            0.000635804833           
       0.340600             0.00772968011            0.000699879817           
       0.341279              0.0053809967            0.000577694763           
       0.341958             0.00668299159            0.000652885242           
       0.342637             0.00623429003            0.000621678427           
       0.343316             0.00652816522            0.000638004047           
       0.343995               0.006049901            0.000624245776           
       0.344675              0.0052064782            0.000568457381           
       0.345354             0.00763665248            0.000692999141           
       0.346033              0.0070659684            0.000664864953           
       0.346712             0.00727704007             0.00067902744           
       0.347391             0.00525532744            0.000580618142           
       0.348070             0.00603188294            0.000613204496           
       0.348750             0.00652537884            0.000647011753           
       0.349429             0.00574204749            0.000599100289           
       0.350108             0.00613421604            0.000626672365           
       0.350787              0.0063834692             0.00062841687           
       0.351466             0.00640351276            0.000640997037           
       0.352145             0.00430146178            0.000525793432           
       0.352825             0.00578406012            0.000606948583           
       0.353504             0.00565922863            0.000600216048           
       0.354183             0.00533760611            0.000576195211           
       0.354862             0.00597700223             0.00062389926           
       0.355541             0.00715485991            0.000673671274           
       0.356220             0.00533418284            0.000582775083           
       0.356900             0.00590892725            0.000619194362           
       0.357579             0.00613747537            0.000623317556           
       0.358258             0.00688801975            0.000669468974           
       0.358937             0.00663649343            0.000644777645           
       0.359616             0.00475087267            0.000553159017           
       0.360295              0.0056775065            0.000605206756           
       0.360975             0.00511209103             0.00057182466           
       0.361654             0.00619369721            0.000632662114           
       0.362333             0.00664745271            0.000652094522           
       0.363012             0.00446418783            0.000541260433           
       0.363691              0.0051103528            0.000567683938           
       0.364370             0.00593465232            0.000619345979           
       0.365050              0.0054978885            0.000592930078           
       0.365729             0.00488592488            0.000564287331           
       0.366408             0.00478192247            0.000559485356           
       0.367087              0.0058251716            0.000607602852           
       0.367766             0.00495405638            0.000572007652           
       0.368445             0.00477307359            0.000551493563           
       0.369124             0.00459550645            0.000545389072           
       0.369804             0.00412553699            0.000515922551           
       0.370483             0.00547809595            0.000597111111           
       0.371162             0.00541082283            0.000596873954           
       0.371841             0.00413093065            0.000512431685           
       0.372520             0.00541825222            0.000598633204           
       0.373199             0.00503865128            0.000570385432           
       0.373879             0.00550091366            0.000602876008           
       0.374558             0.00493833957            0.000562881526           
       0.375237             0.00444800612             0.00053508226           
       0.375916             0.00542280753            0.000602131303           
       0.376595             0.00487820968            0.000559934483           
       0.377274             0.00530452387            0.000593235141           
       0.377954             0.00564290165            0.000602252223           
       0.378633             0.00487309901            0.000566739774           
       0.379312             0.00489243488             0.00056771968           
       0.379991              0.0036577543            0.000488343066           
       0.380670             0.00521707507            0.000593526751           
       0.381349             0.00413064836            0.000520540976           
       0.382029             0.00325463621            0.000468679071           
       0.382708             0.00471578544            0.000551839042           
       0.383387             0.00475011398            0.000566395326           
       0.384066             0.00484285508            0.000566650344           
       0.384745             0.00449970295            0.000548353021           
       0.385424             0.00479101047            0.000567746448           
       0.386104              0.0042849495            0.000530991554           
       0.386783             0.00393246318            0.000519685594           
       0.387462             0.00398693382            0.000510255041           
       0.388141             0.00507223984            0.000584721801           
       0.388820             0.00512357926            0.000583425415           
       0.389499             0.00437858903            0.000542380065           
       0.390178             0.00495818715            0.000579460856           
       0.390858             0.00400366718            0.000516491477           
       0.391537             0.00396106258            0.000518981944           
       0.392216             0.00431547105            0.000534912282           
       0.392895             0.00508724382             0.00058273402           
       0.393574             0.00332809419            0.000470163653           
       0.394253             0.00316079697             0.00046025545           
       0.394933             0.00460549733            0.000561918785           
       0.395612              0.0030979316            0.000447475444           
       0.396291             0.00377760575            0.000504190289           
       0.396970             0.00462598947            0.000552997949           
       0.397649             0.00472489881            0.000560599275           
       0.398328             0.00441836646            0.000539726797           
       0.399008              0.0042036646            0.000525305892           
       0.399687             0.00416454915            0.000524889542           
       0.400366             0.00473233315            0.000557387606           
       0.401045             0.00326965213            0.000462432687           
       0.401724             0.00401194943            0.000513097375           
       0.402403             0.00453176428            0.000549575702           
       0.403083             0.00433875204            0.000529990795           
       0.403762             0.00320567812            0.000457806739           
       0.404441             0.00344655472            0.000477718518           
       0.405120             0.00374685111            0.000496462218           
       0.405799              0.0052785453            0.000586704329           
       0.406478             0.00332744643            0.000465831239           
       0.407158             0.00505834866            0.000573273173           
       0.407837             0.00448543944            0.000544598155           
       0.408516              0.0028421313            0.000429735364           
       0.409195             0.00371575919            0.000496937403           
       0.409874              0.0031385361            0.000463065321           
       0.410553             0.00316476831            0.000469997533           
       0.411233             0.00387306344            0.000517244339           
       0.411912             0.00350739588            0.000499196147           
       0.412591             0.00398730265            0.000535775988           
       0.413270             0.00393872806            0.000529972682           
       0.413949             0.00281534209            0.000452958839           
       0.414628             0.00308013116             0.00047293048           
       0.415307             0.00307553061            0.000477833882           
       0.415987             0.00310225379            0.000475950646           
       0.416666             0.00407380135            0.000542128614           
       0.417345             0.00347452485            0.000509029113           
       0.418024             0.00340353539            0.000503815018           
       0.418703             0.00294723933            0.000467966855           
       0.419382             0.00285067774            0.000457981584           
       0.420062             0.00352189911            0.000510478556           
       0.420741             0.00288532919            0.000464504802           
       0.421420              0.0036722153            0.000526017918           
       0.422099             0.00419030396            0.000561914866           
       0.422778             0.00310107022            0.000486014305           
       0.423457             0.00337028895            0.000509773113           
       0.424137             0.00258003392            0.000438753108           
       0.424816             0.00318076804            0.000497343438           
       0.425495             0.00231228379            0.000423642885           
       0.426174              0.0020843421            0.000402361011           
       0.426853             0.00312563596             0.00048972754           
       0.427532             0.00256153169             0.00044708654           
       0.428212             0.00292265007              0.0004807149           
       0.428891             0.00212075172            0.000408559356           
       0.429570             0.00219518567            0.000415951524           
       0.430249             0.00325563998            0.000503923447           
       0.430928             0.00267990233            0.000467197373           
       0.431607             0.00218578925            0.000414684677           
       0.432287             0.00142998702             0.00033786956           
       0.432966             0.00292910195            0.000487813287           
       0.433645             0.00235476839            0.000437838321           
       0.434324             0.00176432401            0.000376706425           
       0.435003             0.00298639836            0.000490940487           
       0.435682              0.0024706946            0.000450206645           
       0.436361             0.00213125667            0.000417578967           
       0.437041             0.00188188631            0.000391865889           
       0.437720             0.00157048842            0.000359706161           
       0.438399             0.00251454014            0.000457530633           
       0.439078             0.00187115079            0.000406125118           
       0.439757             0.00289892571            0.000502389174           
       0.440436              0.0018498325            0.000410361668           
       0.441116             0.00285937526            0.000518537653           
       0.441795             0.00221477176            0.000456911543           
       0.442474             0.00223980679            0.000460767922           
       0.443153             0.00284472307            0.000531388924           
       0.443832             0.00166816316            0.000407608456           
       0.444511             0.00352618351            0.000589949862           
       0.445191             0.00216423464            0.000473425701           
       0.445870             0.00164547287            0.000412816343           
       0.446549             0.00211582829            0.000473050411           
       0.447228             0.00167040291            0.000417942798           
       0.447907             0.00246012344            0.000513292488           
       0.448586             0.00294072028            0.000574697319           
       0.449266             0.00199493585             0.00046898997           
       0.449945             0.00164232021            0.000423792211           
       0.450624             0.00324255153            0.000604936886           
       0.451303             0.00245535931            0.000533233746           
       0.451982             0.00162108763            0.000430596252           
       0.452661             0.00181860685            0.000464571871           
       0.453341             0.00290817862            0.000589540077           
       0.454020              0.0021962811            0.000513107158           
       0.454699             0.00308352669            0.000613530955           
       0.455378             0.00164043013            0.000447738555           
       0.456057             0.00106237244            0.000366724447           
       0.456736             0.00244122862            0.000554178025           
       0.457416             0.00243978918            0.000554030349           
       0.458095             0.00278359726            0.000600344703           
       0.458774             0.00179952644            0.000489078449           
       0.459453             0.00142270261             0.00043706027           
       0.460132             0.00198722942            0.000505389783           
       0.460811              0.0013320222            0.000429206784           
       0.461490             0.00237512113             0.00056730177           
       0.462170             0.00176725607             0.00049698811           
       0.462849             0.00207867323             0.00054249666           
       0.463528             0.00109152387            0.000392204255           
       0.464207             0.00200675535            0.000541743789           
       0.464886             0.00180520439            0.000509817788           
       0.465565             0.00229502928            0.000581153255           
       0.466245             0.00158044303            0.000483761786           
       0.466924             0.00152636971            0.000486644203           
       0.467603             0.00130312688            0.000440112992           
       0.468282            0.000615417822            0.000309623659           
       0.468961             0.00157195109            0.000498095127           
       0.469640             0.00158448956            0.000502072652           
       0.470320             0.00141987855            0.000475606239           
       0.470999            0.000975582035            0.000397952174           
       0.471678              0.0019875576            0.000573473531           
       0.472357            0.000681366157            0.000336708851           
       0.473036            0.000185430239            0.000176761317           
       0.473715             0.00136095866            0.000482618112           
       0.474395             0.00143904222            0.000503129899           
       0.475074             0.00160833307            0.000531917163           
       0.475753            0.000879328293            0.000389913127           
       0.476432            0.000786617041            0.000382211641           
       0.477111             0.00149511642            0.000520566082           
       0.477790            0.000584663393            0.000327269522           
       0.478470              0.0013235761            0.000498922025           
       0.479149            0.000621734456            0.000345485348           
       0.479828             0.00138291823            0.000514045838           
       0.480507            6.12907566e-05            0.000109090879           
       0.481186             0.00028492442            0.000240512187           
       0.481865            0.000264342254            0.000228793659           
       0.482545            0.000287112497            0.000241245021           
       0.483224            0.000703822794             0.00038029571           
       0.483903            9.21841318e-05            0.000139799433           
       0.484582            0.000327395869            0.000267743879           
       0.485261            0.000498341094            0.000321959591           
       0.485940            0.000348956522            0.000280284586           
       0.486619           -0.000321746021                         0           
       0.487299            0.000107934978             0.00015662448           
       0.487978            0.000118529102            0.000162458928           
       0.488657            0.000160458037            0.000196821814           
       0.489336           -8.90535448e-05                         0           
       0.490015           -8.60811817e-05                         0           
       0.490694            0.000166962816            0.000204300118           
       0.491374           -0.000321882309                         0           
       0.492053             0.00018627735            0.000219010868           
       0.492732           -0.000321921379                         0           
       0.493411           -6.60980634e-05                         0           
       0.494090           -0.000321960946                         0           
       0.494769            0.000222501676            0.000245222734           
       0.495449           -5.44848192e-05                         0           
       0.496128           -5.43614632e-05                         0           
       0.496807           -4.12221113e-05                         0           
       0.497486           -0.000322059296                         0           
       0.498165           -0.000322079344                         0           
       0.498844           -0.000322099089                         0           
       0.499524           -0.000322118927                         0           
       0.500203            -0.00032213908                         0           
       0.500882           -0.000322158837                         0           
       0.501561            0.000267468513             0.00028470164           
       0.502240           -2.56795653e-05                         0           
       0.502919             0.00063559252            0.000450366078           
       0.503599           -0.000322238807                         0           
       0.504278           -0.000322259163                         0           
       0.504957           -1.61011151e-06                         0           
       0.505636           -0.000322299269                         0           
       0.506315            6.02811873e-06             4.4641071e-05           
       0.506994            -0.00032233954                         0           
       0.507673           -0.000322359454                         0           
       0.508353           -0.000322379787                         0           
       0.509032           -0.000322400034                         0           
       0.509711           -0.000322420288                         0           
       0.510390            3.93108584e-05            0.000119552606           
       0.511069           -0.000322461366                         0           
       0.511748           -0.000322481789                         0           
       0.512428            6.73417998e-05            0.000160912867           
       0.513107            6.63067052e-05            0.000159422758           
       0.513786             0.00129892764            0.000725479083           
       0.514465            0.000815495932            0.000556482867           
       0.515144            0.000521808914            0.000469397841           
       0.515823            0.000479827042            0.000439505042           
       0.516503           -0.000322625342                         0           
       0.517182           -0.000322645991                         0           
       0.517861            -0.00032266659                         0           
       0.518540            0.000129878314            0.000242409938           
       0.519219            0.000565028853            0.000498219309           
       0.519898            0.000146802102            0.000262703079           
       0.520578           -0.000322749633                         0           
       0.521257           -0.000322770292                         0           
       0.521936           -0.000322790999                         0           
       0.522615           -0.000322811955                         0           
       0.523294           -0.000322832989                         0           
       0.523973            0.000161897133            0.000282034164           
       0.524653           -0.000322874325                         0           
       0.525332           -0.000322895218                         0           
       0.526011           -0.000322916487                         0           
       0.526690           -0.000322937716                         0           
       0.527369           -0.000322958769                         0           
       0.528048           -0.000322979972                         0           
       0.528728            -0.00032300115                         0           
       0.529407            0.000730777368            0.000632352738           
       0.530086           -0.000323043201                         0           
       0.530765           -0.000323064202                         0           
       0.531444            -0.00032308543                         0           
       0.532123            0.000262907729            0.000389145511           
       0.532802             0.00023521937            0.000358818478           
       0.533482           -0.000323149813                         0           
       0.534161           -0.000323171201                         0           
       0.534840           -0.000323192406                         0           
       0.535519           -0.000323214004                         0           
       0.536198           -0.000323235377                         0           
       0.536877           -0.000323256457                         0           
       0.537557             0.00141282792            0.000906666908           
       0.538236            0.000335316571            0.000468372053           
       0.538915           -0.000323321161                         0           
       0.539594           -0.000323342759                         0           
       0.540273            0.000941519594            0.000766490731           
       0.540952           -0.000323386386                         0           
       0.541632           -0.000323407681                         0           
       0.542311           -0.000323429171                         0           
       0.542990           -0.000323450902                         0           
       0.543669           -0.000323472814                         0           
       0.544348           -0.000323494701                         0           
       0.545027             0.00102847815            0.000834192066           
       0.545707           -0.000323538446                         0           
       0.546386           -0.000323560412                         0           
       0.547065            0.000396562099             0.00054454922           
       0.547744           -0.000323603917                         0           
       0.548423           -0.000323625959                         0           
       0.549102           -0.000323648024                         0           
       0.549782           -0.000323669977                         0           
       0.550461            -0.00032369219                         0           
       0.551140           -0.000323714538                         0           
       0.551819           -0.000323736622                         0           
       0.552498           -0.000323758894                         0           
       0.553177           -0.000323780784                         0           
       0.553856           -0.000323802752                         0           
       0.554536           -0.000323824793                         0           
       0.555215            -0.00032384717                         0           
       0.555894             0.00139285236             0.00109053644           
       0.556573            -0.00032389195                         0           
       0.557252           -0.000323914388                         0           
       0.557931           -0.000323936724                         0           
       0.558611           -0.000323959583                         0           
       0.559290            -0.00032398186                         0           
       0.559969           -0.000324003589                         0           
       0.560648           -0.000324025895                         0           
       0.561327           -0.000324048697                         0           
       0.562006           -0.000324071394                         0           
       0.562686           -0.000324094103                         0           
       0.563365           -0.000324116896                         0           
       0.564044           -0.000324139574                         0           
       0.564723           -0.000324162202                         0           
       0.565402           -0.000324184408                         0           
       0.566081           -0.000324206762                         0           
       0.566761           -0.000324229357                         0           
       0.567440            -0.00032425241                         0           
       0.568119           -0.000324275282                         0           
       0.568798           -0.000324298475                         0           
       0.569477           -0.000324321519                         0           
       0.570156           -0.000324344675                         0           
       0.570836           -0.000324367744                         0           
       0.571515           -0.000324390325                         0           
       0.572194           -0.000324413561                         0           
       0.572873           -0.000324436265                         0           
       0.573552           -0.000324458835                         0           
       0.574231           -0.000324481864                         0           
       0.574911           -0.000324505473                         0           
       0.575590           -0.000324528627                         0           
       0.576269            -0.00032455171                         0           
       0.576948           -0.000324575238                         0           
       0.577627           -0.000324598047                         0           
       0.578306           -0.000324621179                         0           
       0.578985           -0.000324644508                         0           
       0.579665           -0.000324667703                         0           
       0.580344           -0.000324691248                         0           
       0.581023           -0.000324714768                         0           
       0.581702           -0.000324738071                         0           
       0.582381           -0.000324761162                         0           
       0.583060           -0.000324784942                         0           
       0.583740           -0.000324808348                         0           
       0.584419           -0.000324831832                         0           
       0.585098           -0.000324855288                         0           
       0.585777           -0.000324878927                         0           
       0.586456           -0.000324902951                         0           
       0.587135           -0.000324926335                         0           
       0.587815           -0.000324949467                         0           
       0.588494           -0.000324973321                         0           
       0.589173           -0.000324997721                         0           
       0.589852           -0.000325020825                         0           
       0.590531           -0.000325044801                         0           
       0.591210           -0.000325068222                         0           
       0.591890           -0.000325092097                         0           
       0.592569           -0.000325115173                         0           
       0.593248           -0.000325140401                         0           
       0.593927           -0.000325164388                         0           
       0.594606           -0.000325188868                         0           
       0.595285           -0.000325211889                         0           
       0.595965           -0.000325233371                         0           
       0.596644           -0.000325255478                         0           
