################################################################################
# EDF_DataBlockID                     0.Image.Psd
# EDF_BinarySize                      2105344
# EDF_HeaderSize                      2560
# ByteOrder                           LowByteFirst
# DataType                            FloatValue
# Dim_1                               512
# Dim_2                               1028
# Image                               0
# HeaderID                            EH:000000:000000:000000
# Size                                2105344
# Center_1                            304.9000
# Center_2                            588.7000
# Comment                             Xenocs_Cell_Window - 20251028_20perc_iodine_1.23mg
# DDummy                              0.6
# Date                                2025-11-02T20:21:47
# Delta                               21.910000
# Dummy                               -1.5
# ExposureTime                        360
# Gamma                               15.360000
# Intensity1                          8.81125e-10
# PSize_1                             7.5e-05
# PSize_2                             7.5e-05
# Pressure                            0.0326681
# SampleDistance                      0.115750
# SampleEnvKind                       large
# SampleEnvPN                         ElectroChemical cell
# SampleEnvSN                         1141
# Thickness                           0
# Wavelength                          1.541891e-10
# Wavelength                          1.54189e-10
# aux                                 0
# aux_dial                            0.002375
# beamx                               588.434
# beamx_dial                          588.434
# beamz                               657.808
# beamz_dial                          657.808
# det0x                               0
# det0x_dial                          6.36945
# det0xvd                             0
# det0xvd_dial                        0
# det0y                               450.002
# det0y_dial                          481.635
# det0z                               0
# det0z_dial                          1.23302
# det0zvd                             0
# det0zvd_dial                        0
# mag                                 1.818
# mag_dial                            1.818
# om                                  0.2499
# om_dial                             -0.610199
# phi                                 -0.0120535
# phi_dial                            0
# ry                                  0.599993
# ry_dial                             0.599993
# s1bot                               0.8
# s1bot_dial                          -1.66094
# s1hl                                0.8
# s1hl_dial                           -0.608437
# s1hr                                0.8
# s1hr_dial                           0.970938
# s1top                               0.8
# s1top_dial                          -0.461562
# s2bot                               0.45
# s2bot_dial                          1.36109
# s2hl                                0.45
# s2hl_dial                           -0.83375
# s2hr                                0.45
# s2hr_dial                           -0.118594
# s2top                               0.45
# s2top_dial                          1.44734
# w2theta                             32
# w2theta_dial                        32
# waxsch                              19.2605
# waxsch_dial                         -32.7355
# waxsh                               137.085
# waxsh_dial                          -43.5338
# waxsth                              26.0607
# waxsth_dial                         -19.4086
# waxsz                               67.0407
# waxsz_dial                          -23.7954
# wind                                65.9854
# wind_dial                           66.0041
# wpsi                                124
# wpsi_dial                           124
# wstod                               115
# wstod_dial                          115
# x                                   0
# x_dial                              1.00969
# z                                   0
# z_dial                              13.3172
# CountCutoff                         6807993
# DetectorModel                       Dectris EIGER2 Si 500K, S/N E-01-0554
# ThresholdSetting                    4023.88989258
# Saturation                          0
# FlatField                           Corrected
# BackgroundReductionExtra            0.02
# BackgroundCorrectionConstant        0.0026712
# Detector                            0
# Monitor                             0
# Pil_Roi0                            0
# SumForIntensity1                    3.17205e+08
# TransmittedFlux                     881125
# det                                 0
# mon                                 0
# pilai0                              3.17205e+08
# pilai1                              794280
# pilct0                              5.48053e+08
# pilct1                              794280
# pilroi0                             0
# pilroi1                             0
# sec                                 1
# title                               20251028_20perc_iodine_1.23mg_1_01145.edf
# usaxs0                              0
# Operation                           Azimuthal average I(q)
# Error_model                         ErrorModel.poisson
# Geometrical_correction              True
# Transmission_correction             True
# Thickness_correction                False
# Binning mode                        Uniform
# Binning factor                      1.0
# Psi                                 0.0
# Omega                               0.2499
# MaskInvalidPixels                   True
# DetectorEdge                        3
# MaskFiles                           ['WAXS_corrected.edf']
################################################################################
    q(A⁻¹)                Intensity(a.u.)            Sigma_I(a.u.)            
       0.693100           -2.30423638e-05                         0           
       0.695741             0.00808099015             0.00481765076           
       0.698381             0.00812012162             0.00591557752           
       0.701021           -2.30060762e-05                         0           
       0.703662             0.00547030577              0.0039619896           
       0.706302             0.00999593194             0.00414644902           
       0.708942              0.0055103336             0.00397351344           
       0.711583            -2.2956701e-05                         0           
       0.714223              0.0112895275             0.00568603249           
       0.716864             0.00728848949              0.0029892415           
       0.719504              0.0114214443              0.0040380399           
       0.722144             0.00855435385             0.00323631299           
       0.724785             0.00461127923             0.00189539192           
       0.727425                0.00849961             0.00348119107           
       0.730065             0.00213556078             0.00123431369           
       0.732706             0.00646271721             0.00180312527           
       0.735346              0.0127728789             0.00330435601           
       0.737987             0.00463890539             0.00140717225           
       0.740627             0.00377165474              0.0018931802           
       0.743267             0.00757602608             0.00179716884           
       0.745908             0.00805160151              0.0020101016           
       0.748548             0.00552840865             0.00153529337           
       0.751189             0.00777678111             0.00245362265           
       0.753829             0.00854131042             0.00236371545           
       0.756469             0.00722061189             0.00175248088           
       0.759110             0.00704598139             0.00182434751           
       0.761750             0.00850394844             0.00177217986           
       0.764390             0.00969894619              0.0019809122           
       0.767031             0.00666419884             0.00142192303           
       0.769671             0.00849033761             0.00200206989           
       0.772312             0.00600391168             0.00128169666           
       0.774952             0.00749163545             0.00193337518           
       0.777592             0.00740408451             0.00139997634           
       0.780233             0.00797502855              0.0017529717           
       0.782873             0.00705490702             0.00157687425           
       0.785513             0.00767889472             0.00175875176           
       0.788154             0.00729212117             0.00143372546           
       0.790794             0.00679901708             0.00165508827           
       0.793435             0.00552760558             0.00134065439           
       0.796075             0.00753856565             0.00150819965           
       0.798715             0.00840090012             0.00188143895           
       0.801356               0.005887763             0.00135562102           
       0.803996              0.0042117239             0.00116892271           
       0.806637             0.00779832029             0.00126581024           
       0.809277             0.00747026949             0.00134096529           
       0.811917             0.00717555683             0.00122861229           
       0.814558             0.00699752028             0.00126098231           
       0.817198             0.00781022223             0.00126565006           
       0.819838             0.00500017854              0.0010249128           
       0.822479             0.00636873507             0.00135828171           
       0.825119             0.00669933764              0.0011856948           
       0.827760             0.00669037204             0.00120025895           
       0.830400             0.00685441148             0.00114343139           
       0.833040             0.00564759116             0.00108740245           
       0.835681             0.00838039017             0.00150586449           
       0.838321             0.00610894861             0.00107912245           
       0.840961             0.00561718585             0.00112743854           
       0.843602               0.006428123             0.00110602324           
       0.846242             0.00646673772             0.00110917483           
       0.848883             0.00716143983             0.00119449498           
       0.851523             0.00563067011             0.00104600959           
       0.854163             0.00680003371             0.00122244782           
       0.856804             0.00601401343             0.00103367243           
       0.859444             0.00782437115             0.00115522319           
       0.862085             0.00703742677             0.00114187919           
       0.864725             0.00815878397             0.00125825881           
       0.867365             0.00802122107             0.00115689356           
       0.870006             0.00814758876             0.00111108068           
       0.872646             0.00781563239             0.00114113982           
       0.875286             0.00875393779             0.00116188069           
       0.877927               0.010597315             0.00123357074           
       0.880567             0.00771296406             0.00109029762           
       0.883208             0.00983576408             0.00121962866           
       0.885848             0.00698023332             0.00106679698           
       0.888488             0.00874060013             0.00111967425           
       0.891129             0.00784987191             0.00108951831           
       0.893769             0.00871736427             0.00109880237           
       0.896410             0.00899988673             0.00104093755           
       0.899050             0.00712246738             0.00101837264           
       0.901690             0.00774312283             0.00115662695           
       0.904331             0.00610957856            0.000910849389           
       0.906971             0.00937745891             0.00120048826           
       0.909611             0.00714424696            0.000953866679           
       0.912252             0.00542086772            0.000858222742           
       0.914892             0.00680065816             0.00105045279           
       0.917533             0.00751719028             0.00104476424           
       0.920173             0.00623733934            0.000882970451           
       0.922813             0.00714389628            0.000991630504           
       0.925454             0.00658225833            0.000857117175           
       0.928094             0.00671678693            0.000924348431           
       0.930734             0.00692806071             0.00101069336           
       0.933375             0.00720749017             0.00102073989           
       0.936015             0.00750470117             0.00094597115           
       0.938656             0.00645221417            0.000940956726           
       0.941296             0.00813143004            0.000957323901           
       0.943936              0.0078053242             0.00091978677           
       0.946577             0.00628809526            0.000820106996           
       0.949217             0.00741310415            0.000818852312           
       0.951858             0.00742320088            0.000857758488           
       0.954498             0.00796516345             0.00102844516           
       0.957138             0.00797860109            0.000975132537           
       0.959779             0.00647020443            0.000865656609           
       0.962419             0.00717025845            0.000905223081           
       0.965059             0.00606164036            0.000875368687           
       0.967700             0.00859549192             0.00106761681           
       0.970340             0.00725622717            0.000868020878           
       0.972981             0.00678052293            0.000764487602           
       0.975621             0.00733275932            0.000845753603           
       0.978261             0.00818264928            0.000848908925           
       0.980902             0.00841578954             0.00103004491           
       0.983542             0.00788727708            0.000883065268           
       0.986182             0.00753842082            0.000847597671           
       0.988823             0.00792632563            0.000843928252           
       0.991463             0.00706056898            0.000849789521           
       0.994104              0.0080800328             0.00088681333           
       0.996744             0.00943472146            0.000977432913           
       0.999384             0.00753661338            0.000781286877           
       1.002025             0.00827507661            0.000913742924           
       1.004665             0.00742736326            0.000791120702           
       1.007306             0.00707514546            0.000768182546           
       1.009946             0.00919865816            0.000893304635           
       1.012586             0.00607583367            0.000707087212           
       1.015227             0.00702979109            0.000817094171           
       1.017867             0.00806077866            0.000840899394           
       1.020507             0.00725616649             0.00077280464           
       1.023148             0.00735361828            0.000839458232           
       1.025788             0.00675619519            0.000737788078           
       1.028429             0.00848177973            0.000866056542           
       1.031069             0.00697258062            0.000738936107           
       1.033709             0.00786205121            0.000834088861           
       1.036350             0.00870678121            0.000788343788           
       1.038990             0.00827396828            0.000782622049           
       1.041630             0.00709288709            0.000755779649           
       1.044271             0.00804623335            0.000757045547           
       1.046911             0.00883769854            0.000834559244           
       1.049552             0.00906223843            0.000887879093           
       1.052192             0.00856122008            0.000788015916           
       1.054832             0.00835871948            0.000785723759           
       1.057473             0.00783981767            0.000750130638           
       1.060113             0.00737725508            0.000709670976           
       1.062754             0.00824743203            0.000766103168           
       1.065394              0.0077953556            0.000787457343           
       1.068034             0.00789995692            0.000721269188           
       1.070675             0.00774594952            0.000745002641           
       1.073315             0.00922780544            0.000824803591           
       1.075955             0.00808130613             0.00072868596           
       1.078596             0.00756630511            0.000749365598           
       1.081236             0.00912100134            0.000787846244           
       1.083877             0.00776021823            0.000720184386           
       1.086517             0.00849982638            0.000808211619           
       1.089157             0.00811175591            0.000819242545           
       1.091798             0.00889127925            0.000751962801           
       1.094438             0.00834279302            0.000726049092           
       1.097078             0.00861015016            0.000707427174           
       1.099719             0.00863746637            0.000766403494           
       1.102359             0.00895654699            0.000730883107           
       1.105000             0.00888284577            0.000813900246           
       1.107640             0.00892569773            0.000780095843           
       1.110280             0.00864636642            0.000700551821           
       1.112921              0.0085171752            0.000746900837           
       1.115561              0.0101348717            0.000774351506           
       1.118202             0.00955137075            0.000752438314           
       1.120842             0.00863923056            0.000752109326           
       1.123482             0.00966426644            0.000792003135           
       1.126123              0.0102505481            0.000782366909           
       1.128763             0.00810872847            0.000700617221           
       1.131403             0.00915869125            0.000717482745           
       1.134044             0.00954183347            0.000753576022           
       1.136684             0.00981067171            0.000814682463           
       1.139325             0.00861186819            0.000703138829           
       1.141965             0.00825132855            0.000692812885           
       1.144605              0.0086241372            0.000675357752           
       1.147246             0.00968483133            0.000732441989           
       1.149886             0.00825042569            0.000673629219           
       1.152527             0.00882611237            0.000706866655           
       1.155167             0.00922802053             0.00068747532           
       1.157807             0.00924286048            0.000737688466           
       1.160448             0.00843432915            0.000688143007           
       1.163088             0.00847793884            0.000658081902           
       1.165728             0.00894357184            0.000693971869           
       1.168369             0.00959770069            0.000725544098           
       1.171009             0.00845074777            0.000660710462           
       1.173650              0.0100605772             0.00073981535           
       1.176290              0.0110244491            0.000756806069           
       1.178930             0.00874104665            0.000660471828           
       1.181571              0.0100140012            0.000720948653           
       1.184211             0.00845344851            0.000664744224           
       1.186851             0.00995172341            0.000705157255           
       1.189492             0.00907517451            0.000668856151           
       1.192132             0.00973080231            0.000684824396           
       1.194773              0.0091937778            0.000668567578           
       1.197413              0.0099119922            0.000665132966           
       1.200053             0.00962567246            0.000672110127           
       1.202694              0.0106200066            0.000671338689           
       1.205334              0.0110486564            0.000737949539           
       1.207975              0.0107987633            0.000696382276           
       1.210615             0.00911031359            0.000705618189           
       1.213255              0.0104060366            0.000675305375           
       1.215896             0.00880313246            0.000632374993           
       1.218536             0.00934050825            0.000626339703           
       1.221176              0.0112173803            0.000746245831           
       1.223817              0.0104863614             0.00067730343           
       1.226457             0.00951217294            0.000658071655           
       1.229098             0.00940988165            0.000654491842           
       1.231738              0.0099747138            0.000677165115           
       1.234378              0.0111818762            0.000673702176           
       1.237019              0.0109469513             0.00068691217           
       1.239659             0.00956295782            0.000636430552           
       1.242299             0.00967519152            0.000632021081           
       1.244940              0.0107735624            0.000648633017           
       1.247580             0.00869585436            0.000600562169           
       1.250221             0.00945465357            0.000622352727           
       1.252861              0.0103936371            0.000621207518           
       1.255501             0.00993909268            0.000659598532           
       1.258142              0.0113204391            0.000661481436           
       1.260782             0.00972432942            0.000626343502           
       1.263423              0.0102482447            0.000617845317           
       1.266063             0.00989069441            0.000622128544           
       1.268703             0.00968014765            0.000610363974           
       1.271344              0.0107691414            0.000665599642           
       1.273984             0.00928121018            0.000596778643           
       1.276624             0.00871620067            0.000567463691           
       1.279265              0.0111433993            0.000652283247           
       1.281905              0.0108154453            0.000645465123           
       1.284546             0.00974953812            0.000592359292           
       1.287186              0.0112208248            0.000623478606           
       1.289826             0.00977021311            0.000613151868           
       1.292467              0.0108598068            0.000632199975           
       1.295107              0.0102760993            0.000608866239           
       1.297747              0.0110670775            0.000604642218           
       1.300388              0.0103448887            0.000637267394           
       1.303028              0.0097684983            0.000591182302           
       1.305669              0.0102435703            0.000619801971           
       1.308309              0.0100642881             0.00060830422           
       1.310949              0.0110153716            0.000635758543           
       1.313590               0.010449645              0.0005998617           
       1.316230              0.0100482232            0.000627719956           
       1.318871              0.0109966129            0.000643132957           
       1.321511              0.0110596941             0.00063302017           
       1.324151              0.0107284106            0.000604983794           
       1.326792              0.0120565652            0.000645304306           
       1.329432              0.0107708404            0.000605622445           
       1.332072              0.0117143006            0.000622177528           
       1.334713              0.0113760565            0.000632810195           
       1.337353              0.0106339969            0.000586750545           
       1.339994              0.0111297568            0.000629925648           
       1.342634              0.0113312375            0.000609502218           
       1.345274              0.0105487162            0.000608607556           
       1.347915              0.0123469483            0.000640258948           
       1.350555              0.0121759973            0.000646946609           
       1.353195              0.0110782739            0.000620126132           
       1.355836              0.0115655441            0.000623737216           
       1.358476              0.0107781623            0.000584760612           
       1.361117              0.0111905538            0.000596660456           
       1.363757              0.0102705552            0.000589061968           
       1.366397              0.0109231628            0.000589105385           
       1.369038              0.0119670966            0.000622753488           
       1.371678              0.0112650889            0.000598884869           
       1.374319              0.0109475768            0.000585300894           
       1.376959              0.0110407674            0.000581875684           
       1.379599              0.0104133318            0.000605616249           
       1.382240              0.0103476846            0.000567391401           
       1.384880              0.0114387028            0.000631885922           
       1.387520              0.0102338658            0.000567637003           
       1.390161              0.0111313454            0.000562261621           
       1.392801              0.0125429296            0.000621858279           
       1.395442              0.0110151984            0.000590716929           
       1.398082              0.0104596709             0.00053905098           
       1.400722             0.00941440928            0.000535687952           
       1.403363              0.0117021214            0.000628665861           
       1.406003              0.0116207048            0.000586296544           
       1.408644              0.0111150529            0.000600672648           
       1.411284              0.0116937585            0.000583402705           
       1.413924               0.011106553            0.000566458358           
       1.416565               0.010489701            0.000548340821           
       1.419205             0.00970246357             0.00055012424           
       1.421845              0.0113869146            0.000595617869           
       1.424486              0.0108839694             0.00055973904           
       1.427126              0.0101423007              0.0005612998           
       1.429767              0.0113909858            0.000559681332           
       1.432407              0.0113302419            0.000584155789           
       1.435047              0.0119943875            0.000564469501           
       1.437688              0.0112716125            0.000555379528           
       1.440328              0.0113101977            0.000567796508           
       1.442968              0.0111202588            0.000575623178           
       1.445609              0.0101268396            0.000531884763           
       1.448249              0.0108643813            0.000564861829           
       1.450890              0.0112685686            0.000571518364           
       1.453530              0.0105478471            0.000578486077           
       1.456170              0.0105691379             0.00056200065           
       1.458811              0.0110814436            0.000550267171           
       1.461451              0.0112727044             0.00055645143           
       1.464092             0.00975042602            0.000520900887           
       1.466732              0.0107822675            0.000543063009           
       1.469372              0.0107429017            0.000529384628           
       1.472013              0.0103423345            0.000560206333           
       1.474653              0.0107174018            0.000561476681           
       1.477293              0.0101086549            0.000556790741           
       1.479934               0.010726996            0.000547303018           
       1.482574              0.0105255382             0.00052443513           
       1.485215              0.0112765865            0.000552933465           
       1.487855              0.0114631903            0.000564843845           
       1.490495              0.0111225328            0.000554338543           
       1.493136              0.0104474732            0.000529888952           
       1.495776              0.0105313962            0.000529590523           
       1.498416              0.0108729066            0.000555714143           
       1.501057              0.0101959542            0.000526276903           
       1.503697              0.0106903117            0.000526845389           
       1.506338              0.0112432512            0.000550171892           
       1.508978              0.0107071887            0.000531616005           
       1.511618               0.010325736            0.000555991876           
       1.514259              0.0101824647             0.00053304712           
       1.516899              0.0109323539            0.000537783049           
       1.519540               0.010409253            0.000533221318           
       1.522180              0.0115036659            0.000565476094           
       1.524820              0.0115578188             0.00056362546           
       1.527461              0.0110160425            0.000552978248           
       1.530101              0.0106337949            0.000537866025           
       1.532741              0.0103483818            0.000527519452           
       1.535382              0.0104411397            0.000538408783           
       1.538022              0.0104878278            0.000508342319           
       1.540663              0.0113328412            0.000568353113           
       1.543303              0.0112221428            0.000525141422           
       1.545943              0.0101954234            0.000529787345           
       1.548584              0.0109873052            0.000559849446           
       1.551224              0.0103124227            0.000501484275           
       1.553864              0.0105347602            0.000535593874           
       1.556505               0.011117153            0.000531506807           
       1.559145              0.0106091396            0.000525581253           
       1.561786              0.0100364209            0.000511591785           
       1.564426               0.010993873            0.000518784023           
       1.567066             0.00930659723            0.000500136331           
       1.569707              0.0111368724            0.000537282077           
       1.572347             0.00973367591            0.000518921332           
       1.574988              0.0106769339            0.000517305165           
       1.577628              0.0103736477            0.000531705206           
       1.580268              0.0103893982             0.00051555666           
       1.582909              0.0104957796            0.000549260197           
       1.585549              0.0107066304            0.000538644361           
       1.588189             0.00953160758            0.000497135961           
       1.590830              0.0105193415            0.000521604045           
       1.593470             0.00915715024            0.000505931121           
       1.596111              0.0106831249            0.000533517178           
       1.598751             0.00956025385            0.000489038128           
       1.601391             0.00901673409            0.000485411658           
       1.604032             0.00955392741            0.000510107773           
       1.606672             0.00987358377            0.000503841136           
       1.609312             0.00917566933            0.000507022156           
       1.611953              0.0102492736            0.000524376355           
       1.614593             0.00968050991             0.00049989595           
       1.617234              0.0100729196            0.000528476697           
       1.619874               0.010096693            0.000527009887           
       1.622514             0.00909056267            0.000493241231           
       1.625155             0.00888398945            0.000490485363           
       1.627795             0.00903599639            0.000482543572           
       1.630436             0.00854293614            0.000466743638           
       1.633076             0.00947494283             0.00049799163           
       1.635716             0.00984581089            0.000499745759           
       1.638357             0.00956476648            0.000493859923           
       1.640997             0.00915031137            0.000497673911           
       1.643637             0.00892002718            0.000478159924           
       1.646278             0.00912151071            0.000498722614           
       1.648918             0.00960221514            0.000513091129           
       1.651559             0.00988339544            0.000524589544           
       1.654199             0.00980827232            0.000508266676           
       1.656839             0.00869443142            0.000478704536           
       1.659480             0.00934505222            0.000514929335           
       1.662120             0.00883424057            0.000471537595           
       1.664761             0.00900035153            0.000494389334           
       1.667401             0.00893315082            0.000470762979           
       1.670041             0.00877032078            0.000473565156           
       1.672682             0.00940149932            0.000488294528           
       1.675322             0.00892216128            0.000472624893           
       1.677962             0.00834789971            0.000452118964           
       1.680603             0.00889960463            0.000468256537           
       1.683243             0.00958371522            0.000506967677           
       1.685884              0.0100082324            0.000521900046           
       1.688524             0.00852334064            0.000472320066           
       1.691164             0.00931716595            0.000493937446           
       1.693805             0.00836197507            0.000473074297           
       1.696445             0.00873734679            0.000486381049           
       1.699085             0.00891179869            0.000474753039           
       1.701726             0.00987910037            0.000481522733           
       1.704366             0.00878783155            0.000478434177           
       1.707007              0.0085651457            0.000461804637           
       1.709647             0.00849849994            0.000465199338           
       1.712287             0.00837342849             0.00046578281           
       1.714928               0.008960993            0.000485732728           
       1.717568             0.00969446928            0.000475920103           
       1.720209             0.00937990762            0.000490339166           
       1.722849             0.00912070523             0.00048103093           
       1.725489             0.00904323632            0.000479385896           
       1.728130             0.00838413978              0.0004905365           
       1.730770             0.00824719861            0.000462057502           
       1.733410             0.00922950454             0.00048111742           
       1.736051             0.00795568501            0.000449793415           
       1.738691             0.00837064983            0.000452022156           
       1.741332             0.00837850803            0.000465457908           
       1.743972             0.00912758727            0.000501691277           
       1.746612             0.00889848953            0.000475667245           
       1.749253             0.00821791856            0.000466142867           
       1.751893             0.00802823319             0.00045734987           
       1.754533              0.0084779568            0.000469546276           
       1.757174             0.00805829463            0.000453490574           
       1.759814             0.00832586102            0.000453970682           
       1.762455             0.00852544735            0.000467814901           
       1.765095             0.00871274352            0.000452410943           
       1.767735             0.00951066687             0.00048725532           
       1.770376             0.00888080798            0.000472085604           
       1.773016             0.00958344528            0.000487120653           
       1.775657             0.00814898471            0.000442724099           
       1.778297             0.00751136865            0.000421390852           
       1.780937             0.00761213872            0.000447751448           
       1.783578             0.00913457728            0.000478223164           
       1.786218             0.00814529024            0.000471278522           
       1.788858              0.0092029884            0.000475775515           
       1.791499               0.008071284            0.000440558759           
       1.794139             0.00782563734            0.000430283311           
       1.796780             0.00924020495            0.000465303896           
       1.799420             0.00918855216            0.000461432021           
       1.802060             0.00819225391            0.000439217589           
       1.804701             0.00869295652            0.000434182793           
       1.807341             0.00895905899            0.000463161957           
       1.809981             0.00911324704            0.000468687964           
       1.812622             0.00907609302              0.0004593109           
       1.815262             0.00919777113            0.000472201518           
       1.817903             0.00866726023            0.000451589632           
       1.820543             0.00846140962            0.000453147417           
       1.823183             0.00845263025             0.00045266328           
       1.825824             0.00877309532            0.000440577767           
       1.828464               0.007826491            0.000433834187           
       1.831105             0.00772074249            0.000418980039           
       1.833745             0.00802444946              0.0004362636           
       1.836385             0.00914887116            0.000479121479           
       1.839026             0.00840281043            0.000457719974           
       1.841666             0.00778971758            0.000439142756           
       1.844306             0.00800759037            0.000433093022           
       1.846947             0.00779194116            0.000430966404           
       1.849587             0.00762506643            0.000470767883           
       1.852228             0.00816153799            0.000440411327           
       1.854868             0.00806115971            0.000462359665           
       1.857508             0.00863007428            0.000473704929           
       1.860149             0.00716940741            0.000439604322           
       1.862789             0.00800095251            0.000448252324           
       1.865429             0.00880906256            0.000490968238           
       1.868070             0.00812520464             0.00046524145           
       1.870710             0.00880546555            0.000473159656           
       1.873351             0.00837653466            0.000467196626           
       1.875991             0.00779623704            0.000458079209           
       1.878631             0.00822149284            0.000461397273           
       1.881272             0.00871350766            0.000471820171           
       1.883912             0.00765409796            0.000460210343           
       1.886553             0.00825755278            0.000472663733           
       1.889193              0.0079574353            0.000463202039           
       1.891833             0.00812257017            0.000486019225           
       1.894474             0.00859884491            0.000495710293           
       1.897114             0.00871849842            0.000483014422           
       1.899754             0.00706653575            0.000436672522           
       1.902395             0.00824264463            0.000462392512           
       1.905035             0.00798705586            0.000482098249           
       1.907676             0.00814012774            0.000458712441           
       1.910316              0.0076759445            0.000457268885           
       1.912956             0.00726061434            0.000434941876           
       1.915597             0.00791513211            0.000456661163           
       1.918237             0.00803433594            0.000475157951           
       1.920878             0.00790296019            0.000469327937           
       1.923518             0.00879252102            0.000495247677           
       1.926158             0.00768728335             0.00045706681           
       1.928799             0.00843874786            0.000473342877           
       1.931439             0.00753877806             0.00045912569           
       1.934079             0.00752255265            0.000478111893           
       1.936720             0.00746621852            0.000441322752           
       1.939360             0.00753540934            0.000473006438           
       1.942001              0.0082873108            0.000454649992           
       1.944641             0.00824262774            0.000462354066           
       1.947281             0.00802300499            0.000451948238           
       1.949922             0.00815979381            0.000470785296           
       1.952562             0.00806051028            0.000482579418           
       1.955202             0.00780537792             0.00047430181           
       1.957843             0.00714971062            0.000442171687           
       1.960483             0.00808874781            0.000491712021           
       1.963124             0.00738821377            0.000460296324           
       1.965764             0.00781948393            0.000446561646           
       1.968404             0.00744788274            0.000431703827           
       1.971045             0.00764685074            0.000445985171           
       1.973685             0.00715203206            0.000452416483           
       1.976326             0.00745938036             0.00045568512           
       1.978966             0.00787533506            0.000472326886           
       1.981606             0.00802652317            0.000486783908           
       1.984247             0.00811585464            0.000486267124           
       1.986887             0.00741753604            0.000459307841           
       1.989527             0.00786781981            0.000467949274           
       1.992168             0.00820845862            0.000495936374           
       1.994808             0.00765299114            0.000476809744           
       1.997449             0.00691886452            0.000444053374           
       2.000089             0.00729524937            0.000454163862           
       2.002729             0.00726572943            0.000453515786           
       2.005370             0.00741671842            0.000453273675           
       2.008010             0.00763521039            0.000479973448           
       2.010650             0.00731456254            0.000473292356           
       2.013291             0.00828443108            0.000483266378           
       2.015931             0.00723990529            0.000448580918           
       2.018572             0.00745880751            0.000486999192           
       2.021212             0.00793594175            0.000493308933           
       2.023852             0.00718445918            0.000444238085           
       2.026493             0.00802867349            0.000490594934           
       2.029133             0.00787965936             0.00047624013           
       2.031774             0.00711287114            0.000474862619           
       2.034414             0.00722860287              0.0004404799           
       2.037054             0.00811765544            0.000478613522           
       2.039695             0.00756263599            0.000458473007           
       2.042335             0.00743776006            0.000472504071           
       2.044975              0.0080375323            0.000485229101           
       2.047616             0.00761001502            0.000470975237           
       2.050256               0.008338982            0.000497682628           
       2.052897             0.00784283779            0.000491548237           
       2.055537             0.00764510256            0.000469035765           
       2.058177             0.00840893511            0.000481711592           
       2.060818             0.00783610859             0.00048713907           
       2.063458             0.00784821898            0.000508039423           
       2.066098              0.0071083468            0.000456102133           
       2.068739             0.00638970296             0.00043915403           
       2.071379             0.00653748573            0.000455788406           
       2.074020             0.00796415648            0.000492136175           
       2.076660             0.00774809843            0.000489338811           
       2.079300             0.00767517633            0.000498963863           
       2.081941             0.00747651459             0.00045090691           
       2.084581              0.0071130373            0.000464223472           
       2.087222             0.00788459158            0.000471355249           
       2.089862             0.00761224636            0.000504433465           
       2.092502             0.00804318698            0.000502626538           
       2.095143             0.00747015915            0.000500206378           
       2.097783             0.00667932678            0.000457932547           
       2.100423             0.00769578315            0.000473646992           
       2.103064             0.00701957875            0.000469383969           
       2.105704             0.00732570128            0.000477134491           
       2.108345             0.00745348229            0.000462379264           
       2.110985             0.00677499593            0.000470840633           
       2.113625             0.00632422129            0.000458877067           
       2.116266             0.00757558946             0.00050935357           
       2.118906             0.00791658961            0.000485254989           
       2.121546             0.00685838119            0.000443036546           
       2.124187             0.00727302906            0.000478903425           
       2.126827             0.00735404035            0.000486937796           
       2.129468              0.0073985576            0.000489656959           
       2.132108             0.00748790337            0.000479266849           
       2.134748             0.00701810161            0.000462188201           
       2.137389             0.00825483018             0.00052293875           
       2.140029             0.00712796668            0.000435040075           
       2.142670             0.00779627998            0.000486244513           
       2.145310              0.0080009145            0.000479441399           
       2.147950             0.00745804711            0.000476440479           
       2.150591             0.00800947468            0.000488750002           
       2.153231             0.00676926761            0.000462504921           
       2.155871             0.00787175939            0.000481824018           
       2.158512             0.00725830582            0.000482762037           
       2.161152             0.00690589718            0.000456139804           
       2.163793              0.0074335754            0.000471115323           
       2.166433             0.00765413207            0.000490910388           
       2.169073             0.00771954058            0.000482027535           
       2.171714             0.00669891576            0.000445676387           
       2.174354             0.00714884686            0.000481075526           
       2.176995             0.00754508894            0.000492148523           
       2.179635              0.0069376158            0.000498685882           
       2.182275             0.00833522473            0.000516090182           
       2.184916              0.0070120681            0.000457202643           
       2.187556             0.00709546892            0.000455303922           
       2.190196             0.00727698417            0.000481833784           
       2.192837             0.00723601589            0.000477861365           
       2.195477             0.00729462006            0.000457425212           
       2.198118             0.00757100202             0.00047795105           
       2.200758             0.00664306367            0.000459317099           
       2.203398             0.00756444939            0.000493272101           
       2.206039             0.00696955796            0.000448107569           
       2.208679             0.00678149612            0.000452307557           
       2.211319             0.00750695103            0.000478629897           
       2.213960              0.0076888326            0.000490883482           
       2.216600             0.00684421269            0.000479105435           
       2.219241              0.0063633562            0.000441517159           
       2.221881             0.00735513882            0.000475654845           
       2.224521             0.00787289669            0.000498142046           
       2.227162             0.00739763173            0.000473204053           
       2.229802              0.0071418059            0.000479504641           
       2.232443             0.00664008271            0.000455062296           
       2.235083             0.00783210522            0.000508801713           
       2.237723             0.00645546736            0.000443285822           
       2.240364             0.00792864012            0.000503371765           
       2.243004             0.00708024947            0.000471881671           
       2.245644             0.00739366908            0.000487039587           
       2.248285             0.00673953322            0.000455680702           
       2.250925             0.00739978227            0.000480380514           
       2.253566             0.00745184539            0.000515367033           
       2.256206             0.00730519887            0.000500067924           
       2.258846             0.00681681058             0.00045952634           
       2.261487             0.00690405336            0.000485392091           
       2.264127             0.00665370709            0.000460206289           
       2.266767             0.00701159694            0.000485007574           
       2.269408             0.00694900639            0.000484815191           
       2.272048             0.00758352044            0.000503442841           
       2.274689             0.00726927199            0.000499396199           
       2.277329             0.00754568717            0.000479070271           
       2.279969             0.00725261571             0.00049994181           
       2.282610             0.00762016911            0.000498200732           
       2.285250             0.00736803342            0.000468890518           
       2.287891             0.00668835668            0.000478973317           
       2.290531             0.00704630418            0.000498231859           
       2.293171             0.00779792006            0.000510551393           
       2.295812             0.00799266143            0.000514809497           
       2.298452             0.00732762623            0.000515470516           
       2.301092             0.00582678806            0.000427080692           
       2.303733             0.00790314066             0.00051745713           
       2.306373             0.00671095507            0.000484342832           
       2.309014             0.00755096341            0.000503739565           
       2.311654             0.00643754039            0.000485374625           
       2.314294             0.00734447341             0.00047763949           
       2.316935             0.00745449548            0.000483191828           
       2.319575             0.00601851814            0.000454904882           
       2.322215             0.00701511836            0.000511836656           
       2.324856             0.00774281157            0.000494385787           
       2.327496             0.00702558979            0.000500748393           
       2.330137              0.0077929999            0.000504671166           
       2.332777             0.00652971318            0.000476328736           
       2.335417             0.00669970431            0.000468086613           
       2.338058             0.00773953214            0.000518130415           
       2.340698             0.00713523814            0.000493582354           
       2.343339             0.00606673451            0.000465142798           
       2.345979             0.00737930656            0.000485337928           
       2.348619             0.00724410838            0.000498448944           
       2.351260             0.00728552543             0.00049695944           
       2.353900             0.00716354754            0.000491220679           
       2.356540              0.0067956018            0.000477759794           
       2.359181             0.00730882101            0.000488525938           
       2.361821             0.00630044666            0.000438141892           
       2.364462             0.00704471819            0.000484552293           
       2.367102             0.00760640324            0.000517425645           
       2.369742             0.00659694051            0.000507201073           
       2.372383             0.00617622151            0.000444383151           
       2.375023             0.00684950177            0.000491946519           
       2.377663             0.00726040422            0.000484276497           
       2.380304             0.00758796678            0.000503335237           
       2.382944             0.00758279984            0.000479247629           
       2.385585               0.007256355            0.000500002661           
       2.388225             0.00767750946            0.000511891237           
       2.390865             0.00691276892            0.000480738927           
       2.393506             0.00697488972            0.000473783785           
       2.396146             0.00700731289            0.000513465698           
       2.398787             0.00754365629            0.000490974051           
       2.401427             0.00702874676            0.000457443643           
       2.404067             0.00753880547            0.000484318051           
       2.406708             0.00723975426             0.00046892342           
       2.409348             0.00696914568             0.00048800083           
       2.411988              0.0067500387            0.000470556688           
       2.414629             0.00789023255            0.000524593582           
       2.417269             0.00677554165            0.000491803048           
       2.419910             0.00710167243            0.000504668405           
       2.422550             0.00702254368            0.000480138135           
       2.425190             0.00709168272            0.000508601061           
       2.427831             0.00781205812            0.000530807606           
       2.430471             0.00661736437             0.00046542529           
       2.433112             0.00670418373            0.000456176666           
       2.435752             0.00720268125            0.000500404281           
       2.438392             0.00719328683            0.000482677302           
       2.441033             0.00750309656            0.000522440648           
       2.443673             0.00867344931            0.000562142424           
       2.446313             0.00622926983            0.000476817029           
       2.448954             0.00667827506            0.000470073804           
       2.451594             0.00745528004            0.000534033788           
       2.454235             0.00704256559            0.000486993584           
       2.456875              0.0068766766            0.000503532563           
       2.459515             0.00642949641            0.000499489556           
       2.462156              0.0081008991            0.000529347182           
       2.464796             0.00754658519            0.000504324026           
       2.467436             0.00767929056            0.000526095801           
       2.470077             0.00637141006            0.000454200117           
       2.472717             0.00849305084            0.000526669944           
       2.475358             0.00762216552            0.000504139621           
       2.477998             0.00718348083            0.000481166196           
       2.480638             0.00754906899            0.000502022967           
       2.483279              0.0084993535            0.000556739932           
       2.485919              0.0067979491            0.000479847397           
       2.488560             0.00666757206            0.000473895804           
       2.491200             0.00704524035            0.000501617512           
       2.493840              0.0072280851            0.000537620514           
       2.496481             0.00667393804            0.000508150589           
       2.499121             0.00775717906            0.000532861302           
       2.501761             0.00773068758             0.00053899872           
       2.504402             0.00766395438            0.000528826614           
       2.507042             0.00617751589            0.000471264349           
       2.509683              0.0070041723            0.000494136889           
       2.512323              0.0066435035            0.000505428229           
       2.514963             0.00742455514            0.000527712318           
       2.517604             0.00764117552            0.000555513449           
       2.520244             0.00698668053            0.000497991644           
       2.522884             0.00729961701            0.000516301612           
       2.525525              0.0108080705             0.00063537349           
       2.528165             0.00737352112            0.000516617967           
       2.530806             0.00798301624            0.000546915446           
       2.533446             0.00821494448            0.000542961347           
       2.536086             0.00707993568            0.000499547342           
       2.538727             0.00684175799            0.000471109676           
       2.541367              0.0064059562            0.000460349023           
       2.544008             0.00718057013            0.000503352685           
       2.546648             0.00730486448            0.000516398722           
       2.549288             0.00798217625            0.000550807567           
       2.551929             0.00628823382            0.000481088629           
       2.554569              0.0071663485            0.000494793178           
       2.557209             0.00747678927            0.000510038044           
       2.559850             0.00670256379            0.000484459923           
       2.562490              0.0074058837            0.000526330898           
       2.565131             0.00720547321            0.000538289025           
       2.567771             0.00684132569            0.000505707126           
       2.570411             0.00694935705            0.000504169581           
       2.573052              0.0071920352            0.000519356306           
       2.575692             0.00670215386            0.000498320599           
       2.578332             0.00706447742            0.000513728761           
       2.580973             0.00711431982            0.000510632672           
       2.583613             0.00694677864            0.000492569564           
       2.586254             0.00689356802             0.00048999753           
       2.588894             0.00695172067            0.000510980767           
       2.591534             0.00692877981            0.000528087464           
       2.594175             0.00700616668            0.000521007559           
       2.596815             0.00713458349            0.000528860696           
       2.599456             0.00687406518            0.000492274598           
       2.602096             0.00704750364            0.000502239499           
       2.604736             0.00633203731            0.000487352072           
       2.607377             0.00582881755            0.000455263388           
       2.610017             0.00760592891            0.000510953459           
       2.612657             0.00742354864            0.000536920589           
       2.615298             0.00633452818            0.000484229444           
       2.617938             0.00749430096            0.000563429601           
       2.620579             0.00709975404            0.000526456388           
       2.623219             0.00665225753            0.000508868722           
       2.625859             0.00735555933             0.00052026026           
       2.628500             0.00631049409            0.000478727621           
       2.631140             0.00703565488            0.000513274602           
       2.633780             0.00662512325            0.000497641725           
       2.636421             0.00713609774            0.000529177201           
       2.639061             0.00730181264            0.000503910461           
       2.641702             0.00610462991            0.000471419206           
       2.644342             0.00714628023            0.000512229054           
       2.646982             0.00698604205            0.000498882376           
       2.649623             0.00738879067            0.000537667627           
       2.652263             0.00747871426            0.000535501306           
       2.654904             0.00745953062            0.000535352099           
       2.657544             0.00670454964            0.000478048152           
       2.660184             0.00706614789            0.000519377803           
       2.662825             0.00762363769             0.00055199305           
       2.665465             0.00665375503             0.00049875393           
       2.668105             0.00710336694            0.000543177108           
       2.670746             0.00709002715            0.000501308433           
       2.673386             0.00860337639            0.000569111425           
       2.676027             0.00854119701            0.000557950353           
       2.678667             0.00966277436            0.000579062809           
       2.681307              0.0113507132            0.000616657515           
       2.683948              0.0145606583            0.000717604571           
       2.686588              0.0119310363            0.000638809291           
       2.689229               0.011022457            0.000599979521           
       2.691869             0.00991348762            0.000601373911           
       2.694509             0.00947108312            0.000588125144           
       2.697150             0.00798463214            0.000531243466           
       2.699790             0.00838843548            0.000570841523           
       2.702430             0.00720373201            0.000505658283           
       2.705071             0.00681174501            0.000508087734           
       2.707711             0.00628573796            0.000473714555           
       2.710352              0.0066883241            0.000516319105           
       2.712992             0.00719423453            0.000545391815           
       2.715632             0.00637395619            0.000476294949           
       2.718273             0.00737382391            0.000530922012           
       2.720913             0.00744408179            0.000531927506           
       2.723553              0.0065465861            0.000502178938           
       2.726194             0.00670006874            0.000531060423           
       2.728834             0.00728834336            0.000554143738           
       2.731475             0.00892624077             0.00056598218           
       2.734115             0.00754568026            0.000536526587           
       2.736755             0.00705539503             0.00052307345           
       2.739396             0.00834372205            0.000565533545           
       2.742036             0.00688974636            0.000537830782           
       2.744677             0.00722565333             0.00053441389           
       2.747317             0.00673261561            0.000512180635           
       2.749957             0.00738497932            0.000540185653           
       2.752598             0.00697629949            0.000530724057           
       2.755238             0.00710291512             0.00054518588           
       2.757878             0.00790122924            0.000569980213           
       2.760519             0.00772407161            0.000557578581           
       2.763159             0.00946330323            0.000611001777           
       2.765800             0.00763381562            0.000522971137           
       2.768440             0.00816958651            0.000544997609           
       2.771080             0.00964827433            0.000597213251           
       2.773721             0.00847545461            0.000574178871           
       2.776361             0.00691209898            0.000525679752           
       2.779001              0.0073537687            0.000561518221           
       2.781642             0.00645216526            0.000522094626           
       2.784282             0.00700015637            0.000552756406           
       2.786923              0.0077822846            0.000587950283           
       2.789563             0.00700020397            0.000537058567           
       2.792203             0.00634463641            0.000488430622           
       2.794844              0.0074849613            0.000581431258           
       2.797484             0.00649818503            0.000511280665           
       2.800125             0.00764729594            0.000583212339           
       2.802765             0.00737871857            0.000563023967           
       2.805405             0.00574630545            0.000498537922           
       2.808046             0.00617678614            0.000525960933           
       2.810686             0.00707097205            0.000517097355           
       2.813326             0.00582765785             0.00048761825           
       2.815967             0.00815407391            0.000593193257           
       2.818607             0.00628192356             0.00049685351           
       2.821248              0.0066554281            0.000500793595           
       2.823888             0.00608008743            0.000496859545           
       2.826528             0.00627290176            0.000488754126           
       2.829169             0.00605651194            0.000503035083           
       2.831809             0.00557944695            0.000489384373           
       2.834449             0.00663982913            0.000537240754           
       2.837090             0.00648828018            0.000512933559           
       2.839730             0.00730486002            0.000541597506           
       2.842371             0.00757072694            0.000552161143           
       2.845011             0.00658124767            0.000518918554           
       2.847651             0.00670047923            0.000524241101           
       2.850292              0.0073086648             0.00055288983           
       2.852932             0.00667174289            0.000539761991           
       2.855573             0.00706901716            0.000538947578           
       2.858213             0.00717096997            0.000570026987           
       2.860853             0.00720312113             0.00053144343           
       2.863494             0.00688934004            0.000538117451           
       2.866134             0.00703281761            0.000565100441           
       2.868774             0.00652351007            0.000534890131           
       2.871415             0.00624117646            0.000531336647           
       2.874055               0.007328661            0.000550364302           
       2.876696             0.00741323438             0.00056850305           
       2.879336             0.00717594264            0.000539086954           
       2.881976             0.00809920894            0.000590718877           
       2.884617             0.00680148492            0.000533378912           
       2.887257             0.00781726978            0.000574774369           
       2.889897             0.00777973531            0.000561591835           
       2.892538             0.00691830084            0.000580165532           
       2.895178             0.00759540919            0.000549191639           
       2.897819             0.00681304035            0.000530590741           
       2.900459             0.00654725208             0.00051001983           
       2.903099             0.00594956407            0.000481206738           
       2.905740             0.00666346376             0.00052243518           
       2.908380             0.00581698718            0.000493671682           
       2.911021             0.00635490225            0.000524381959           
       2.913661             0.00764926029            0.000575139099           
       2.916301             0.00736882094            0.000565036025           
       2.918942             0.00717193862             0.00053320174           
       2.921582             0.00655143188            0.000533203112           
       2.924222             0.00630613289            0.000506808266           
       2.926863             0.00783820577            0.000588542545           
       2.929503             0.00614748608            0.000527391763           
       2.932144             0.00700411403            0.000540386804           
       2.934784             0.00669972124            0.000519847887           
       2.937424             0.00621991178            0.000506029823           
       2.940065             0.00713029396            0.000516824483           
       2.942705              0.0078185083            0.000540512958           
       2.945346             0.00657065126            0.000525856603           
       2.947986             0.00656336933            0.000535894556           
       2.950626             0.00687980625            0.000545571764           
       2.953267             0.00724664367            0.000550881123           
       2.955907             0.00702502449            0.000562657266           
       2.958547             0.00751001199            0.000549206821           
       2.961188             0.00625548013            0.000522933524           
       2.963828             0.00744994139            0.000558230453           
       2.966469             0.00595427002            0.000489574551           
       2.969109             0.00711817423            0.000543220824           
       2.971749             0.00572080232             0.00048395258           
       2.974390             0.00724043473            0.000535020105           
       2.977030             0.00765216353            0.000562313807           
       2.979670             0.00881214383            0.000586952561           
       2.982311             0.00743059101            0.000558627248           
       2.984951             0.00718629405            0.000522496783           
       2.987592             0.00814615191            0.000567440035           
       2.990232             0.00650519997            0.000527354782           
       2.992872             0.00673364766            0.000505385298           
       2.995513             0.00805805093            0.000540875623           
       2.998153              0.0102703042            0.000620883529           
       3.000794              0.0123323309            0.000659002038           
       3.003434              0.0117850556            0.000645186436           
       3.006074              0.0466746915             0.00126598931           
       3.008715               0.116052557             0.00192701494           
       3.011355               0.185638802             0.00235025314           
       3.013995              0.0932047506             0.00166985703           
       3.016636              0.0592649269             0.00130390792           
       3.019276               0.124476527             0.00185753201           
       3.021917               0.467890178             0.00346286636           
       3.024557                1.63447961             0.00636331612           
       3.027197                1.16464177             0.00523686159           
       3.029838               0.514987721             0.00353175322           
       3.032478                0.26462813             0.00253426062           
       3.035118               0.069876669             0.00131973627           
       3.037759              0.0967416227             0.00155084018           
       3.040399               0.126106516             0.00182645459           
       3.043040               0.513073272             0.00372924362           
       3.045680               0.414489574             0.00315363932           
       3.048320              0.0858315064             0.00146630984           
       3.050961               0.105566482             0.00165482145           
       3.053601              0.0854899893             0.00143425611           
       3.056242              0.0548860504             0.00122185627           
       3.058882              0.0470271923             0.00121323011           
       3.061522              0.0345985425             0.00102098494           
       3.064163              0.0411415264             0.00109932753           
       3.066803               0.100399866              0.0018079775           
       3.069443               0.100885692             0.00189617876           
       3.072084              0.0567849614             0.00138522744           
       3.074724              0.0402541969             0.00130248995           
       3.077365              0.0870314372             0.00198253316           
       3.080005              0.0172986184            0.000888877821           
       3.082645             0.00946886441            0.000690861558           
       3.085286              0.0134513394             0.00082992306           
       3.087926             0.00857319451            0.000657455349           
       3.090566              0.0107792864            0.000722321374           
       3.093207              0.0114174446            0.000773579926           
       3.095847             0.00803042349            0.000621834953           
       3.098488             0.00728024978             0.00065651335           
       3.101128              0.0106821026            0.000800355319           
       3.103768             0.00928913506            0.000732307775           
       3.106409             0.00953532898            0.000789632936           
       3.109049             0.00836209168            0.000709623452           
       3.111690              0.0076068759            0.000665201859           
       3.114330             0.00750460857            0.000674770808           
       3.116970             0.00813587116            0.000707971373           
       3.119611              0.0121972944            0.000922707761           
       3.122251              0.0183713352             0.00118453638           
       3.124891               0.035661282             0.00166572431           
       3.127532              0.0224710311             0.00129355305           
       3.130172              0.0135030074             0.00102006593           
       3.132813             0.00920714709            0.000829231972           
       3.135453              0.0080606558            0.000769496243           
       3.138093             0.00585747158             0.00071075432           
       3.140734             0.00749125217            0.000741556486           
       3.143374              0.0084566292            0.000833228293           
       3.146014             0.00758876799            0.000849734855           
       3.148655             0.00664563537            0.000739194464           
       3.151295             0.00642198712            0.000774358961           
       3.153936             0.00775970172            0.000822230714           
       3.156576             0.00659336532            0.000747613126           
       3.159216             0.00589671631             0.00071055108           
       3.161857             0.00609126324             0.00071923826           
       3.164497             0.00805218822            0.000868879777           
       3.167138             0.00900230045            0.000949253919           
       3.169778             0.00655773403            0.000796820943           
       3.172418             0.00548307962              0.0007212005           
       3.175059             0.00586519307            0.000661278461           
       3.177699             0.00637192752             0.00072987718           
       3.180339             0.00479548459            0.000678408635           
       3.182980             0.00552641256            0.000752964718           
       3.185620             0.00638206596            0.000824059086           
       3.188261             0.00628760868            0.000832534553           
       3.190901             0.00557844058            0.000721218272           
       3.193541             0.00616443074            0.000796635862           
       3.196182             0.00470216783            0.000725086686           
       3.198822             0.00614904668            0.000829450175           
       3.201463               0.006581651            0.000843347079           
       3.204103              0.0060936706            0.000806543948           
       3.206743             0.00576618236            0.000784498236           
       3.209384             0.00634591842            0.000889171386           
       3.212024             0.00626809235            0.000823887596           
       3.214664             0.00503254829            0.000839477633           
       3.217305             0.00618430948            0.000884594917           
       3.219945             0.00591260174            0.000890250945           
       3.222586             0.00571829615            0.000833899783           
       3.225226             0.00509045826            0.000872821248           
       3.227866             0.00423420171            0.000727568793           
       3.230507             0.00588717045            0.000889317131           
       3.233147             0.00684387118            0.000966600576           
       3.235787             0.00527620336            0.000868543799           
       3.238428             0.00515504889            0.000926445191           
       3.241068             0.00492818162             0.00084699604           
       3.243709             0.00526645899            0.000904616485           
       3.246349             0.00581167399            0.000866277154           
       3.248989             0.00506856035            0.000955248908           
       3.251630              0.0051694712            0.000928990527           
       3.254270             0.00571280815            0.000872808199           
       3.256911             0.00761205478             0.00109929404           
       3.259551             0.00442308427            0.000902143328           
       3.262191             0.00419878324            0.000897825215           
       3.264832             0.00480103499             0.00100311686           
       3.267472             0.00570341666             0.00102566199           
       3.270112             0.00446385711             0.00100277665           
       3.272753             0.00754451658             0.00119327232           
       3.275393             0.00590256301             0.00107694283           
       3.278034             0.00668067309             0.00114637547           
       3.280674             0.00719342023             0.00129083223           
       3.283314             0.00628477274             0.00107908707           
       3.285955             0.00651815193             0.00113386467           
       3.288595             0.00659446705              0.0012688301           
       3.291235             0.00716564214             0.00135966112           
       3.293876             0.00606649061             0.00126901936           
       3.296516             0.00489309759             0.00109413976           
       3.299157             0.00524979892             0.00111907875           
       3.301797             0.00714509865             0.00148922078           
       3.304437             0.00466694867              0.0010427504           
       3.307078             0.00421866486             0.00109209433           
       3.309718             0.00421063816             0.00112616468           
       3.312359             0.00542642833             0.00127875731           
       3.314999             0.00729198939             0.00145950616           
       3.317639             0.00399965565             0.00103376874           
       3.320280             0.00629163486             0.00137851476           
       3.322920             0.00748752069              0.0015291407           
       3.325560             0.00588511278             0.00135659676           
       3.328201             0.00508043583             0.00113518255           
       3.330841             0.00526957751             0.00140707098           
       3.333482             0.00604330807             0.00142430427           
       3.336122             0.00636586913             0.00146249319           
       3.338762             0.00672265977             0.00173610418           
       3.341403             0.00534376756             0.00147903303           
       3.344043             0.00680034028             0.00160187254           
       3.346683             0.00745599936             0.00171240556           
       3.349324             0.00552181774             0.00165686893           
       3.351964             0.00493033296              0.0016555805           
       3.354605             0.00731317197             0.00230599989           
       3.357245             0.00580974971             0.00185414143           
       3.359885             0.00455585701             0.00131411921           
       3.362526             0.00468597655             0.00166666382           
       3.365166             0.00423266069             0.00149401691           
       3.367807             0.00257428962             0.00149114024           
       3.370447             0.00355238283             0.00145302569           
       3.373087             0.00402366837             0.00165368108           
       3.375728             0.00517523909             0.00211663078           
       3.378368              0.0037324802             0.00266777103           
       3.381008              0.0031571038             0.00182924705           
       3.383649             0.00194787565             0.00115263819           
       3.386289             0.00189091133             0.00134409051           
       3.388930             0.00960660276             0.00479204806           
       3.391570            -2.5561944e-05                         0           
       3.394210             0.00577391286             0.00332585887           
       3.396851             0.00471891128             0.00336328296           
       3.399491             0.00233445297             0.00236623109           
       3.402131             0.00950776417             0.00675616553           
       3.404772           -2.56606786e-05                         0           
       3.407412                       nan                       nan           
       3.410053            -2.5723881e-05                         0           
       3.412693                       nan                       nan           
       3.415333             0.00873264635             0.00917915156           
