################################################################################
# EDF_DataBlockID                     0.Image.Psd
# EDF_BinarySize                      4366944
# EDF_HeaderSize                      2560
# ByteOrder                           LowByteFirst
# DataType                            FloatValue
# Dim_1                               1028
# Dim_2                               1062
# Image                               0
# HeaderID                            EH:000000:000000:000000
# Size                                4366944
# Center_1                            607.5200
# Center_2                            651.5500
# Comment                             Xenocs_Cell_Window - 20251028_20perc_iodine_1.23mg
# DDummy                              0.6
# Date                                2025-11-02T03:50:24
# Delta                               0
# Dummy                               -1.5
# ExposureTime                        360
# Gamma                               0
# Intensity1                          8.74969e-10
# PSize_1                             7.5e-05
# PSize_2                             7.5e-05
# Pressure                            0.0326843
# SampleDistance                      0.450002
# SampleEnvKind                       large
# SampleEnvPN                         ElectroChemical cell
# SampleEnvSN                         1141
# Thickness                           0
# Wavelength                          1.541891e-10
# Wavelength                          1.54189e-10
# aux                                 0
# aux_dial                            0.002375
# beamx                               588.434
# beamx_dial                          588.434
# beamz                               657.808
# beamz_dial                          657.808
# det0x                               0
# det0x_dial                          6.36945
# det0xvd                             0
# det0xvd_dial                        0
# det0y                               450.002
# det0y_dial                          481.635
# det0z                               0
# det0z_dial                          1.23302
# det0zvd                             0
# det0zvd_dial                        0
# mag                                 1.818
# mag_dial                            1.818
# om                                  0.2499
# om_dial                             -0.610199
# phi                                 -0.0120535
# phi_dial                            0
# ry                                  0.599993
# ry_dial                             0.599993
# s1bot                               0.8
# s1bot_dial                          -1.66094
# s1hl                                0.8
# s1hl_dial                           -0.608437
# s1hr                                0.8
# s1hr_dial                           0.970938
# s1top                               0.8
# s1top_dial                          -0.461562
# s2bot                               0.45
# s2bot_dial                          1.36109
# s2hl                                0.45
# s2hl_dial                           -0.83375
# s2hr                                0.45
# s2hr_dial                           -0.118594
# s2top                               0.45
# s2top_dial                          1.44734
# w2theta                             32
# w2theta_dial                        32
# waxsch                              19.2605
# waxsch_dial                         -32.7355
# waxsh                               137.085
# waxsh_dial                          -43.5338
# waxsth                              26.0607
# waxsth_dial                         -19.4086
# waxsz                               67.0407
# waxsz_dial                          -23.7954
# wind                                65.9854
# wind_dial                           66.0041
# wpsi                                124
# wpsi_dial                           124
# wstod                               115
# wstod_dial                          115
# x                                   0
# x_dial                              1.00969
# z                                   0
# z_dial                              13.3172
# CountCutoff                         15302352
# DetectorModel                       Dectris EIGER2 Si 1M, S/N E-02-0362
# ThresholdSetting                    4023.88989258
# Saturation                          0
# FlatField                           Corrected
# BackgroundReductionExtra            0.02
# BackgroundCorrectionConstant        0.0026712
# Detector                            0
# Monitor                             0
# Pil_Roi0                            0
# SumForIntensity1                    3.14989e+08
# TransmittedFlux                     874969
# det                                 0
# mon                                 0
# pilai0                              3.14989e+08
# pilai1                              791674
# pilct0                              5.44634e+08
# pilct1                              791674
# pilroi0                             0
# pilroi1                             0
# sec                                 1
# title                               20251028_20perc_iodine_1.23mg_0_00995.edf
# usaxs0                              0
# Operation                           Azimuthal average I(q)
# Error_model                         ErrorModel.poisson
# Geometrical_correction              True
# Transmission_correction             True
# Thickness_correction                False
# Binning mode                        Uniform
# Binning factor                      1.0
# Psi                                 0.0
# Omega                               0.2499
# MaskInvalidPixels                   True
# DetectorEdge                        3
# MaskFiles                           ['20251028_20perc_iodine_1.23mg_0_00012_mask.edf']
################################################################################
    q(A⁻¹)                Intensity(a.u.)            Sigma_I(a.u.)            
       0.000340                371723.102                119.002135           
       0.001019                359071.775                71.6227939           
       0.001698                349498.281                49.9652636           
       0.002377                330752.452                43.4752653           
       0.003056                308015.748                 35.457917           
       0.003735                 253673.87                 28.378699           
       0.004415                 204806.63                25.4992098           
       0.005094                152712.067                19.0687467           
       0.005773                100641.668                14.3318132           
       0.006452                58514.1936                10.4706129           
       0.007131                32223.1778                7.52721105           
       0.007810                16204.8005                5.29732543           
       0.008490                8133.71215                3.32668555           
       0.009169                3920.81142                2.28268502           
       0.009848                 1204.3382                1.22317279           
       0.010527                464.710002               0.759809735           
       0.011206                116.681012               0.363368643           
       0.011885                 53.545748               0.228706188           
       0.012564                24.7916623               0.159771758           
       0.013244                16.6208261               0.122301974           
       0.013923                 12.195783               0.106453923           
       0.014602                9.30839438              0.0862539789           
       0.015281                7.29745831                0.07774213           
       0.015960                6.10784047              0.0706139321           
       0.016639                4.97533403               0.060182787           
       0.017319                4.12704859              0.0539602237           
       0.017998                3.39317315              0.0468088881           
       0.018677                 2.9149553              0.0449351725           
       0.019356                 2.5577254              0.0415907284           
       0.020035                2.14420309               0.035726937           
       0.020714                1.82228805              0.0332846178           
       0.021394                1.57150074              0.0292457127           
       0.022073                1.38982158              0.0286150032           
       0.022752                1.17764159              0.0251973208           
       0.023431                1.09098876              0.0235415597           
       0.024110               0.979670069              0.0232579655           
       0.024789               0.870264571              0.0203581192           
       0.025469               0.826119019              0.0204402113           
       0.026148               0.718617714              0.0179121603           
       0.026827               0.648409886              0.0172869622           
       0.027506               0.596794762              0.0168238116           
       0.028185               0.539504212              0.0152544175           
       0.028864               0.495754351              0.0145407826           
       0.029544               0.473021012              0.0137733789           
       0.030223                0.44557657              0.0135595352           
       0.030902               0.402485563              0.0130051394           
       0.031581               0.385473862              0.0120987179           
       0.032260               0.333464293              0.0114446933           
       0.032939               0.317104686              0.0107610839           
       0.033619               0.295544701               0.010541503           
       0.034298               0.266088121             0.00973394472           
       0.034977               0.257255212             0.00938292922           
       0.035656               0.244186361             0.00938342948           
       0.036335               0.209130886             0.00842220101           
       0.037014                0.20362768             0.00833543822           
       0.037693               0.199122841             0.00792938847           
       0.038373               0.188263959             0.00778581145           
       0.039052               0.175501178              0.0075492564           
       0.039731               0.170940043             0.00727688053           
       0.040410               0.162036913             0.00703734392           
       0.041089               0.163993832             0.00696881273           
       0.041768               0.139064169             0.00645083201           
       0.042448               0.130030749             0.00618939326           
       0.043127               0.135665602             0.00617276459           
       0.043806               0.124205392             0.00595033271           
       0.044485               0.123821352             0.00581907588           
       0.045164               0.121325392             0.00587365447           
       0.045843               0.112249031              0.0054187282           
       0.046523               0.110031478             0.00538346183           
       0.047202               0.110148464             0.00542396171           
       0.047881              0.0953234151             0.00494846293           
       0.048560              0.0996770815             0.00510632837           
       0.049239              0.0879989535             0.00460683546           
       0.049918              0.0955771362             0.00489495871           
       0.050598              0.0867452022             0.00459335057           
       0.051277              0.0874480321             0.00459728673           
       0.051956              0.0931114046             0.00471402842           
       0.052635              0.0815203881             0.00431725837           
       0.053314              0.0828443091             0.00447941871           
       0.053993              0.0769708782             0.00419928814           
       0.054673              0.0833943581             0.00427363352           
       0.055352              0.0693826767             0.00395537096           
       0.056031              0.0705706167             0.00390527197           
       0.056710              0.0784398024             0.00421814621           
       0.057389              0.0727398722             0.00391702902           
       0.058068              0.0703729198             0.00389248765           
       0.058748              0.0694825307             0.00391603175           
       0.059427              0.0688247983             0.00383146543           
       0.060106              0.0705886518             0.00391697673           
       0.060785              0.0696990605             0.00377559676           
       0.061464              0.0612741834             0.00362539095           
       0.062143              0.0585246884             0.00350712641           
       0.062822              0.0579508464             0.00344893707           
       0.063502              0.0544522132             0.00333723304           
       0.064181               0.056268469             0.00335660996           
       0.064860              0.0564704096             0.00341384408           
       0.065539              0.0584659885             0.00343967357           
       0.066218              0.0534211245             0.00321752603           
       0.066897              0.0538358997             0.00325492716           
       0.067577              0.0501468636             0.00317160883           
       0.068256              0.0509770339             0.00327630506           
       0.068935              0.0417914981             0.00291851097           
       0.069614              0.0472317425             0.00313354751           
       0.070293              0.0460040147             0.00312106985           
       0.070972              0.0489419101             0.00319561566           
       0.071652              0.0485610493             0.00318899601           
       0.072331              0.0458902502             0.00304481003           
       0.073010              0.0429400285             0.00301260839           
       0.073689              0.0474924048             0.00315087016           
       0.074368              0.0398161672             0.00287976861           
       0.075047              0.0467282497             0.00308620213           
       0.075727              0.0403143505             0.00284887725           
       0.076406              0.0411695171             0.00293637596           
       0.077085              0.0395583578             0.00282455298           
       0.077764              0.0447137889             0.00299244986           
       0.078443              0.0403573083             0.00286053875           
       0.079122              0.0390459442             0.00278664995           
       0.079802              0.0384082903             0.00279311465           
       0.080481               0.040028581             0.00275523764           
       0.081160              0.0362324556             0.00267512692           
       0.081839              0.0373017758                0.00267086           
       0.082518              0.0393002352             0.00274378167           
       0.083197              0.0379257384             0.00265349343           
       0.083876              0.0356407488             0.00252957348           
       0.084556              0.0309118624             0.00242130661           
       0.085235              0.0352518786             0.00253574439           
       0.085914              0.0366657339             0.00261121728           
       0.086593               0.034725028             0.00252481721           
       0.087272              0.0376375264             0.00259141225           
       0.087951              0.0357066162             0.00258107976           
       0.088631              0.0263099766             0.00214011557           
       0.089310              0.0327961007             0.00244007348           
       0.089989              0.0327711449             0.00241062925           
       0.090668              0.0318777822             0.00240378837           
       0.091347              0.0289953835             0.00230537391           
       0.092026              0.0294733422             0.00222165209           
       0.092706              0.0314868118             0.00237963308           
       0.093385              0.0325778685             0.00238334048           
       0.094064              0.0305505204             0.00233485245           
       0.094743              0.0285433883             0.00222245865           
       0.095422              0.0339680013              0.0023974296           
       0.096101              0.0289345281             0.00225825317           
       0.096781              0.0304884517             0.00228490831           
       0.097460              0.0284255637             0.00214607105           
       0.098139              0.0308389208             0.00221811736           
       0.098818              0.0275819382             0.00207188598           
       0.099497              0.0297322073             0.00215554848           
       0.100176              0.0292594079             0.00208221964           
       0.100856              0.0289618059             0.00207027581           
       0.101535              0.0267247204             0.00198487685           
       0.102214              0.0286474703             0.00205505197           
       0.102893              0.0278234149             0.00200220351           
       0.103572              0.0295555952             0.00203310223           
       0.104251              0.0274556717             0.00196678472           
       0.104931              0.0246412284             0.00184629044           
       0.105610              0.0262609325             0.00191413487           
       0.106289              0.0269947227             0.00190839701           
       0.106968              0.0279781309             0.00194861311           
       0.107647              0.0208452033             0.00168298373           
       0.108326              0.0265185646             0.00187284876           
       0.109005              0.0241223444             0.00177499187           
       0.109685              0.0278464186             0.00188569863           
       0.110364              0.0244703895             0.00178777534           
       0.111043              0.0240802654             0.00176643541           
       0.111722              0.0237603957             0.00173321717           
       0.112401              0.0224082116             0.00168785748           
       0.113080              0.0244546137             0.00174303876           
       0.113760              0.0232754571             0.00172889943           
       0.114439              0.0274298983             0.00185007753           
       0.115118              0.0242192762             0.00172532658           
       0.115797              0.0232965353             0.00170781658           
       0.116476              0.0272401284             0.00181907612           
       0.117155              0.0239754659             0.00172035679           
       0.117835              0.0211214475             0.00158261836           
       0.118514              0.0227771625             0.00166431749           
       0.119193              0.0256699196             0.00176685843           
       0.119872              0.0231240552             0.00165598277           
       0.120551              0.0212856718             0.00157821055           
       0.121230              0.0253360683             0.00170450505           
       0.121910              0.0219768402              0.0016028338           
       0.122589              0.0229103444             0.00163820771           
       0.123268              0.0226391656             0.00159693434           
       0.123947              0.0248880884             0.00168520337           
       0.124626              0.0259611609             0.00170010532           
       0.125305              0.0239443818             0.00164074688           
       0.125985              0.0234497522             0.00161111247           
       0.126664              0.0200635603             0.00147606023           
       0.127343              0.0212811626             0.00153781056           
       0.128022              0.0221174507             0.00155571064           
       0.128701              0.0200129386             0.00147213785           
       0.129380              0.0217318275             0.00151484253           
       0.130059              0.0207785221             0.00148468427           
       0.130739              0.0215097161             0.00152120417           
       0.131418              0.0240381277             0.00160362518           
       0.132097              0.0207197018              0.0014697333           
       0.132776              0.0221682477             0.00151337768           
       0.133455              0.0218011696             0.00151245548           
       0.134134              0.0208197052             0.00147331207           
       0.134814              0.0212887372             0.00147446459           
       0.135493              0.0212914797             0.00148052702           
       0.136172              0.0227914088             0.00152022558           
       0.136851              0.0209045614             0.00146440592           
       0.137530              0.0218401864             0.00146125649           
       0.138209              0.0192857398             0.00138926655           
       0.138889              0.0199524366             0.00141930446           
       0.139568              0.0215625643             0.00147482355           
       0.140247              0.0203947642             0.00143245073           
       0.140926               0.019120583             0.00134732443           
       0.141605              0.0194560354             0.00139362054           
       0.142284              0.0202178278             0.00139710086           
       0.142964              0.0201011359             0.00139839135           
       0.143643              0.0199223422             0.00139039966           
       0.144322              0.0186633015             0.00131758766           
       0.145001              0.0224160038             0.00147363021           
       0.145680              0.0209759105             0.00139178322           
       0.146359              0.0214254398               0.001411763           
       0.147039              0.0191796924               0.001346724           
       0.147718              0.0181677285             0.00128908607           
       0.148397               0.019949443             0.00137180929           
       0.149076              0.0190750438             0.00129979597           
       0.149755              0.0195844064             0.00133737177           
       0.150434              0.0173980322             0.00126102655           
       0.151114              0.0199173147              0.0013417783           
       0.151793              0.0168546391             0.00123432386           
       0.152472              0.0186115962             0.00127415192           
       0.153151               0.020028063             0.00133452714           
       0.153830              0.0201604826             0.00132917642           
       0.154509              0.0211442787             0.00135554145           
       0.155188              0.0179944805             0.00125004449           
       0.155868              0.0174677558             0.00122284902           
       0.156547              0.0178880561             0.00124542232           
       0.157226              0.0202150978             0.00129161734           
       0.157905              0.0183172927             0.00123982172           
       0.158584               0.020749506             0.00131717283           
       0.159263              0.0174465926             0.00121224173           
       0.159943              0.0170466044             0.00119915865           
       0.160622              0.0177936329             0.00120150844           
       0.161301              0.0196700542             0.00128016984           
       0.161980              0.0170663081             0.00117216252           
       0.162659              0.0201632949             0.00128820789           
       0.163338              0.0150830948             0.00110508624           
       0.164018              0.0177851823             0.00119369857           
       0.164697              0.0169181211             0.00117918669           
       0.165376              0.0168291712             0.00115038676           
       0.166055              0.0187865645             0.00122346338           
       0.166734              0.0171401563             0.00116338878           
       0.167413               0.019598041             0.00124488082           
       0.168093              0.0211071123             0.00130414139           
       0.168772              0.0188948815              0.0011978213           
       0.169451              0.0169298348             0.00115468621           
       0.170130              0.0153968879             0.00108671291           
       0.170809              0.0168867084             0.00115165669           
       0.171488              0.0168716002             0.00114064748           
       0.172168              0.0173512735             0.00114563603           
       0.172847              0.0167528061             0.00114049267           
       0.173526              0.0165110575              0.0011106348           
       0.174205               0.018967331             0.00119586596           
       0.174884              0.0166313665              0.0011139719           
       0.175563              0.0187081172             0.00118652157           
       0.176243              0.0208688086              0.0012657097           
       0.176922               0.016351811             0.00109119014           
       0.177601              0.0190408963             0.00119044124           
       0.178280              0.0172065526             0.00111901538           
       0.178959              0.0168977801             0.00111784901           
       0.179638                0.01800566             0.00115058949           
       0.180317              0.0172892587             0.00111925403           
       0.180997              0.0171804839             0.00112178354           
       0.181676              0.0176792012             0.00112579796           
       0.182355              0.0195853173             0.00119205139           
       0.183034              0.0168301139             0.00108729297           
       0.183713              0.0158715364               0.001068734           
       0.184392              0.0168706113              0.0011015245           
       0.185072              0.0159219208             0.00105790963           
       0.185751              0.0157984423             0.00105673109           
       0.186430              0.0172465302             0.00109636634           
       0.187109              0.0172539156             0.00110881365           
       0.187788              0.0178490403             0.00112499383           
       0.188467              0.0178761191             0.00111252347           
       0.189147              0.0165066647             0.00107988665           
       0.189826              0.0175439492             0.00109361265           
       0.190505              0.0167206578             0.00108521903           
       0.191184              0.0163060568             0.00105623481           
       0.191863              0.0166144391             0.00106842196           
       0.192542              0.0145263514             0.00100845041           
       0.193222              0.0150678923             0.00100405892           
       0.193901              0.0171381559             0.00108516912           
       0.194580              0.0177252519             0.00108429503           
       0.195259              0.0150288167             0.00100988756           
       0.195938              0.0154113038              0.0010250991           
       0.196617               0.016199026             0.00103630061           
       0.197297              0.0157965055             0.00102752285           
       0.197976              0.0160297787             0.00101918269           
       0.198655              0.0167734547             0.00105394399           
       0.199334               0.018342489             0.00109241714           
       0.200013              0.0147584406            0.000979351828           
       0.200692              0.0156117052             0.00101332352           
       0.201371              0.0142786896            0.000958182594           
       0.202051              0.0154039751            0.000998318123           
       0.202730              0.0161008366             0.00101045571           
       0.203409              0.0172452856             0.00105277087           
       0.204088              0.0169891442             0.00104376753           
       0.204767              0.0164425549             0.00102144284           
       0.205446              0.0168864118             0.00103716041           
       0.206126              0.0163063031             0.00100534278           
       0.206805              0.0167251126              0.0010368371           
       0.207484              0.0170434471             0.00102784146           
       0.208163              0.0165817073             0.00101991491           
       0.208842              0.0166700917             0.00101985835           
       0.209521              0.0155063736            0.000975442417           
       0.210201              0.0165081433             0.00101768922           
       0.210880               0.017274181             0.00102060547           
       0.211559              0.0153369409            0.000975893878           
       0.212238              0.0126536634            0.000881913126           
       0.212917              0.0158535543            0.000983477427           
       0.213596              0.0178262777             0.00104903934           
       0.214276              0.0143078531            0.000920248701           
       0.214955              0.0158572328            0.000989167601           
       0.215634              0.0147049589            0.000945723805           
       0.216313              0.0154423075            0.000967109387           
       0.216992              0.0168100558              0.0010087773           
       0.217671              0.0151004031            0.000949627467           
       0.218351              0.0161263911            0.000990956109           
       0.219030              0.0155416319            0.000957467928           
       0.219709              0.0168867601             0.00100426818           
       0.220388               0.015341774            0.000955995923           
       0.221067              0.0154387792            0.000959773829           
       0.221746              0.0175618722             0.00102259282           
       0.222426              0.0158524796            0.000957032012           
       0.223105              0.0170247718             0.00100529884           
       0.223784               0.016797991             0.00098867568           
       0.224463              0.0145121879            0.000926267655           
       0.225142              0.0147521688             0.00091911832           
       0.225821              0.0162611438            0.000968868583           
       0.226500              0.0150529163            0.000938106854           
       0.227180              0.0160102652            0.000952573104           
       0.227859              0.0158197117             0.00095113528           
       0.228538              0.0140918829            0.000888678187           
       0.229217              0.0146709495            0.000913930659           
       0.229896              0.0160118276            0.000954323148           
       0.230575              0.0164257966            0.000951172981           
       0.231255               0.015910922            0.000950162554           
       0.231934              0.0163539308            0.000956718231           
       0.232613              0.0144967211            0.000904080716           
       0.233292              0.0144464291            0.000893791211           
       0.233971              0.0126710413            0.000836679744           
       0.234650              0.0146163077            0.000909181266           
       0.235330              0.0142852735            0.000890977762           
       0.236009               0.013639358            0.000868725176           
       0.236688              0.0138107634            0.000871038361           
       0.237367                0.01532007            0.000918732612           
       0.238046              0.0147152635             0.00090675628           
       0.238725              0.0164759232             0.00094466753           
       0.239405              0.0134330794            0.000858275339           
       0.240084              0.0139100134            0.000867817405           
       0.240763              0.0161704794            0.000944636549           
       0.241442              0.0153792436            0.000908255119           
       0.242121              0.0148566313            0.000894374773           
       0.242800              0.0160397621            0.000933704638           
       0.243480              0.0133570033            0.000848060441           
       0.244159              0.0161668276               0.000933458           
       0.244838              0.0132841716            0.000832231224           
       0.245517              0.0144353788            0.000880021941           
       0.246196              0.0163385016            0.000936687838           
       0.246875              0.0155036824            0.000899724674           
       0.247554              0.0136975564            0.000854289956           
       0.248234              0.0139486169            0.000849011608           
       0.248913              0.0152640591            0.000898105765           
       0.249592              0.0153265529            0.000891390783           
       0.250271              0.0156182746             0.00089722119           
       0.250950              0.0139729041            0.000853843363           
       0.251629              0.0142504499            0.000854952801           
       0.252309              0.0127217573            0.000809434927           
       0.252988              0.0134518421            0.000817999754           
       0.253667              0.0146027625             0.00086223296           
       0.254346              0.0164666115            0.000915418842           
       0.255025              0.0150762325            0.000874000649           
       0.255704              0.0149880702             0.00086745015           
       0.256384              0.0141973599            0.000841337801           
       0.257063              0.0135489681            0.000826587421           
       0.257742              0.0137038918            0.000825539807           
       0.258421              0.0154358181            0.000874468406           
       0.259100              0.0121169941            0.000776128137           
       0.259779               0.013983912            0.000833070997           
       0.260459              0.0122886664            0.000782477892           
       0.261138              0.0125624878            0.000775686738           
       0.261817              0.0129344737            0.000802975351           
       0.262496               0.014497853            0.000841781692           
       0.263175              0.0113627886            0.000746830251           
       0.263854              0.0123658074            0.000775475851           
       0.264534              0.0140709897            0.000820151751           
       0.265213              0.0146788005            0.000850878959           
       0.265892              0.0133813383            0.000801996085           
       0.266571              0.0123227017            0.000767868219           
       0.267250              0.0120270057            0.000759877296           
       0.267929              0.0123705913            0.000769864677           
       0.268609              0.0134875674            0.000808271719           
       0.269288              0.0124695845            0.000764260418           
       0.269967              0.0139813841            0.000817983683           
       0.270646              0.0125692564             0.00077222332           
       0.271325              0.0131022347            0.000789742572           
       0.272004              0.0122698599            0.000756626832           
       0.272683              0.0115741199            0.000735770231           
       0.273363              0.0115911029            0.000741005936           
       0.274042              0.0121363447            0.000753760458           
       0.274721              0.0134670047            0.000793537303           
       0.275400              0.0123141166            0.000753786637           
       0.276079              0.0114166585            0.000729920152           
       0.276758              0.0123437289            0.000768555735           
       0.277438              0.0114584321             0.00073217042           
       0.278117              0.0109755906            0.000729608113           
       0.278796              0.0121308228            0.000759259223           
       0.279475              0.0125407229            0.000784733025           
       0.280154              0.0119757482            0.000755822112           
       0.280833               0.013186812            0.000797941853           
       0.281513              0.0119784623             0.00077243595           
       0.282192               0.011608421            0.000747438353           
       0.282871              0.0113646943            0.000744718063           
       0.283550              0.0122268278            0.000776588685           
       0.284229              0.0105871389            0.000733256174           
       0.284908              0.0104031942             0.00073452503           
       0.285588              0.0111012834            0.000749884208           
       0.286267             0.00976487485             0.00071456162           
       0.286946              0.0111120969            0.000757305109           
       0.287625              0.0107092013            0.000756107901           
       0.288304              0.0100655158            0.000723221209           
       0.288983               0.011770059            0.000791968072           
       0.289663              0.0113760298            0.000783155794           
       0.290342             0.00854821418            0.000675262314           
       0.291021              0.0109962734            0.000770000583           
       0.291700             0.00923223094            0.000696323088           
       0.292379              0.0110310713            0.000778570262           
       0.293058              0.0124309216            0.000823373822           
       0.293738              0.0107761353            0.000760176708           
       0.294417              0.0110926189            0.000780223219           
       0.295096              0.0102058423             0.00074015978           
       0.295775              0.0126236113            0.000835747814           
       0.296454              0.0100894444            0.000737501785           
       0.297133              0.0109408552            0.000771622504           
       0.297812             0.00975205045            0.000732149849           
       0.298492               0.010046918             0.00074457204           
       0.299171             0.00897293565            0.000702320186           
       0.299850              0.0104528015            0.000752849964           
       0.300529             0.00910424247             0.00071052398           
       0.301208             0.00976619573            0.000737691977           
       0.301887             0.00956301997            0.000729110733           
       0.302567              0.0105174072            0.000760798659           
       0.303246             0.00998475047            0.000746122628           
       0.303925             0.00986409367            0.000751122791           
       0.304604              0.0111183613            0.000780229465           
       0.305283               0.008549125            0.000694315072           
       0.305962             0.00869008327            0.000695786716           
       0.306642             0.00906114872             0.00072013588           
       0.307321             0.00853806956            0.000696808851           
       0.308000             0.00951034187            0.000726696932           
       0.308679             0.00980291529              0.0007537675           
       0.309358             0.00880558262            0.000704731993           
       0.310037             0.00926711597            0.000724575751           
       0.310717             0.00930127792            0.000725211639           
       0.311396             0.00731757941            0.000647560146           
       0.312075             0.00738353656            0.000658720736           
       0.312754             0.00859406088            0.000696453224           
       0.313433              0.0102508135            0.000767242527           
       0.314112             0.00990070975            0.000753853517           
       0.314792             0.00870753027            0.000711962937           
       0.315471             0.00966565195            0.000740834554           
       0.316150              0.0101308475            0.000765472176           
       0.316829             0.00932103785             0.00073908965           
       0.317508             0.00867431074             0.00070498782           
       0.318187             0.00802717355            0.000687127051           
       0.318866             0.00930090947             0.00072967295           
       0.319546             0.00829675107            0.000699489516           
       0.320225             0.00953058956            0.000749713883           
       0.320904             0.00808554084             0.00067986496           
       0.321583             0.00911319326            0.000737681768           
       0.322262             0.00929028487            0.000733526388           
       0.322941              0.0102631206            0.000780853626           
       0.323621             0.00753532481            0.000665001136           
       0.324300             0.00818887404            0.000693783154           
       0.324979             0.00817322104            0.000694372834           
       0.325658             0.00800959781            0.000688634256           
       0.326337             0.00782693733            0.000681625292           
       0.327016             0.00811985642            0.000689855257           
       0.327696             0.00777988744            0.000682769195           
       0.328375             0.00886524571            0.000722690528           
       0.329054             0.00765736035            0.000675298275           
       0.329733             0.00818691893            0.000700808696           
       0.330412             0.00847672268            0.000707261719           
       0.331091             0.00817646366            0.000707222696           
       0.331771             0.00827354408            0.000692767547           
       0.332450             0.00836147772              0.0007099608           
       0.333129             0.00687439705            0.000642078402           
       0.333808              0.0070114421            0.000649303974           
       0.334487             0.00727598656            0.000664575905           
       0.335166             0.00673315478             0.00062994836           
       0.335846             0.00731186778             0.00066799848           
       0.336525             0.00644951091            0.000621177306           
       0.337204             0.00670641735            0.000635088941           
       0.337883             0.00770188559            0.000681495651           
       0.338562             0.00650736745            0.000629898541           
       0.339241              0.0069808083            0.000653632791           
       0.339921             0.00683091009            0.000635733978           
       0.340600             0.00704954797            0.000658092433           
       0.341279               0.007381955            0.000666217932           
       0.341958             0.00704864395            0.000660188165           
       0.342637               0.007020672            0.000649568851           
       0.343316              0.0055433125            0.000578863411           
       0.343995             0.00661577709            0.000642740199           
       0.344675             0.00767313449             0.00067947869           
       0.345354             0.00669661864            0.000638958305           
       0.346033             0.00858971097            0.000721772653           
       0.346712             0.00623987823            0.000619101066           
       0.347391              0.0060912702            0.000615471853           
       0.348070             0.00573356757             0.00058864695           
       0.348750              0.0060946222            0.000615667534           
       0.349429             0.00628759598            0.000617265502           
       0.350108             0.00583493307            0.000601786585           
       0.350787             0.00780336561            0.000684106919           
       0.351466             0.00596546857            0.000609161877           
       0.352145             0.00747014011            0.000682236655           
       0.352825             0.00598565404              0.0006079318           
       0.353504             0.00554903332            0.000585195803           
       0.354183             0.00589176532            0.000596049951           
       0.354862             0.00580184094            0.000605228295           
       0.355541             0.00674747909            0.000644142253           
       0.356220             0.00579479806            0.000598066852           
       0.356900             0.00697513964            0.000662388338           
       0.357579             0.00576071323            0.000594588027           
       0.358258             0.00504734032              0.0005642585           
       0.358937             0.00515246283             0.00055938604           
       0.359616              0.0054964805            0.000585826752           
       0.360295             0.00555384363            0.000589366334           
       0.360975             0.00507373772            0.000560907375           
       0.361654             0.00532248136            0.000577454102           
       0.362333             0.00526759088            0.000571547718           
       0.363012             0.00578636913            0.000606738665           
       0.363691             0.00463457694            0.000532291788           
       0.364370             0.00513864808            0.000567444868           
       0.365050             0.00551739462            0.000584838688           
       0.365729             0.00605341957            0.000618430426           
       0.366408              0.0054090712            0.000585884975           
       0.367087             0.00441715899            0.000520955361           
       0.367766             0.00493555544            0.000562150934           
       0.368445             0.00517432436            0.000565368699           
       0.369124             0.00501413578            0.000560920535           
       0.369804              0.0051399754            0.000567006897           
       0.370483              0.0049202761            0.000557183986           
       0.371162             0.00515790164             0.00057378746           
       0.371841             0.00497216507            0.000553539154           
       0.372520             0.00373644927            0.000489467986           
       0.373199             0.00507625273            0.000563697936           
       0.373879             0.00563229836            0.000600643755           
       0.374558             0.00472643342            0.000542196669           
       0.375237             0.00561317545            0.000591841925           
       0.375916             0.00473522434            0.000554004054           
       0.376595             0.00485535913            0.000550023461           
       0.377274             0.00554838368            0.000597379701           
       0.377954             0.00473038514            0.000542923919           
       0.378633             0.00460390657             0.00054238526           
       0.379312             0.00421959864            0.000519123331           
       0.379991             0.00392693998            0.000498205417           
       0.380670             0.00459633328            0.000548524542           
       0.381349              0.0039500488            0.000501199458           
       0.382029             0.00596715128            0.000624843723           
       0.382708              0.0039444973            0.000496929511           
       0.383387             0.00440505124            0.000537040057           
       0.384066             0.00572029867            0.000606369468           
       0.384745             0.00403092707            0.000511015816           
       0.385424             0.00509950307            0.000576724429           
       0.386104             0.00351589507            0.000473583175           
       0.386783              0.0036810631            0.000495060789           
       0.387462             0.00405131051            0.000506441292           
       0.388141             0.00426322157             0.00052781521           
       0.388820             0.00406924276            0.000511939886           
       0.389499             0.00444149136            0.000537854232           
       0.390178             0.00533156008            0.000591634311           
       0.390858             0.00415330358            0.000517958026           
       0.391537             0.00523525332            0.000587460675           
       0.392216             0.00436549872            0.000529723149           
       0.392895             0.00292636923            0.000435168259           
       0.393574             0.00508473781            0.000572201619           
       0.394253             0.00351619161            0.000477969802           
       0.394933             0.00354140672            0.000485161958           
       0.395612             0.00393996003            0.000496869978           
       0.396291             0.00412272164            0.000518610996           
       0.396970             0.00435241685            0.000528141136           
       0.397649             0.00490600823            0.000562450057           
       0.398328             0.00333564649            0.000461739126           
       0.399008             0.00465252519            0.000544134375           
       0.399687             0.00392315742            0.000501609028           
       0.400366             0.00375903843            0.000489126945           
       0.401045             0.00488455723            0.000556511194           
       0.401724             0.00420100743            0.000516966434           
       0.402403              0.0043985749             0.00053310581           
       0.403083             0.00414127953            0.000509819846           
       0.403762             0.00443312701            0.000530079324           
       0.404441              0.0042299619            0.000521088236           
       0.405120             0.00454373858            0.000538298546           
       0.405799             0.00398875333            0.000502162536           
       0.406478             0.00423156022            0.000517233791           
       0.407158             0.00370898377            0.000483335014           
       0.407837             0.00371118838            0.000487746004           
       0.408516             0.00382425692            0.000490813059           
       0.409195             0.00386718293            0.000499158897           
       0.409874               0.004366688            0.000537796942           
       0.410553             0.00379690184            0.000506877316           
       0.411233             0.00295424515            0.000444790251           
       0.411912             0.00380161321            0.000511712879           
       0.412591              0.0029622209            0.000454690541           
       0.413270             0.00339889206            0.000484738735           
       0.413949             0.00293821604            0.000455615581           
       0.414628             0.00361889531            0.000504735978           
       0.415307             0.00307382572             0.00047034885           
       0.415987             0.00265201065            0.000433285788           
       0.416666             0.00282946144            0.000444854358           
       0.417345             0.00307753037            0.000471693224           
       0.418024             0.00366971818            0.000515093279           
       0.418703             0.00212960186            0.000391669861           
       0.419382              0.0038216033            0.000522107951           
       0.420062             0.00341900096            0.000495224603           
       0.420741             0.00301672971            0.000467653594           
       0.421420             0.00311222936            0.000476799533           
       0.422099             0.00245439787            0.000423432115           
       0.422778             0.00271780811            0.000447987813           
       0.423457             0.00214166388            0.000400112912           
       0.424137             0.00278203051            0.000448592487           
       0.424816             0.00343699889            0.000509030308           
       0.425495             0.00278048024            0.000457407002           
       0.426174             0.00321716871            0.000492188953           
       0.426853             0.00236628409            0.000419548646           
       0.427532             0.00240694728            0.000426715649           
       0.428212             0.00221193666             0.00041176466           
       0.428891             0.00304658759            0.000482148293           
       0.429570             0.00266007022            0.000450834552           
       0.430249             0.00283935226              0.0004633611           
       0.430928             0.00268345991            0.000460311705           
       0.431607             0.00226904484            0.000416005371           
       0.432287             0.00247465164            0.000437626496           
       0.432966              0.0024401066            0.000438383635           
       0.433645             0.00189848199             0.00038708511           
       0.434324             0.00195109936            0.000390047144           
       0.435003             0.00249790387            0.000442085625           
       0.435682             0.00253850093            0.000449318793           
       0.436361             0.00230471218            0.000427555639           
       0.437041              0.0018978316            0.000387465608           
       0.437720             0.00200493971            0.000400170177           
       0.438399             0.00242134205            0.000442061319           
       0.439078             0.00216717966            0.000430344709           
       0.439757             0.00188423815             0.00039879819           
       0.440436             0.00215210412             0.00043580858           
       0.441116             0.00240567645            0.000468302937           
       0.441795             0.00224277166             0.00045271379           
       0.442474              0.0034382271            0.000562092499           
       0.443153             0.00200004701            0.000438708608           
       0.443832             0.00219333247            0.000460192683           
       0.444511             0.00292773987            0.000529288484           
       0.445191             0.00209121357            0.000458207724           
       0.445870             0.00178708965             0.00042359248           
       0.446549             0.00224513086            0.000479790448           
       0.447228             0.00200073793            0.000450365261           
       0.447907             0.00239338594            0.000498489918           
       0.448586             0.00315316647            0.000585934832           
       0.449266             0.00172192083            0.000429011792           
       0.449945             0.00254761649            0.000519702289           
       0.450624               0.003421161            0.000611810508           
       0.451303             0.00215120142            0.000491432858           
       0.451982             0.00201751696            0.000472976051           
       0.452661             0.00278693403            0.000566252844           
       0.453341              0.0031482303            0.000603948066           
       0.454020             0.00259433103            0.000549085986           
       0.454699             0.00157323029            0.000431491581           
       0.455378             0.00251805712            0.000546187763           
       0.456057             0.00151851801            0.000431692984           
       0.456736            0.000782757322            0.000308974186           
       0.457416             0.00222725236            0.000521201518           
       0.458095             0.00169010427             0.00046059348           
       0.458774             0.00225834356            0.000539458411           
       0.459453            0.000972412259            0.000355773037           
       0.460132             0.00178632429            0.000471787205           
       0.460811             0.00222207256             0.00054582512           
       0.461490             0.00191280054            0.000501267622           
       0.462170             0.00212024006             0.00053598462           
       0.462849             0.00297207805            0.000638701027           
       0.463528             0.00227527211            0.000557539841           
       0.464207             0.00110536382            0.000395879399           
       0.464886             0.00136229922            0.000436065372           
       0.465565             0.00111744162            0.000399275382           
       0.466245             0.00197630197            0.000532638238           
       0.466924             0.00118869196            0.000422843737           
       0.467603             0.00113131479            0.000403762632           
       0.468282              0.0020884035            0.000561590644           
       0.468961            0.000888250945            0.000368658432           
       0.469640             0.00184671066            0.000533684828           
       0.470320            0.000768662613             0.00034455089           
       0.470999             0.00156469235            0.000496223145           
       0.471678            0.000965666019            0.000393577754           
       0.472357            0.000967080962            0.000394965556           
       0.473036             0.00131504163            0.000463479205           
       0.473715            0.000850353032            0.000375616218           
       0.474395            0.000869553479            0.000385083633           
       0.475074             0.00154446228            0.000513225486           
       0.475753             0.00183570732            0.000554699285           
       0.476432            0.000589530089             0.00032579077           
       0.477111            4.06836426e-05            8.45496532e-05           
       0.477790            0.000919433311            0.000404088305           
       0.478470            0.000595815169            0.000329592674           
       0.479149             0.00134885755            0.000501041573           
       0.479828             0.00114939161            0.000461425043           
       0.480507            5.61968387e-05            0.000102851456           
       0.481186             0.00105316575            0.000455285865           
       0.481865            0.000261195579            0.000223927356           
       0.482545             0.00046407022            0.000301986629           
       0.483224             0.00106234903             0.00046003082           
       0.483903            0.000703339823            0.000380209955           
       0.484582            0.000328759489            0.000264171313           
       0.485261            8.35847193e-05            0.000129826998           
       0.485940            0.000985320919            0.000463730819           
       0.486619            0.000928172413            0.000445130754           
       0.487299            0.000112329753            0.000157322012           
       0.487978           -9.65152974e-05                         0           
       0.488657            0.000146819292            0.000185373482           
       0.489336           -8.65184213e-05                         0           
       0.490015            0.000353167732            0.000284684793           
       0.490694           -7.19525461e-05                         0           
       0.491374           -7.85378277e-05                         0           
       0.492053           -0.000312069024                         0           
       0.492732           -0.000312087896                         0           
       0.493411           -5.73765134e-05                         0           
       0.494090            0.000185652836            0.000216691436           
       0.494769           -0.000312145125                         0           
       0.495449           -0.000312164261                         0           
       0.496128           -4.85750647e-05                         0           
       0.496807           -0.000312202441                         0           
       0.497486             -0.0003122216                         0           
       0.498165           -0.000312241035                         0           
       0.498844           -0.000312260177                         0           
       0.499524            -0.00031227941                         0           
       0.500203           -0.000312298947                         0           
       0.500882           -1.59142052e-05                         0           
       0.501561           -0.000312337314                         0           
       0.502240           -0.000312356783                         0           
       0.502919           -0.000312376167                         0           
       0.503599            0.000277265152            0.000285793044           
       0.504278           -1.43507371e-06                         0           
       0.504957           -7.24429049e-08                         0           
       0.505636           -0.000312454243                         0           
       0.506315            1.23881452e-05             6.3010134e-05           
       0.506994            2.53372053e-05            9.16345257e-05           
       0.507673           -0.000312512589                         0           
       0.508353            6.21164783e-06            4.48687589e-05           
       0.509032            -0.00031255193                         0           
       0.509711           -0.000312571566                         0           
       0.510390             0.00144519862            0.000713723682           
       0.511069            4.17808209e-05            0.000121725258           
       0.511748           -0.000312631187                         0           
       0.512428            0.000433148469            0.000401818897           
       0.513107            -0.00031267076                         0           
       0.513786           -0.000312690454                         0           
       0.514465           -0.000312710485                         0           
       0.515144            9.48245606e-05            0.000197019546           
       0.515823           -0.000312750336                         0           
       0.516503           -0.000312770356                         0           
       0.517182           -0.000312790374                         0           
       0.517861           -0.000312810344                         0           
       0.518540           -0.000312830427                         0           
       0.519219            0.000116581099            0.000222824463           
       0.519898           -0.000312870561                         0           
       0.520578            -0.00031289085                         0           
       0.521257           -0.000312910878                         0           
       0.521936           -0.000312930953                         0           
       0.522615            0.000158709717            0.000273267028           
       0.523294            -0.00031297166                         0           
       0.523973           -0.000312991769                         0           
       0.524653            0.000199081875            0.000317787617           
       0.525332           -0.000313031988                         0           
       0.526011           -0.000313052608                         0           
       0.526690           -0.000313073187                         0           
       0.527369           -0.000313093598                         0           
       0.528048           -0.000313114153                         0           
       0.528728           -0.000313134684                         0           
       0.529407            -0.00031315512                         0           
       0.530086           -0.000313175451                         0           
       0.530765            -0.00031319581                         0           
       0.531444           -0.000313216389                         0           
       0.532123           -0.000313237333                         0           
       0.532802           -0.000313258105                         0           
       0.533482           -0.000313278807                         0           
       0.534161           -0.000313299541                         0           
       0.534840           -0.000313320098                         0           
       0.535519           -0.000313341036                         0           
       0.536198           -0.000313361757                         0           
       0.536877           -0.000313382192                         0           
       0.537557            0.000262448412            0.000384758885           
       0.538236           -0.000313423953                         0           
       0.538915            -0.00031344492                         0           
       0.539594           -0.000313465858                         0           
       0.540273           -0.000313487124                         0           
       0.540952           -0.000313508153                         0           
       0.541632           -0.000313528797                         0           
       0.542311           -0.000313549631                         0           
       0.542990           -0.000313570698                         0           
       0.543669           -0.000313591941                         0           
       0.544348           -0.000313613159                         0           
       0.545027           -0.000313634331                         0           
       0.545707           -0.000313655567                         0           
       0.546386           -0.000313676863                         0           
       0.547065           -0.000313697903                         0           
       0.547744           -0.000313719039                         0           
       0.548423           -0.000313740408                         0           
       0.549102           -0.000313761798                         0           
       0.549782             0.00110054559            0.000890577604           
       0.550461            0.000492910896            0.000629773287           
       0.551140           -0.000313826281                         0           
       0.551819            -0.00031384769                         0           
       0.552498            0.000495572773            0.000631536547           
       0.553177            0.000508743359            0.000648845179           
       0.553856             -0.0003139118                         0           
       0.554536           -0.000313933168                         0           
       0.555215           -0.000313954861                         0           
       0.555894           -0.000313976503                         0           
       0.556573           -0.000313998274                         0           
       0.557252            0.000564653483            0.000706464996           
       0.557931            -0.00031404168                         0           
       0.558611           -0.000314063841                         0           
       0.559290           -0.000314085437                         0           
       0.559969           -0.000314106503                         0           
       0.560648            0.000571267231            0.000713399652           
       0.561327           -0.000314150233                         0           
       0.562006           -0.000314172236                         0           
       0.562686            0.000886035498             0.00102601538           
       0.563365           -0.000314216348                         0           
       0.564044           -0.000314238334                         0           
       0.564723            -0.00031426027                         0           
       0.565402            0.000807392075            0.000974649908           
       0.566081           -0.000314303469                         0           
       0.566761           -0.000314325374                         0           
       0.567440           -0.000314347723                         0           
       0.568119            0.000829751127            0.000973694191           
       0.568798           -0.000314392381                         0           
       0.569477           -0.000314414721                         0           
       0.570156            -0.00031443717                         0           
       0.570836           -0.000314459534                         0           
       0.571515           -0.000314481425                         0           
       0.572194           -0.000314503951                         0           
       0.572873           -0.000314525962                         0           
       0.573552           -0.000314547843                         0           
       0.574231           -0.000314570168                         0           
       0.574911           -0.000314593055                         0           
       0.575590           -0.000314615503                         0           
       0.576269           -0.000314637881                         0           
       0.576948           -0.000314660689                         0           
       0.577627           -0.000314682802                         0           
       0.578306           -0.000314705227                         0           
       0.578985           -0.000314727844                         0           
       0.579665            -0.00031475033                         0           
       0.580344           -0.000314773156                         0           
       0.581023           -0.000314795958                         0           
       0.581702             0.00428892288             0.00317955296           
       0.582381             0.00474286428             0.00348605166           
       0.583060           -0.000314863988                         0           
       0.583740           -0.000314886679                         0           
       0.584419             0.00249019418             0.00274361986           
       0.585098           -0.000314932186                         0           
       0.585777           -0.000314955102                         0           
       0.586456           -0.000314978392                         0           
       0.587135           -0.000315001062                         0           
       0.587815           -0.000315023488                         0           
       0.588494           -0.000315046612                         0           
       0.589173           -0.000315070268                         0           
       0.589852           -0.000315092666                         0           
       0.590531           -0.000315115909                         0           
       0.591210           -0.000315138615                         0           
       0.591890           -0.000315161761                         0           
       0.592569           -0.000315184132                         0           
       0.593248            -0.00031520859                         0           
       0.593927           -0.000315231843                         0           
       0.594606           -0.000315255575                         0           
       0.595285           -0.000315277893                         0           
       0.595965            -0.00031529872                         0           
       0.596644           -0.000315320151                         0           
