################################################################################
# EDF_DataBlockID                     0.Image.Psd
# EDF_BinarySize                      4366944
# EDF_HeaderSize                      2560
# ByteOrder                           LowByteFirst
# DataType                            FloatValue
# Dim_1                               1028
# Dim_2                               1062
# Image                               0
# HeaderID                            EH:000000:000000:000000
# Size                                4366944
# Center_1                            607.5200
# Center_2                            651.5500
# Comment                             Xenocs_Cell_Window - 20251028_20perc_iodine_1.23mg
# DDummy                              0.6
# Date                                2025-11-02T03:10:53
# Delta                               0
# Dummy                               -1.5
# ExposureTime                        360
# Gamma                               0
# Intensity1                          8.78675e-10
# PSize_1                             7.5e-05
# PSize_2                             7.5e-05
# Pressure                            0.0327082
# SampleDistance                      0.450002
# SampleEnvKind                       large
# SampleEnvPN                         ElectroChemical cell
# SampleEnvSN                         1141
# Thickness                           0
# Wavelength                          1.541891e-10
# Wavelength                          1.54189e-10
# aux                                 0
# aux_dial                            0.002375
# beamx                               588.434
# beamx_dial                          588.434
# beamz                               657.808
# beamz_dial                          657.808
# det0x                               0
# det0x_dial                          6.36945
# det0xvd                             0
# det0xvd_dial                        0
# det0y                               450.002
# det0y_dial                          481.635
# det0z                               0
# det0z_dial                          1.23302
# det0zvd                             0
# det0zvd_dial                        0
# mag                                 1.818
# mag_dial                            1.818
# om                                  0.2499
# om_dial                             -0.610199
# phi                                 -0.0120535
# phi_dial                            0
# ry                                  0.599993
# ry_dial                             0.599993
# s1bot                               0.8
# s1bot_dial                          -1.66094
# s1hl                                0.8
# s1hl_dial                           -0.608437
# s1hr                                0.8
# s1hr_dial                           0.970938
# s1top                               0.8
# s1top_dial                          -0.461562
# s2bot                               0.45
# s2bot_dial                          1.36109
# s2hl                                0.45
# s2hl_dial                           -0.83375
# s2hr                                0.45
# s2hr_dial                           -0.118594
# s2top                               0.45
# s2top_dial                          1.44734
# w2theta                             32
# w2theta_dial                        32
# waxsch                              19.2605
# waxsch_dial                         -32.7355
# waxsh                               137.085
# waxsh_dial                          -43.5338
# waxsth                              26.0607
# waxsth_dial                         -19.4086
# waxsz                               67.0407
# waxsz_dial                          -23.7954
# wind                                65.9854
# wind_dial                           66.0041
# wpsi                                124
# wpsi_dial                           124
# wstod                               115
# wstod_dial                          115
# x                                   0
# x_dial                              1.00969
# z                                   0
# z_dial                              13.3172
# CountCutoff                         15302352
# DetectorModel                       Dectris EIGER2 Si 1M, S/N E-02-0362
# ThresholdSetting                    4023.88989258
# Saturation                          0
# FlatField                           Corrected
# BackgroundReductionExtra            0.02
# BackgroundCorrectionConstant        0.0026712
# Detector                            0
# Monitor                             0
# Pil_Roi0                            0
# SumForIntensity1                    3.16323e+08
# TransmittedFlux                     878675
# det                                 0
# mon                                 0
# pilai0                              3.16323e+08
# pilai1                              793727
# pilct0                              5.46342e+08
# pilct1                              793727
# pilroi0                             0
# pilroi1                             0
# sec                                 1
# title                               20251028_20perc_iodine_1.23mg_0_00989.edf
# usaxs0                              0
# Operation                           Azimuthal average I(q)
# Error_model                         ErrorModel.poisson
# Geometrical_correction              True
# Transmission_correction             True
# Thickness_correction                False
# Binning mode                        Uniform
# Binning factor                      1.0
# Psi                                 0.0
# Omega                               0.2499
# MaskInvalidPixels                   True
# DetectorEdge                        3
# MaskFiles                           ['20251028_20perc_iodine_1.23mg_0_00012_mask.edf']
################################################################################
    q(A⁻¹)                Intensity(a.u.)            Sigma_I(a.u.)            
       0.000340                372571.715                118.886383           
       0.001019                359540.729                71.5182484           
       0.001698                350045.326                49.8987884           
       0.002377                330851.153                 43.389958           
       0.003056                307594.341                35.3588497           
       0.003735                 253700.27                28.3202626           
       0.004415                204517.681                25.4274228           
       0.005094                152230.635                18.9984731           
       0.005773                100061.298                14.2602616           
       0.006452                58090.4292                10.4106053           
       0.007131                32203.6374                7.50904265           
       0.007810                16250.7105                5.29362515           
       0.008490                8213.46998                3.33589896           
       0.009169                3976.71237                2.29404694           
       0.009848                1230.63712                1.23384551           
       0.010527                480.341936               0.770852516           
       0.011206                 119.75318               0.367344109           
       0.011885                54.8915875               0.231073698           
       0.012564                25.0556681               0.160281125           
       0.013244                17.0520005               0.123616667           
       0.013923                12.0544646               0.105611932           
       0.014602                9.27223403              0.0859045448           
       0.015281                7.39619291              0.0781010617           
       0.015960                6.06815086              0.0702355415           
       0.016639                4.84576557              0.0592685867           
       0.017319                4.07559594              0.0535096006           
       0.017998                3.44025828              0.0470330385           
       0.018677                2.85823085              0.0444018753           
       0.019356                2.49972124              0.0410296258           
       0.020035                2.05136758                0.03487119           
       0.020714                1.83579452              0.0333372133           
       0.021394                1.54889217              0.0289732827           
       0.022073                1.40433233              0.0287032728           
       0.022752                1.23940128              0.0257950259           
       0.023431                1.11766736              0.0237773569           
       0.024110               0.995639734              0.0233972659           
       0.024789               0.846527669              0.0200361733           
       0.025469               0.803371193              0.0201142756           
       0.026148               0.680850183              0.0173983068           
       0.026827               0.645677612              0.0172140845           
       0.027506                0.61126933              0.0169906657           
       0.028185               0.531380366              0.0151071714           
       0.028864               0.509710174              0.0147129028           
       0.029544                0.47031531              0.0137049367           
       0.030223               0.446515044              0.0135451518           
       0.030902               0.383407461              0.0126663748           
       0.031581               0.372875143              0.0118742394           
       0.032260               0.349515385              0.0116921624           
       0.032939               0.290479938              0.0102776768           
       0.033619               0.290826606              0.0104349462           
       0.034298               0.257478458             0.00955495794           
       0.034977               0.263888108              0.0094830591           
       0.035656                0.24326173              0.0093458754           
       0.036335               0.218460055             0.00858983322           
       0.037014               0.196257409             0.00816592258           
       0.037693               0.191120596             0.00775202384           
       0.038373               0.202520314             0.00805817662           
       0.039052               0.166049708             0.00732766176           
       0.039731               0.165827895             0.00715211243           
       0.040410               0.163223489             0.00704815297           
       0.041089               0.148628469             0.00662030866           
       0.041768               0.146248348              0.0066013961           
       0.042448               0.132054829             0.00622421215           
       0.043127               0.135646318             0.00615929555           
       0.043806               0.118928027             0.00581025684           
       0.044485               0.114428822             0.00558220988           
       0.045164               0.105836625             0.00547435214           
       0.045843               0.111263726             0.00538350432           
       0.046523               0.101476527             0.00515903127           
       0.047202              0.0992053717             0.00513661699           
       0.047881              0.0912658545             0.00483177703           
       0.048560              0.0909035929              0.0048661311           
       0.049239              0.0900076253             0.00464928102           
       0.049918              0.0926670764             0.00480968856           
       0.050598                0.09711579             0.00484991338           
       0.051277              0.0899520878             0.00465280009           
       0.051956              0.0829354368             0.00443959163           
       0.052635               0.079849666             0.00426376903           
       0.053314              0.0785400849             0.00435229376           
       0.053993              0.0770561536             0.00419274371           
       0.054673              0.0750062857             0.00404445464           
       0.055352              0.0748891168             0.00410065515           
       0.056031              0.0721878519             0.00394142789           
       0.056710              0.0725046563             0.00404686327           
       0.057389              0.0621291615             0.00361243854           
       0.058068              0.0765375883             0.00405083024           
       0.058748              0.0665460193             0.00382429715           
       0.059427              0.0617603348             0.00362184163           
       0.060106              0.0713897792              0.0039308255           
       0.060785              0.0699352313             0.00377400393           
       0.061464              0.0633570734             0.00367871236           
       0.062143              0.0634267117             0.00364334385           
       0.062822              0.0654713853             0.00365816544           
       0.063502              0.0545991075             0.00333467672           
       0.064181              0.0514789069             0.00320379844           
       0.064860              0.0548354406             0.00335695933           
       0.065539              0.0578272617             0.00341361149           
       0.066218               0.047567266             0.00302971551           
       0.066897               0.053692373             0.00324372318           
       0.067577               0.054418099             0.00329694431           
       0.068256              0.0538100993             0.00335900884           
       0.068935              0.0490226917             0.00315426469           
       0.069614              0.0525586421             0.00329855375           
       0.070293              0.0460303955             0.00311537387           
       0.070972              0.0441388484             0.00302835497           
       0.071652              0.0492803334             0.00320574491           
       0.072331              0.0496351268             0.00315992485           
       0.073010              0.0444317672             0.00305802132           
       0.073689              0.0369195941             0.00277222888           
       0.074368              0.0409148208             0.00291306645           
       0.075047              0.0470660459              0.0030907983           
       0.075727              0.0437601568             0.00296186689           
       0.076406              0.0416316683             0.00294657757           
       0.077085              0.0372188934             0.00273397491           
       0.077764              0.0385040072             0.00277103052           
       0.078443              0.0367612199             0.00272435623           
       0.079122              0.0414409816             0.00286478258           
       0.079802              0.0398832437              0.0028402313           
       0.080481              0.0443808251              0.0028950352           
       0.081160              0.0352840778             0.00263431128           
       0.081839              0.0302956958             0.00240192274           
       0.082518               0.035902938             0.00261697256           
       0.083197              0.0367939859             0.00260808421           
       0.083876              0.0378950816             0.00260284023           
       0.084556              0.0341639968             0.00254011709           
       0.085235               0.030162882             0.00234063102           
       0.085914              0.0381965457             0.00265954329           
       0.086593               0.035103751             0.00253318904           
       0.087272              0.0367490641             0.00255523773           
       0.087951              0.0328595956             0.00247081587           
       0.088631              0.0306728903             0.00230587917           
       0.089310              0.0318105608             0.00239805788           
       0.089989              0.0274163332             0.00220024731           
       0.090668              0.0348186458             0.00250691909           
       0.091347              0.0330622267             0.00245654766           
       0.092026              0.0358414108             0.00244475927           
       0.092706              0.0348107684             0.00249680517           
       0.093385              0.0361331776              0.0025047249           
       0.094064                0.02859405             0.00225408438           
       0.094743               0.030016016             0.00227425757           
       0.095422              0.0292627698             0.00222050001           
       0.096101              0.0298681616             0.00228955389           
       0.096781              0.0321851299             0.00234266896           
       0.097460              0.0310383345             0.00223779838           
       0.098139               0.031525626             0.00223794286           
       0.098818              0.0274794828             0.00206366851           
       0.099497               0.026508613             0.00203104675           
       0.100176              0.0270624178             0.00199829346           
       0.100856              0.0266001935             0.00197988509           
       0.101535              0.0311467633             0.00213828525           
       0.102214              0.0310165955             0.00213382565           
       0.102893               0.028034438             0.00200553907           
       0.103572              0.0302437534             0.00205229319           
       0.104251              0.0216580065             0.00174313983           
       0.104931              0.0256561742             0.00187995299           
       0.105610               0.026009887             0.00190094213           
       0.106289              0.0237878762             0.00178767812           
       0.106968              0.0285314042             0.00196363174           
       0.107647              0.0276180042             0.00193310389           
       0.108326              0.0244291818             0.00179376011           
       0.109005              0.0245314484             0.00178620131           
       0.109685              0.0257082122             0.00180803048           
       0.110364              0.0217448457             0.00168171681           
       0.111043              0.0243993073             0.00177434503           
       0.111722              0.0252119255             0.00178160471           
       0.112401              0.0241805275             0.00174963419           
       0.113080              0.0239415353             0.00172101573           
       0.113760               0.020875086             0.00163386796           
       0.114439              0.0261323845             0.00180197826           
       0.115118              0.0248748707             0.00174483092           
       0.115797              0.0224747394             0.00167388296           
       0.116476              0.0220386149             0.00163275357           
       0.117155              0.0227619629             0.00167271539           
       0.117835              0.0211263281             0.00157945977           
       0.118514              0.0249376141             0.00173778489           
       0.119193              0.0234764743             0.00168611866           
       0.119872              0.0229406766             0.00164592152           
       0.120551              0.0222735823             0.00161101096           
       0.121230              0.0259195205              0.0017203799           
       0.121910              0.0191001008             0.00149109699           
       0.122589              0.0203004453             0.00153882112           
       0.123268              0.0237669819             0.00163277397           
       0.123947               0.023292764             0.00162685655           
       0.124626              0.0189199553             0.00144829163           
       0.125305              0.0252833147             0.00168243764           
       0.125985              0.0257760319             0.00168557064           
       0.126664              0.0212946437             0.00151746075           
       0.127343              0.0235289167             0.00161357192           
       0.128022              0.0240409077             0.00161852315           
       0.128701              0.0204553877             0.00148518004           
       0.129380              0.0212081284              0.0014933195           
       0.130059               0.021076458             0.00149213388           
       0.130739              0.0185014348             0.00140784574           
       0.131418              0.0223353655             0.00154252169           
       0.132097              0.0247706239             0.00160360519           
       0.132776              0.0203359773             0.00144642648           
       0.133455              0.0228533482              0.0015452538           
       0.134134              0.0181499614             0.00137270593           
       0.134814              0.0197819625             0.00141832671           
       0.135493              0.0204700286             0.00144862121           
       0.136172              0.0186350638             0.00137173459           
       0.136851              0.0187930244             0.00138554771           
       0.137530              0.0202980058             0.00140574701           
       0.138209              0.0201158125             0.00141585382           
       0.138889              0.0230924242             0.00152368279           
       0.139568              0.0205529186             0.00143684132           
       0.140247              0.0228037418             0.00151149113           
       0.140926              0.0195076966             0.00135802202           
       0.141605              0.0210487027             0.00144647932           
       0.142284              0.0200389992             0.00138797206           
       0.142964              0.0187489216             0.00134768617           
       0.143643               0.020248147             0.00139876351           
       0.144322              0.0203496415             0.00137292199           
       0.145001               0.022551021             0.00147494125           
       0.145680              0.0180457162             0.00128819155           
       0.146359              0.0193260679             0.00133798385           
       0.147039              0.0203946657             0.00138579271           
       0.147718              0.0196922397             0.00133924907           
       0.148397              0.0196054107             0.00135705836           
       0.149076              0.0184513043             0.00127566943           
       0.149755              0.0203163532             0.00135925838           
       0.150434              0.0215145873             0.00139933879           
       0.151114              0.0190365597              0.0013090065           
       0.151793              0.0211828293             0.00138084069           
       0.152472              0.0199143517             0.00131520875           
       0.153151              0.0157138354             0.00117959041           
       0.153830              0.0195709948             0.00130683517           
       0.154509              0.0211123915             0.00135165943           
       0.155188              0.0174882872             0.00122973533           
       0.155868              0.0193782112             0.00128526691           
       0.156547              0.0210135031             0.00134699659           
       0.157226               0.018898036             0.00124619636           
       0.157905              0.0185580437             0.00124530833           
       0.158584              0.0177405153             0.00121535793           
       0.159263               0.017201871             0.00120116858           
       0.159943              0.0177140353             0.00121982816           
       0.160622              0.0193134973             0.00124912866           
       0.161301              0.0169549056             0.00118602733           
       0.161980              0.0194694426             0.00124932951           
       0.162659              0.0177834011             0.00120724333           
       0.163338              0.0187827813             0.00123058917           
       0.164018              0.0181890593             0.00120462766           
       0.164697              0.0186593094              0.0012357667           
       0.165376              0.0182184238             0.00119440087           
       0.166055              0.0172948817             0.00117140828           
       0.166734              0.0177631578             0.00118184295           
       0.167413              0.0166823352             0.00114612521           
       0.168093              0.0173238477             0.00117900228           
       0.168772              0.0192534691             0.00120658144           
       0.169451              0.0179638816              0.0011869158           
       0.170130              0.0173923596             0.00115255008           
       0.170809              0.0171183147              0.0011570796           
       0.171488              0.0178865875             0.00117197744           
       0.172168              0.0175075801             0.00114835521           
       0.172847              0.0166796724             0.00113559815           
       0.173526              0.0188749143             0.00118497319           
       0.174205              0.0158902139             0.00109226109           
       0.174884              0.0151338784             0.00106039479           
       0.175563              0.0150499288             0.00106196455           
       0.176243              0.0145934996             0.00105620253           
       0.176922              0.0182642364             0.00115080162           
       0.177601              0.0172417643             0.00113041346           
       0.178280               0.013743908            0.000997990577           
       0.178959              0.0173601429             0.00113064734           
       0.179638              0.0152012574             0.00105496448           
       0.180317              0.0171481524              0.0011123241           
       0.180997              0.0166966574             0.00110354064           
       0.181676              0.0162561613             0.00107725951           
       0.182355              0.0151378433             0.00104578853           
       0.183034              0.0167364254             0.00108197345           
       0.183713              0.0165358087             0.00108856674           
       0.184392              0.0166734951             0.00109275869           
       0.185072              0.0145144441             0.00100793666           
       0.185751              0.0165830852             0.00108036926           
       0.186430              0.0174494263             0.00110046846           
       0.187109              0.0199022181             0.00118835902           
       0.187788              0.0163331687             0.00107389082           
       0.188467              0.0165006284              0.0010666084           
       0.189147              0.0144471001             0.00100814046           
       0.189826               0.016247332             0.00105020256           
       0.190505              0.0166682666             0.00108123013           
       0.191184              0.0164445603              0.0010584719           
       0.191863              0.0169881231              0.0010780896           
       0.192542              0.0162051938              0.0010628833           
       0.193222              0.0179443485              0.0010933998           
       0.193901              0.0156848949             0.00103594903           
       0.194580              0.0167236844             0.00105099207           
       0.195259              0.0150288438             0.00100775651           
       0.195938              0.0182932971             0.00111448532           
       0.196617              0.0155411534             0.00101289663           
       0.197297              0.0164211318             0.00104542942           
       0.197976              0.0166647135             0.00103697765           
       0.198655              0.0159668754             0.00102612068           
       0.199334              0.0154819523             0.00100150802           
       0.200013              0.0151921821            0.000991541235           
       0.200692              0.0151337279            0.000995584464           
       0.201371              0.0151808515            0.000985903402           
       0.202051               0.016188454             0.00102126262           
       0.202730              0.0164789364             0.00102009319           
       0.203409               0.016200964             0.00101824266           
       0.204088               0.016143373             0.00101530697           
       0.204767              0.0151659003            0.000978916648           
       0.205446              0.0149064208            0.000972402641           
       0.206126              0.0159881155            0.000993384192           
       0.206805              0.0151793702            0.000985678032           
       0.207484              0.0152375958            0.000969812636           
       0.208163              0.0164136119             0.00101258992           
       0.208842              0.0156097499            0.000984806784           
       0.209521              0.0139852582            0.000924408561           
       0.210201              0.0163585814             0.00101092998           
       0.210880              0.0177701453             0.00103296794           
       0.211559              0.0160001905            0.000994667657           
       0.212238              0.0150519447            0.000959834095           
       0.212917              0.0142736923            0.000931218164           
       0.213596                0.01820439             0.00105786855           
       0.214276              0.0143424152            0.000919414439           
       0.214955              0.0165737054             0.00100913249           
       0.215634              0.0152049879            0.000959638473           
       0.216313              0.0140322958              0.0009199539           
       0.216992              0.0157843227            0.000975451988           
       0.217671              0.0164524804            0.000989138001           
       0.218351              0.0156381163            0.000973778639           
       0.219030              0.0154408768            0.000952344553           
       0.219709              0.0150847135            0.000947168543           
       0.220388              0.0152181851            0.000950127479           
       0.221067               0.014879218             0.00094023124           
       0.221746              0.0150944466             0.00094603702           
       0.222426              0.0150462657            0.000930410117           
       0.223105               0.014996765            0.000941532947           
       0.223784              0.0161601277            0.000967675561           
       0.224463               0.015233039            0.000946990294           
       0.225142              0.0153027962            0.000934138093           
       0.225821              0.0156555466            0.000948649197           
       0.226500              0.0150079438            0.000934726984           
       0.227180              0.0155505891            0.000936816807           
       0.227859              0.0154687779            0.000938540911           
       0.228538              0.0155845202            0.000932586069           
       0.229217              0.0140851876            0.000893609244           
       0.229896              0.0149819141            0.000921172265           
       0.230575               0.015315526            0.000916525264           
       0.231255              0.0151607867            0.000925535977           
       0.231934              0.0154610481            0.000928270685           
       0.232613              0.0141744063            0.000892086467           
       0.233292              0.0146690839            0.000898751272           
       0.233971              0.0156461862            0.000927768338           
       0.234650              0.0135328684             0.00087298899           
       0.235330              0.0161172531            0.000944387642           
       0.236009              0.0157208147            0.000930690256           
       0.236688              0.0159878609            0.000935202845           
       0.237367              0.0139893729            0.000876072566           
       0.238046              0.0147432163            0.000905701042           
       0.238725              0.0151089764            0.000902721589           
       0.239405              0.0142068656            0.000880785542           
       0.240084              0.0151483076            0.000903709479           
       0.240763              0.0136741675             0.00086683401           
       0.241442              0.0149531461            0.000893694021           
       0.242121              0.0151062462            0.000899953032           
       0.242800               0.016619544            0.000948423496           
       0.243480              0.0147508499            0.000889330135           
       0.244159              0.0138510644            0.000862196292           
       0.244838              0.0141755588             0.00085788497           
       0.245517              0.0132082171            0.000840008549           
       0.246196              0.0136352546            0.000853891307           
       0.246875              0.0152711437            0.000891066629           
       0.247554              0.0130037408            0.000830615637           
       0.248234              0.0146650688             0.00086870497           
       0.248913              0.0153541984            0.000898852101           
       0.249592              0.0142314741            0.000857142514           
       0.250271              0.0153937859            0.000888869316           
       0.250950              0.0127275007            0.000813183635           
       0.251629              0.0146852411            0.000866065203           
       0.252309              0.0146065014            0.000865493255           
       0.252988              0.0143312373            0.000842531864           
       0.253667              0.0126198615             0.00079986483           
       0.254346              0.0131607469            0.000816657951           
       0.255025              0.0148071794            0.000864338202           
       0.255704              0.0140255396            0.000837362784           
       0.256384              0.0137347941            0.000825771483           
       0.257063              0.0131997604            0.000814143396           
       0.257742              0.0141003633            0.000835628819           
       0.258421              0.0141931286            0.000836759331           
       0.259100              0.0143841183            0.000843839404           
       0.259779              0.0138565603            0.000827518267           
       0.260459              0.0130195002            0.000803709408           
       0.261138              0.0134684351            0.000801473758           
       0.261817              0.0129867391            0.000802897469           
       0.262496              0.0130182942            0.000795988639           
       0.263175               0.011748537            0.000757798135           
       0.263854              0.0140342007            0.000824390691           
       0.264534              0.0130538399            0.000788284945           
       0.265213                0.01377644            0.000822570634           
       0.265892              0.0128047763            0.000782871833           
       0.266571              0.0117877827            0.000749431571           
       0.267250              0.0129741499            0.000787564923           
       0.267929              0.0137578582            0.000810171155           
       0.268609              0.0125297719            0.000777399665           
       0.269288              0.0120408081            0.000749420195           
       0.269967              0.0129775524            0.000786408413           
       0.270646              0.0112418246            0.000728767036           
       0.271325              0.0131966019            0.000790908272           
       0.272004              0.0124045379            0.000759161947           
       0.272683              0.0104360071             0.00069718431           
       0.273363              0.0123733421            0.000763985323           
       0.274042              0.0145056717             0.00082231937           
       0.274721              0.0125585005            0.000764685635           
       0.275400              0.0114338881            0.000724812991           
       0.276079              0.0114718895            0.000730138964           
       0.276758              0.0124389953            0.000769887078           
       0.277438              0.0121143596            0.000751245718           
       0.278117              0.0122262645            0.000768430858           
       0.278796              0.0116961954            0.000743959772           
       0.279475              0.0122958061            0.000775392053           
       0.280154              0.0109374345            0.000720789075           
       0.280833               0.011067246            0.000729463083           
       0.281513               0.012625272             0.00079134254           
       0.282192              0.0108776291            0.000722001544           
       0.282871               0.011644335            0.000752233297           
       0.283550              0.0104579731            0.000716704482           
       0.284229              0.0121452161            0.000783702524           
       0.284908              0.0124139867            0.000800683875           
       0.285588              0.0124827518            0.000793496436           
       0.286267              0.0095579507            0.000705457632           
       0.286946              0.0113306484            0.000763101761           
       0.287625              0.0128033731            0.000824991804           
       0.288304              0.0106431058            0.000742112121           
       0.288983              0.0107183799            0.000754162831           
       0.289663               0.011278631            0.000778149776           
       0.290342             0.00993093485             0.00072629337           
       0.291021              0.0107989892             0.00076145114           
       0.291700              0.0111725348            0.000764390923           
       0.292379              0.0106853944            0.000764656603           
       0.293058              0.0102695252            0.000746797354           
       0.293738             0.00976040356             0.00072193671           
       0.294417              0.0108342947            0.000769456982           
       0.295096              0.0102799981            0.000741275711           
       0.295775             0.00997043048            0.000741178129           
       0.296454              0.0102465862            0.000741653834           
       0.297133             0.00921972043            0.000706838707           
       0.297812               0.010673083            0.000764326908           
       0.298492             0.00979232583            0.000733525847           
       0.299171              0.0112309533            0.000784076403           
       0.299850              0.0111891608            0.000777272027           
       0.300529             0.00956310512            0.000726672115           
       0.301208             0.00988342727            0.000740539676           
       0.301887             0.00880786378            0.000698254033           
       0.302567             0.00986979852            0.000735447602           
       0.303246              0.0102241225            0.000753419445           
       0.303925              0.0105596165             0.00077551217           
       0.304604              0.0104768208            0.000755786123           
       0.305283               0.010123646            0.000753956747           
       0.305962             0.00932995156            0.000719425879           
       0.306642             0.00999497936             0.00075473757           
       0.307321              0.0103667005            0.000766189661           
       0.308000             0.00924634534            0.000715027122           
       0.308679             0.00758673822            0.000661712792           
       0.309358             0.00906708681             0.00071361016           
       0.310037             0.00887976119            0.000707773565           
       0.310717              0.0106142286            0.000773071872           
       0.311396             0.00784758929            0.000669185806           
       0.312075             0.00845059018            0.000703225869           
       0.312754              0.0101370515            0.000754798041           
       0.313433             0.00739889746            0.000650457917           
       0.314112             0.00968170521            0.000743895491           
       0.314792             0.00757168268            0.000662503672           
       0.315471             0.00873302758             0.00070270051           
       0.316150              0.0095154846            0.000740293905           
       0.316829             0.00854780481            0.000706276052           
       0.317508             0.00858873638            0.000700020825           
       0.318187              0.0086482312            0.000711707535           
       0.318866             0.00748543599            0.000653215207           
       0.319546             0.00820547004            0.000694162438           
       0.320225             0.00941764487            0.000743685001           
       0.320904              0.0079894659            0.000674387004           
       0.321583             0.00853524395            0.000712400027           
       0.322262             0.00873163458            0.000709628747           
       0.322941              0.0082594962            0.000699018857           
       0.323621             0.00791639071            0.000680169584           
       0.324300             0.00711479682            0.000645319968           
       0.324979             0.00825559858            0.000696390088           
       0.325658             0.00851637243            0.000708586361           
       0.326337             0.00878868674            0.000720765448           
       0.327016             0.00912002195             0.00072956492           
       0.327696             0.00952404342            0.000753841675           
       0.328375             0.00917883353            0.000733808806           
       0.329054             0.00852858642             0.00071117556           
       0.329733             0.00892998176            0.000730376382           
       0.330412             0.00778291812            0.000676269177           
       0.331091             0.00803880963            0.000699763852           
       0.331771             0.00757856244            0.000661633303           
       0.332450             0.00772546638            0.000680984776           
       0.333129             0.00565015389            0.000580875543           
       0.333808             0.00656689089            0.000627056224           
       0.334487             0.00661547787            0.000632355726           
       0.335166             0.00760640185            0.000668140014           
       0.335846             0.00822941615            0.000707176826           
       0.336525             0.00796307133            0.000688770742           
       0.337204             0.00728215763            0.000660391535           
       0.337883             0.00718812988            0.000656983879           
       0.338562             0.00678909201            0.000642030977           
       0.339241             0.00650203503            0.000629488536           
       0.339921             0.00781503369            0.000678552983           
       0.340600             0.00813116548            0.000705285345           
       0.341279             0.00782137555            0.000684312367           
       0.341958             0.00682690623            0.000648349402           
       0.342637             0.00650345311            0.000623864185           
       0.343316             0.00689591623            0.000644272515           
       0.343995             0.00838017969            0.000721861525           
       0.344675             0.00776981714             0.00068230261           
       0.345354              0.0073303591            0.000667097878           
       0.346033             0.00664044114            0.000633274225           
       0.346712             0.00622950914            0.000617280569           
       0.347391             0.00538229584            0.000577324842           
       0.348070             0.00612228691            0.000606989905           
       0.348750             0.00681517325            0.000649671037           
       0.349429             0.00626175979            0.000614695582           
       0.350108             0.00715192756            0.000664841797           
       0.350787             0.00713915932            0.000652963251           
       0.351466             0.00644094187            0.000631636653           
       0.352145             0.00607792353            0.000614087828           
       0.352825             0.00601126357            0.000607944787           
       0.353504             0.00680098887            0.000646488444           
       0.354183             0.00621849538            0.000611061318           
       0.354862             0.00434331277            0.000522551459           
       0.355541             0.00679286409            0.000644940538           
       0.356220             0.00632935348            0.000623723996           
       0.356900             0.00594027935            0.000609988795           
       0.357579             0.00578958098             0.00059481758           
       0.358258             0.00527911287            0.000575850155           
       0.358937             0.00513406376            0.000557207582           
       0.359616              0.0052199236            0.000569693318           
       0.360295             0.00572443325             0.00059708608           
       0.360975             0.00511377886            0.000561927536           
       0.361654             0.00529373201            0.000574676675           
       0.362333             0.00623506636            0.000620510614           
       0.363012              0.0048791787            0.000555973593           
       0.363691             0.00486596064            0.000544266009           
       0.364370             0.00549682877            0.000585649177           
       0.365050             0.00549736907            0.000582543977           
       0.365729             0.00554469119            0.000590624339           
       0.366408             0.00524896997            0.000575930733           
       0.367087             0.00550163556            0.000580172451           
       0.367766             0.00433945418              0.0005259987           
       0.368445             0.00565224353            0.000589654431           
       0.369124             0.00499884572            0.000558882305           
       0.369804             0.00585061808            0.000603657907           
       0.370483             0.00577034195             0.00060212528           
       0.371162             0.00572138443            0.000603041621           
       0.371841             0.00447552236            0.000524058344           
       0.372520             0.00562383864            0.000599229755           
       0.373199             0.00442214858            0.000525017392           
       0.373879             0.00448016076            0.000534568221           
       0.374558             0.00476416356            0.000543207307           
       0.375237             0.00441149844            0.000523572323           
       0.375916             0.00439103755            0.000532363702           
       0.376595             0.00539555799             0.00057858999           
       0.377274             0.00436313139            0.000528626052           
       0.377954             0.00420769546            0.000510969611           
       0.378633             0.00510657945            0.000570022335           
       0.379312             0.00509248972            0.000569091703           
       0.379991               0.004166232            0.000512076962           
       0.380670             0.00561999473            0.000605257891           
       0.381349             0.00456874532            0.000537885745           
       0.382029             0.00483779223            0.000561427513           
       0.382708              0.0042302483            0.000513527949           
       0.383387             0.00509825508            0.000576533008           
       0.384066             0.00436044784            0.000528294049           
       0.384745              0.0045280007            0.000540464673           
       0.385424             0.00365473774            0.000487208354           
       0.386104             0.00432188346            0.000523958676           
       0.386783             0.00446616067            0.000544153301           
       0.387462             0.00466429582             0.00054225877           
       0.388141             0.00417078483            0.000520959593           
       0.388820             0.00449466893            0.000536899771           
       0.389499             0.00435410191            0.000531412386           
       0.390178             0.00472924316            0.000556037676           
       0.390858             0.00508460396            0.000571884719           
       0.391537             0.00401273497            0.000513230415           
       0.392216             0.00390054997            0.000499662941           
       0.392895              0.0050297867            0.000569311073           
       0.393574              0.0041771994            0.000517534853           
       0.394253             0.00447417717            0.000538025648           
       0.394933             0.00419414453            0.000526869102           
       0.395612             0.00424332442            0.000514555429           
       0.396291             0.00352252655            0.000478364619           
       0.396970              0.0040284811            0.000507034623           
       0.397649             0.00482268915            0.000556476286           
       0.398328             0.00390007892            0.000498225054           
       0.399008             0.00393225143            0.000499188571           
       0.399687             0.00344683887             0.00046918073           
       0.400366             0.00468757897            0.000545054214           
       0.401045             0.00367336138            0.000481587637           
       0.401724             0.00374814698            0.000487277238           
       0.402403             0.00400469901            0.000507603442           
       0.403083             0.00381344206            0.000488191528           
       0.403762             0.00462243855            0.000540136528           
       0.404441             0.00339919482            0.000466136667           
       0.405120             0.00438239664            0.000527539007           
       0.405799             0.00439739735            0.000526145393           
       0.406478             0.00345925759            0.000466670423           
       0.407158             0.00357455381            0.000473493377           
       0.407837             0.00478044357            0.000552399805           
       0.408516             0.00388578237            0.000493701007           
       0.409195             0.00280069985            0.000423893679           
       0.409874             0.00388821391             0.00050640679           
       0.410553             0.00264738432            0.000422356192           
       0.411233             0.00380988522             0.00050404596           
       0.411912             0.00394796418            0.000520368721           
       0.412591             0.00302021534            0.000458150697           
       0.413270             0.00264443476            0.000426665636           
       0.413949             0.00341163139            0.000489914117           
       0.414628               0.002973567            0.000456559428           
       0.415307             0.00261778378            0.000433141255           
       0.415987              0.0040509833             0.00053437882           
       0.416666              0.0033077935            0.000479973602           
       0.417345             0.00299381233            0.000464251107           
       0.418024             0.00335868445            0.000491740894           
       0.418703             0.00277269741            0.000445968702           
       0.419382             0.00344620017            0.000494754728           
       0.420062              0.0034073871            0.000493339099           
       0.420741             0.00292167708            0.000459255516           
       0.421420             0.00390006046            0.000532620516           
       0.422099             0.00310827514            0.000475502973           
       0.422778             0.00291691567            0.000463127895           
       0.423457              0.0034019177            0.000503212024           
       0.424137              0.0034277657            0.000496888349           
       0.424816             0.00178927472            0.000366500572           
       0.425495             0.00320460648            0.000490018475           
       0.426174             0.00282774619            0.000460465774           
       0.426853             0.00293799417            0.000466505261           
       0.427532             0.00246478102            0.000430900155           
       0.428212              0.0025912845            0.000444736192           
       0.428891              0.0021954911            0.000408433953           
       0.429570             0.00310119835            0.000485755373           
       0.430249             0.00269743319            0.000450679164           
       0.430928             0.00275523915            0.000465442794           
       0.431607             0.00220031286             0.00040879146           
       0.432287             0.00167969532            0.000359785807           
       0.432966             0.00234894927            0.000429209129           
       0.433645             0.00236083677            0.000430743173           
       0.434324             0.00248045252            0.000438859057           
       0.435003             0.00163174894            0.000356555714           
       0.435682             0.00222261367            0.000419546506           
       0.436361             0.00243991521            0.000438989221           
       0.437041             0.00283455168            0.000472529264           
       0.437720             0.00215140559            0.000413654168           
       0.438399             0.00242072448            0.000441071831           
       0.439078             0.00240833107            0.000452698757           
       0.439757             0.00279640574            0.000484805539           
       0.440436              0.0023270806            0.000452222376           
       0.441116             0.00276309618            0.000500827852           
       0.441795              0.0028591575            0.000510073114           
       0.442474             0.00305909082            0.000529077015           
       0.443153             0.00342546204            0.000572925077           
       0.443832             0.00276715901            0.000515806406           
       0.444511             0.00253738747            0.000491701796           
       0.445191             0.00289398209            0.000537889825           
       0.445870              0.0020924417            0.000457387144           
       0.446549             0.00162094521            0.000406815164           
       0.447228             0.00231436582            0.000483356966           
       0.447907             0.00186256526            0.000438821562           
       0.448586             0.00153650399            0.000408154802           
       0.449266              0.0026661452            0.000532704956           
       0.449945             0.00211109629            0.000472088938           
       0.450624             0.00409879148             0.00066825203           
       0.451303             0.00225888701            0.000502519715           
       0.451982             0.00189252615            0.000457123655           
       0.452661             0.00278088094            0.000564443463           
       0.453341             0.00245895829            0.000532628164           
       0.454020             0.00188744081            0.000467354612           
       0.454699             0.00157478803            0.000430793783           
       0.455378             0.00133270868            0.000396514423           
       0.456057             0.00176726537            0.000464727208           
       0.456736             0.00211186351            0.000506435041           
       0.457416             0.00284716218            0.000588043236           
       0.458095             0.00268006086            0.000578782728           
       0.458774             0.00276812186            0.000595988341           
       0.459453             0.00304162338            0.000627888798           
       0.460132              0.0017822532            0.000470254443           
       0.460811             0.00129751258            0.000416209881           
       0.461490             0.00177333694             0.00048162901           
       0.462170             0.00103574184            0.000373824506           
       0.462849             0.00255651085            0.000591117106           
       0.463528             0.00183571331            0.000499739711           
       0.464207             0.00250444088            0.000594631441           
       0.464886             0.00161129673            0.000473244208           
       0.465565             0.00195426493            0.000526907075           
       0.466245             0.00182467227            0.000510717012           
       0.466924             0.00131728256            0.000444188088           
       0.467603             0.00182506429            0.000511747432           
       0.468282             0.00193933919            0.000540034795           
       0.468961             0.00137026064            0.000456919951           
       0.469640             0.00199473338            0.000553490351           
       0.470320            0.000911064855            0.000374319405           
       0.470999            0.000779080275             0.00034941041           
       0.471678            0.000491466441            0.000280185851           
       0.472357             0.00240806639            0.000621933903           
       0.473036            0.000827081202              0.0003667894           
       0.473715             0.00167059504            0.000525366642           
       0.474395             0.00138887983            0.000485647822           
       0.475074             0.00205568375            0.000590853633           
       0.475753             0.00134888033            0.000474487522           
       0.476432             0.00200517268            0.000599575496           
       0.477111            0.000721781127            0.000355375001           
       0.477790            0.000928091977            0.000405129503           
       0.478470            0.000592970273            0.000328110728           
       0.479149            0.000611382628            0.000336611899           
       0.479828             0.00079077336            0.000381922604           
       0.480507             0.00062795456            0.000343084273           
       0.481186            8.30744673e-05            0.000127600326           
       0.481865            0.000837304498            0.000400081207           
       0.482545           -0.000113664866                         0           
       0.483224            0.000858016231            0.000412556339           
       0.483903            0.000696606699            0.000377586885           
       0.484582            0.000104974739            0.000148960495           
       0.485261            0.000277995797              0.0002362669           
       0.485940            0.000114467145            0.000157724708           
       0.486619            0.000325132269            0.000262896926           
       0.487299           -9.87378563e-05                         0           
       0.487978            0.000111242709            0.000154636715           
       0.488657           -8.38490564e-05                         0           
       0.489336            0.000125634283             0.00016811651           
       0.490015           -8.90978373e-05                         0           
       0.490694            0.000158480297            0.000195565448           
       0.491374             -7.662256e-05                         0           
       0.492053           -6.14241915e-05                         0           
       0.492732           -0.000310771598                         0           
       0.493411           -0.000310790634                         0           
       0.494090           -0.000310809796                         0           
       0.494769           -0.000310828586                         0           
       0.495449           -0.000310847642                         0           
       0.496128           -0.000310866756                         0           
       0.496807            -0.00031088566                         0           
       0.497486           -0.000310904738                         0           
       0.498165           -3.54273628e-05                         0           
       0.498844            0.000792358393            0.000468065976           
       0.499524           -0.000310962305                         0           
       0.500203           -2.81710687e-05                         0           
       0.500882           -0.000311000832                         0           
       0.501561           -0.000311019964                         0           
       0.502240           -0.000311039352                         0           
       0.502919           -4.61484468e-06                         0           
       0.503599           -0.000311078033                         0           
       0.504278            2.38289437e-06            2.70957811e-05           
       0.504957           -0.000311117104                         0           
       0.505636             -0.0003111364                         0           
       0.506315             6.0199986e-06            4.38316332e-05           
       0.506994           -0.000311175277                         0           
       0.507673             -0.0003111945                         0           
       0.508353            -0.00031121413                         0           
       0.509032           -0.000311233675                         0           
       0.509711           -0.000311253228                         0           
       0.510390            3.97525237e-05            0.000118122026           
       0.511069            3.50247223e-05             0.00011121459           
       0.511748           -0.000311312598                         0           
       0.512428            0.000791941816            0.000542176639           
       0.513107            5.93619695e-05            0.000148207949           
       0.513786           -0.000311371615                         0           
       0.514465           -0.000311391561                         0           
       0.515144           -0.000311411493                         0           
       0.515823           -0.000311431244                         0           
       0.516503            -0.00031145118                         0           
       0.517182           -0.000311471114                         0           
       0.517861           -0.000311490999                         0           
       0.518540           -0.000311510997                         0           
       0.519219           -0.000311530879                         0           
       0.519898           -0.000311550962                         0           
       0.520578           -0.000311571166                         0           
       0.521257           -0.000311591109                         0           
       0.521936           -0.000311611099                         0           
       0.522615           -0.000311631329                         0           
       0.523294            0.000152618187            0.000267414508           
       0.523973           -0.000311671659                         0           
       0.524653            0.000681650567            0.000586792031           
       0.525332           -0.000311711709                         0           
       0.526011           -0.000311732241                         0           
       0.526690           -0.000311752734                         0           
       0.527369           -0.000311773058                         0           
       0.528048           -0.000311793527                         0           
       0.528728           -0.000311813971                         0           
       0.529407           -0.000311834321                         0           
       0.530086              0.0012275373            0.000792816662           
       0.530765            0.000794285861            0.000666119632           
       0.531444           -0.000311895332                         0           
       0.532123           -0.000311916187                         0           
       0.532802           -0.000311936872                         0           
       0.533482           -0.000311957486                         0           
       0.534161           -0.000311978133                         0           
       0.534840           -0.000311998603                         0           
       0.535519           -0.000312019453                         0           
       0.536198           -0.000312040087                         0           
       0.536877           -0.000312060436                         0           
       0.537557            0.000244330421             0.00037045687           
       0.538236            0.000316293557            0.000446945315           
       0.538915           -0.000312122899                         0           
       0.539594           -0.000312143749                         0           
       0.540273           -0.000312164925                         0           
       0.540952           -0.000312185865                         0           
       0.541632           -0.000312206422                         0           
       0.542311           -0.000312227168                         0           
       0.542990            0.000384442553            0.000518745348           
       0.543669             -0.0003122693                         0           
       0.544348           -0.000312290428                         0           
       0.545027            0.000309656439            0.000449732557           
       0.545707           -0.000312332658                         0           
       0.546386           -0.000312353864                         0           
       0.547065           -0.000312374815                         0           
       0.547744           -0.000312395862                         0           
       0.548423            -0.00031241714                         0           
       0.549102           -0.000312438441                         0           
       0.549782           -0.000312459634                         0           
       0.550461           -0.000312481078                         0           
       0.551140           -0.000312502651                         0           
       0.551819            -0.00031252397                         0           
       0.552498           -0.000312545471                         0           
       0.553177           -0.000312566603                         0           
       0.553856            -0.00031258781                         0           
       0.554536           -0.000312609088                         0           
       0.555215           -0.000312630689                         0           
       0.555894            -0.00031265224                         0           
       0.556573           -0.000312673919                         0           
       0.557252            -0.00031269558                         0           
       0.557931           -0.000312717142                         0           
       0.558611            0.000615369793            0.000756172312           
       0.559290           -0.000312760715                         0           
       0.559969            0.000803640697            0.000942205164           
       0.560648           -0.000312803224                         0           
       0.561327           -0.000312825237                         0           
       0.562006           -0.000312847147                         0           
       0.562686            -0.00031286907                         0           
       0.563365           -0.000312891073                         0           
       0.564044           -0.000312912966                         0           
       0.564723            0.000800974078            0.000940870878           
       0.565402           -0.000312956247                         0           
       0.566081           -0.000312977827                         0           
       0.566761            0.000782175367            0.000929860594           
       0.567440           -0.000313021895                         0           
       0.568119           -0.000313043974                         0           
       0.568798              0.0010946486             0.00124326387           
       0.569477            -0.00031308861                         0           
       0.570156           -0.000313110964                         0           
       0.570836           -0.000313133234                         0           
       0.571515           -0.000313155033                         0           
       0.572194           -0.000313177464                         0           
       0.572873           -0.000313199381                         0           
       0.573552            -0.00031322117                         0           
       0.574231             0.00263820181             0.00196651276           
       0.574911           -0.000313266192                         0           
       0.575590           -0.000313288544                         0           
       0.576269           -0.000313310828                         0           
       0.576948           -0.000313333541                         0           
       0.577627            -0.00031335556                         0           
       0.578306            -0.00031337789                         0           
       0.578985           -0.000313400411                         0           
       0.579665           -0.000313422803                         0           
       0.580344           -0.000313445533                         0           
       0.581023           -0.000313468238                         0           
       0.581702           -0.000313490734                         0           
       0.582381           -0.000313513025                         0           
       0.583060           -0.000313535982                         0           
       0.583740           -0.000313558577                         0           
       0.584419           -0.000313581248                         0           
       0.585098           -0.000313603892                         0           
       0.585777           -0.000313626712                         0           
       0.586456           -0.000313649903                         0           
       0.587135           -0.000313672478                         0           
       0.587815           -0.000313694809                         0           
       0.588494           -0.000313717836                         0           
       0.589173           -0.000313741391                         0           
       0.589852           -0.000313763695                         0           
       0.590531            -0.00031378684                         0           
       0.591210           -0.000313809451                         0           
       0.591890           -0.000313832498                         0           
       0.592569           -0.000313854775                         0           
       0.593248            -0.00031387913                         0           
       0.593927           -0.000313902285                         0           
       0.594606           -0.000313925917                         0           
       0.595285           -0.000313948141                         0           
       0.595965            -0.00031396888                         0           
       0.596644           -0.000313990221                         0           
