################################################################################
# EDF_DataBlockID                     0.Image.Psd
# EDF_BinarySize                      4366944
# EDF_HeaderSize                      2560
# ByteOrder                           LowByteFirst
# DataType                            FloatValue
# Dim_1                               1028
# Dim_2                               1062
# Image                               0
# HeaderID                            EH:000000:000000:000000
# Size                                4366944
# Center_1                            607.5200
# Center_2                            651.5500
# Comment                             Xenocs_Cell_Window - 20251028_20perc_iodine_1.23mg
# DDummy                              0.6
# Date                                2025-10-29T14:08:44
# Delta                               0
# Dummy                               -1.5
# ExposureTime                        360
# Gamma                               0
# Intensity1                          8.52795e-10
# PSize_1                             7.5e-05
# PSize_2                             7.5e-05
# Pressure                            0.0327969
# SampleDistance                      0.450002
# SampleEnvKind                       large
# SampleEnvPN                         ElectroChemical cell
# SampleEnvSN                         1141
# Thickness                           0
# Wavelength                          1.541891e-10
# Wavelength                          1.54189e-10
# aux                                 0
# aux_dial                            0.002375
# beamx                               588.434
# beamx_dial                          588.434
# beamz                               657.808
# beamz_dial                          657.808
# det0x                               0
# det0x_dial                          6.36945
# det0xvd                             0
# det0xvd_dial                        0
# det0y                               450.002
# det0y_dial                          481.635
# det0z                               0
# det0z_dial                          1.23302
# det0zvd                             0
# det0zvd_dial                        0
# mag                                 1.818
# mag_dial                            1.818
# om                                  0.2499
# om_dial                             -0.610199
# phi                                 -0.0120535
# phi_dial                            0
# ry                                  0.599993
# ry_dial                             0.599993
# s1bot                               0.8
# s1bot_dial                          -1.66094
# s1hl                                0.8
# s1hl_dial                           -0.608437
# s1hr                                0.8
# s1hr_dial                           0.970938
# s1top                               0.8
# s1top_dial                          -0.461562
# s2bot                               0.45
# s2bot_dial                          1.36109
# s2hl                                0.45
# s2hl_dial                           -0.83375
# s2hr                                0.45
# s2hr_dial                           -0.118594
# s2top                               0.45
# s2top_dial                          1.44734
# w2theta                             32
# w2theta_dial                        32
# waxsch                              19.2605
# waxsch_dial                         -32.7355
# waxsh                               137.085
# waxsh_dial                          -43.5338
# waxsth                              26.0607
# waxsth_dial                         -19.4086
# waxsz                               67.0407
# waxsz_dial                          -23.7954
# wind                                65.9854
# wind_dial                           66.0041
# wpsi                                124
# wpsi_dial                           124
# wstod                               115
# wstod_dial                          115
# x                                   0
# x_dial                              1.00969
# z                                   0
# z_dial                              13.3172
# CountCutoff                         15302352
# DetectorModel                       Dectris EIGER2 Si 1M, S/N E-02-0362
# ThresholdSetting                    4023.88989258
# Saturation                          0
# FlatField                           Corrected
# BackgroundReductionExtra            0.02
# BackgroundCorrectionConstant        0.0026712
# Detector                            0
# Monitor                             0
# Pil_Roi0                            0
# SumForIntensity1                    3.07006e+08
# TransmittedFlux                     852795
# det                                 0
# mon                                 0
# pilai0                              3.07006e+08
# pilai1                              767911
# pilct0                              5.3178e+08
# pilct1                              767911
# pilroi0                             0
# pilroi1                             0
# sec                                 1
# title                               20251028_20perc_iodine_1.23mg_0_00216.edf
# usaxs0                              0
# Operation                           Azimuthal average I(q)
# Error_model                         ErrorModel.poisson
# Geometrical_correction              True
# Transmission_correction             True
# Thickness_correction                False
# Binning mode                        Uniform
# Binning factor                      1.0
# Psi                                 0.0
# Omega                               0.2499
# MaskInvalidPixels                   True
# DetectorEdge                        3
# MaskFiles                           ['20251028_20perc_iodine_1.23mg_0_00012_mask.edf']
################################################################################
    q(A⁻¹)                Intensity(a.u.)            Sigma_I(a.u.)            
       0.000340                372732.593                120.702891           
       0.001019                360281.039                72.6700297           
       0.001698                350959.597                50.7163784           
       0.002377                331069.005                44.0579187           
       0.003056                307002.652                35.8568251           
       0.003735                253253.487                28.7214486           
       0.004415                205195.092                25.8530754           
       0.005094                153356.171                19.3557548           
       0.005773                101204.823                14.5575014           
       0.006452                58936.6137                10.6440791           
       0.007131                32357.0852                7.64026841           
       0.007810                16223.3714                5.36882657           
       0.008490                8141.22295                3.37121295           
       0.009169                3909.53238                2.30884315           
       0.009848                1206.92493                1.24030279           
       0.010527                 464.95872               0.769830393           
       0.011206                117.781024               0.369793291           
       0.011885                54.8568939               0.234479586           
       0.012564                25.1159515               0.162890598           
       0.013244                16.9296105               0.125027244           
       0.013923                12.6288224               0.109726686           
       0.014602                9.63238862              0.0888756436           
       0.015281                7.51203887              0.0798957261           
       0.015960                6.08720258              0.0714051343           
       0.016639                4.98140207              0.0609973521           
       0.017319                4.13901187              0.0547364084           
       0.017998                3.48132695              0.0480254818           
       0.018677                2.93775021               0.045693235           
       0.019356                2.53081653              0.0419057782           
       0.020035                2.16294136              0.0363462165           
       0.020714                1.88546854              0.0342940453           
       0.021394                1.66015267              0.0304475911           
       0.022073                1.38378781              0.0289216478           
       0.022752                  1.271473              0.0265201136           
       0.023431                1.11716742              0.0241300507           
       0.024110                1.01525346              0.0239824226           
       0.024789               0.908816675              0.0210728927           
       0.025469               0.830459787              0.0207585677           
       0.026148               0.745233297               0.018476476           
       0.026827               0.685834803              0.0180085041           
       0.027506               0.612286842              0.0172608973           
       0.028185               0.547913783               0.015571424           
       0.028864               0.535931193              0.0153138026           
       0.029544               0.494017102              0.0142575624           
       0.030223               0.412571543              0.0132162205           
       0.030902               0.405746522              0.0132263884           
       0.031581               0.362763092              0.0118885104           
       0.032260               0.346829105               0.011822553           
       0.032939               0.310902487              0.0107929657           
       0.033619               0.314188745              0.0110093143           
       0.034298               0.255699041             0.00966528561           
       0.034977               0.252933574              0.0094239636           
       0.035656                0.22322162             0.00908747087           
       0.036335               0.223947498             0.00882802656           
       0.037014               0.212284304             0.00862070895           
       0.037693               0.215343299             0.00835254544           
       0.038373               0.172713687             0.00755366424           
       0.039052               0.173706849             0.00760758195           
       0.039731               0.176895092             0.00749816931           
       0.040410               0.151073881             0.00688288476           
       0.041089               0.151933824             0.00679432446           
       0.041768                0.13082564             0.00633765443           
       0.042448               0.133636203             0.00635566679           
       0.043127               0.132110485             0.00617003313           
       0.043806                 0.1143828             0.00578396155           
       0.044485                0.11673976             0.00572320969           
       0.045164               0.108177218             0.00561790584           
       0.045843               0.107395319             0.00536874472           
       0.046523                0.10597096             0.00535143938           
       0.047202               0.100064873             0.00523651349           
       0.047881               0.102223041             0.00519061638           
       0.048560              0.0998389344             0.00517648621           
       0.049239              0.0912969251              0.0047529805           
       0.049918               0.100294099             0.00507906449           
       0.050598              0.0813100287             0.00450456573           
       0.051277              0.0840515528             0.00456534342           
       0.051956              0.0812676713              0.0044609122           
       0.052635              0.0837280174             0.00443184268           
       0.053314              0.0750299669             0.00431799074           
       0.053993              0.0777908688             0.00427612878           
       0.054673               0.080864851             0.00426268114           
       0.055352              0.0686340956             0.00398479207           
       0.056031              0.0691158834             0.00391473412           
       0.056710              0.0725078337             0.00410789997           
       0.057389              0.0650581441             0.00375228112           
       0.058068              0.0706407174             0.00395026308           
       0.058748              0.0717643342             0.00403122215           
       0.059427              0.0627214279             0.00370488231           
       0.060106              0.0685832931             0.00391081007           
       0.060785              0.0657880961             0.00371552178           
       0.061464              0.0632832857             0.00373193955           
       0.062143              0.0611855907             0.00363228949           
       0.062822                  0.058148             0.00349942573           
       0.063502              0.0514226073             0.00328495802           
       0.064181              0.0550308386             0.00336236925           
       0.064860              0.0602821361             0.00357274105           
       0.065539              0.0498302654             0.00321651952           
       0.066218              0.0486586159             0.00311042291           
       0.066897              0.0494712096             0.00316049831           
       0.067577              0.0458830125             0.00307296563           
       0.068256              0.0506100864             0.00330666046           
       0.068935               0.045151813             0.00307276231           
       0.069614              0.0503473374             0.00327703866           
       0.070293              0.0486918068             0.00325242715           
       0.070972              0.0431663736             0.00303991105           
       0.071652               0.043491757             0.00305694364           
       0.072331              0.0468204057             0.00311524054           
       0.073010              0.0487803797             0.00325243118           
       0.073689              0.0430889053             0.00304001109           
       0.074368              0.0400625994             0.00292598058           
       0.075047              0.0385200906             0.00283826061           
       0.075727              0.0404725202              0.0028913325           
       0.076406              0.0344274011               0.002719881           
       0.077085              0.0393673089              0.0028541216           
       0.077764              0.0385079979             0.00281290864           
       0.078443              0.0339573135              0.0026578313           
       0.079122              0.0414525433             0.00290833248           
       0.079802              0.0350257921             0.00270174445           
       0.080481              0.0327352207             0.00252380393           
       0.081160               0.032530194             0.00256751414           
       0.081839              0.0378711473             0.00272592945           
       0.082518              0.0348532775             0.00261726561           
       0.083197              0.0363671538             0.00263196228           
       0.083876              0.0342633761             0.00251225071           
       0.084556              0.0358417794             0.00264092455           
       0.085235              0.0368790992             0.00262711148           
       0.085914              0.0340080562             0.00254728616           
       0.086593               0.036760977             0.00263133518           
       0.087272              0.0302309805             0.00235248086           
       0.087951              0.0321975519             0.00248263294           
       0.088631              0.0346488251             0.00248768429           
       0.089310              0.0305162466             0.00238413788           
       0.089989              0.0331171067             0.00245462311           
       0.090668              0.0351570393             0.00255700948           
       0.091347              0.0305103676             0.00239538142           
       0.092026              0.0278649447             0.00218808636           
       0.092706              0.0288199173             0.00230603571           
       0.093385              0.0312798856             0.00236554571           
       0.094064              0.0278528447             0.00225818191           
       0.094743              0.0270254161             0.00219048928           
       0.095422              0.0265990643             0.00214890915           
       0.096101              0.0291405423             0.00229555261           
       0.096781              0.0251573995             0.00210236431           
       0.097460              0.0268253041             0.00211171784           
       0.098139              0.0271107551             0.00210658871           
       0.098818              0.0305278492             0.00220788056           
       0.099497              0.0295198009             0.00217557942           
       0.100176              0.0310424191             0.00217242885           
       0.100856              0.0246454242             0.00193445017           
       0.101535              0.0255017668             0.00196397577           
       0.102214              0.0242455444             0.00191500385           
       0.102893              0.0299169354             0.00210298204           
       0.103572              0.0264636437             0.00194866952           
       0.104251              0.0279532008             0.00201015975           
       0.104931              0.0273222203             0.00196924998           
       0.105610              0.0253660035              0.0019055375           
       0.106289              0.0216346323             0.00173052573           
       0.106968              0.0257952123             0.00189522089           
       0.107647              0.0250938781             0.00187040112           
       0.108326              0.0250311986               0.001843073           
       0.109005              0.0238176106             0.00178652755           
       0.109685              0.0257139072              0.0018354631           
       0.110364              0.0264399887             0.00188233599           
       0.111043               0.024359131             0.00179958363           
       0.111722              0.0211415224             0.00165603033           
       0.112401               0.020772717             0.00164608719           
       0.113080               0.023801712             0.00174182592           
       0.113760               0.026785927             0.00187865907           
       0.114439              0.0223148111             0.00169024028           
       0.115118              0.0230928606             0.00170648946           
       0.115797              0.0227555286             0.00170967291           
       0.116476              0.0235868805             0.00171457134           
       0.117155              0.0240769659             0.00174626395           
       0.117835              0.0211836936             0.00160542201           
       0.118514              0.0229694812             0.00169291819           
       0.119193              0.0236775627             0.00171882637           
       0.119872               0.023720339             0.00169886266           
       0.120551              0.0254842279             0.00174916595           
       0.121230              0.0212785455             0.00158224474           
       0.121910              0.0249668514              0.0017304608           
       0.122589               0.022485122             0.00164389771           
       0.123268              0.0207042836             0.00154689546           
       0.123947              0.0200160165             0.00153080328           
       0.124626              0.0223842523             0.00159903908           
       0.125305              0.0222462424             0.00160192476           
       0.125985              0.0206776994             0.00153243425           
       0.126664              0.0188227383             0.00144815648           
       0.127343              0.0205090667             0.00152915716           
       0.128022              0.0223473579             0.00158397525           
       0.128701              0.0214409588              0.0015434379           
       0.129380              0.0221708813             0.00154983282           
       0.130059              0.0189931633             0.00143780318           
       0.130739              0.0158742384             0.00132370323           
       0.131418              0.0207264466             0.00150830436           
       0.132097              0.0201665219             0.00146871082           
       0.132776              0.0215992738             0.00151312647           
       0.133455              0.0199075028             0.00146394616           
       0.134134              0.0195726083             0.00144695765           
       0.134814              0.0188337001             0.00140475708           
       0.135493              0.0202664933             0.00146310917           
       0.136172              0.0202390444             0.00145108036           
       0.136851              0.0190339324             0.00141540009           
       0.137530              0.0203231037             0.00142779978           
       0.138209              0.0205860688             0.00145387861           
       0.138889              0.0182095223             0.00137341215           
       0.139568              0.0192225434             0.00141048768           
       0.140247              0.0199852254             0.00143631232           
       0.140926              0.0203876254              0.0014092205           
       0.141605              0.0191399222             0.00140010775           
       0.142284              0.0180861024             0.00133846499           
       0.142964              0.0205076217             0.00143070498           
       0.143643              0.0197664238             0.00140283798           
       0.144322              0.0203871138             0.00139488102           
       0.145001              0.0184472198             0.00135409424           
       0.145680              0.0174881369             0.00128723242           
       0.146359              0.0187537986             0.00133787506           
       0.147039              0.0207086886             0.00141745111           
       0.147718              0.0183237635             0.00131133287           
       0.148397              0.0197962796             0.00138418505           
       0.149076              0.0190017186             0.00131405295           
       0.149755              0.0202556714             0.00137766707           
       0.150434              0.0195558213             0.00135421059           
       0.151114              0.0190592191               0.001329511           
       0.151793              0.0201612112             0.00136741933           
       0.152472              0.0178333672             0.00126333954           
       0.153151              0.0184678084             0.00129804463           
       0.153830              0.0193471453             0.00131890837           
       0.154509              0.0185738259             0.00128688892           
       0.155188              0.0171265251             0.00123527728           
       0.155868              0.0187450706             0.00128313348           
       0.156547              0.0183643372             0.00127819381           
       0.157226              0.0183274083             0.00124572013           
       0.157905               0.015595505             0.00115878357           
       0.158584              0.0185578552             0.00126176008           
       0.159263              0.0191944861             0.00128794162           
       0.159943              0.0164428663             0.00119294516           
       0.160622              0.0189125947             0.00125471208           
       0.161301              0.0193380364             0.00128571588           
       0.161980              0.0208773699             0.00131319718           
       0.162659               0.017334478             0.00120985855           
       0.163338              0.0172030527              0.0011954398           
       0.164018              0.0190024572             0.00124981118           
       0.164697              0.0198236647             0.00129292248           
       0.165376              0.0170242427              0.0011719806           
       0.166055              0.0181241488             0.00121722289           
       0.166734              0.0169987647             0.00117354616           
       0.167413              0.0160490068             0.00114108905           
       0.168093              0.0180054029             0.00122007268           
       0.168772               0.016649111              0.0011389102           
       0.169451              0.0168794478              0.0011678599           
       0.170130              0.0192440691             0.00123061107           
       0.170809              0.0169823874             0.00116983313           
       0.171488              0.0190397065             0.00122737548           
       0.172168              0.0164982796              0.0011315515           
       0.172847              0.0170265347             0.00116462434           
       0.173526              0.0173796604             0.00115419314           
       0.174205              0.0166182768             0.00113382596           
       0.174884              0.0161448711             0.00111173575           
       0.175563              0.0138861983             0.00103544322           
       0.176243              0.0163891455             0.00113615463           
       0.176922              0.0197836584             0.00121575151           
       0.177601              0.0163360332             0.00111689304           
       0.178280              0.0184023087             0.00117219345           
       0.178959              0.0180968441             0.00117177372           
       0.179638              0.0165755463             0.00111821115           
       0.180317              0.0171531018             0.00112923888           
       0.180997              0.0175024853             0.00114687276           
       0.181676              0.0165831647             0.00110442659           
       0.182355              0.0168795045               0.001120943           
       0.183034               0.016483332             0.00108993241           
       0.183713              0.0162797236             0.00109637132           
       0.184392              0.0173061921             0.00113006525           
       0.185072               0.015885121             0.00107033596           
       0.185751              0.0178841018             0.00113884582           
       0.186430              0.0175396817             0.00111992694           
       0.187109               0.016495987             0.00109819103           
       0.187788              0.0181572004             0.00114932052           
       0.188467              0.0167115233             0.00108956863           
       0.189147               0.015121417              0.0010469327           
       0.189826               0.015893244             0.00105433866           
       0.190505              0.0160714563             0.00107768627           
       0.191184              0.0154072955             0.00103997576           
       0.191863              0.0161710221             0.00106768393           
       0.192542              0.0151128515             0.00104189389           
       0.193222              0.0145748898             0.00100025239           
       0.193901              0.0194858826             0.00117205889           
       0.194580              0.0156880627             0.00103326074           
       0.195259              0.0155413758             0.00104022999           
       0.195938              0.0150754359             0.00102696374           
       0.196617              0.0175058107             0.00109120521           
       0.197297              0.0149788007             0.00101349943           
       0.197976              0.0170241797             0.00106388671           
       0.198655              0.0167936223             0.00106819976           
       0.199334              0.0143056225            0.000977207439           
       0.200013              0.0163409281             0.00104383264           
       0.200692              0.0138535402             0.00096689062           
       0.201371              0.0172910127             0.00106804199           
       0.202051              0.0157458866             0.00102237477           
       0.202730              0.0150981351            0.000991125672           
       0.203409               0.013450165            0.000941751847           
       0.204088              0.0155310182             0.00101086232           
       0.204767              0.0171432553             0.00105645274           
       0.205446              0.0170635345             0.00105605309           
       0.206126              0.0153226573             0.00098713707           
       0.206805              0.0171584999             0.00106375024           
       0.207484              0.0177517189             0.00106253105           
       0.208163              0.0146697612            0.000971705928           
       0.208842              0.0167137178             0.00103438307           
       0.209521              0.0154910073             0.00098755287           
       0.210201              0.0158615306             0.00101044486           
       0.210880              0.0156603725            0.000984315246           
       0.211559              0.0148471062            0.000972586284           
       0.212238              0.0156273116            0.000992736099           
       0.212917              0.0135785001             0.00092193645           
       0.213596              0.0145678839            0.000960580325           
       0.214276              0.0174715589             0.00103004884           
       0.214955              0.0153654824            0.000986286964           
       0.215634              0.0165342977             0.00101577916           
       0.216313              0.0148284688            0.000959934642           
       0.216992              0.0168242625             0.00102223972           
       0.217671              0.0157281345             0.00098168378           
       0.218351              0.0148704507            0.000963877631           
       0.219030              0.0166352476             0.00100337799           
       0.219709               0.017511644             0.00103589087           
       0.220388              0.0143945262            0.000937974318           
       0.221067              0.0161677401            0.000994857998           
       0.221746              0.0142807389            0.000934042603           
       0.222426              0.0147926946            0.000936430433           
       0.223105               0.014427531            0.000937399137           
       0.223784              0.0140153797            0.000914748327           
       0.224463              0.0153155718            0.000963852705           
       0.225142              0.0138941544            0.000903511237           
       0.225821              0.0160374772            0.000974611124           
       0.226500               0.015510038            0.000964544851           
       0.227180              0.0149002566            0.000930829067           
       0.227859              0.0155273479            0.000954477424           
       0.228538              0.0161114993            0.000962502788           
       0.229217              0.0156099864            0.000954903332           
       0.229896              0.0162463112            0.000973702758           
       0.230575              0.0136935527            0.000879687384           
       0.231255              0.0152160961            0.000941186891           
       0.231934              0.0152492692            0.000935775127           
       0.232613              0.0157035186            0.000953113918           
       0.233292              0.0144801409            0.000906392344           
       0.233971              0.0142939301             0.00090012524           
       0.234650               0.014586671            0.000919991349           
       0.235330              0.0140804598            0.000895993819           
       0.236009              0.0168196766            0.000977165838           
       0.236688              0.0149009963            0.000916452803           
       0.237367              0.0152812549            0.000929420568           
       0.238046              0.0153823738            0.000939057619           
       0.238725              0.0136119674            0.000869738248           
       0.239405              0.0142960877            0.000896853391           
       0.240084              0.0159248109            0.000940536673           
       0.240763              0.0149010436            0.000918513723           
       0.241442              0.0156159576            0.000927040457           
       0.242121              0.0145847477            0.000897599989           
       0.242800              0.0160318727            0.000945533006           
       0.243480              0.0142987985            0.000888783681           
       0.244159              0.0147129434            0.000901999237           
       0.244838              0.0129348796            0.000831825007           
       0.245517              0.0146475657            0.000897916901           
       0.246196              0.0161339747            0.000942830155           
       0.246875              0.0148821156            0.000892891208           
       0.247554              0.0137140493            0.000865845924           
       0.248234              0.0147806913            0.000885257142           
       0.248913               0.014031656            0.000872209756           
       0.249592              0.0147256361            0.000885027852           
       0.250271              0.0153298155            0.000900379233           
       0.250950              0.0130031445            0.000834320802           
       0.251629              0.0149964685            0.000888375068           
       0.252309                 0.0138911            0.000856743299           
       0.252988              0.0133037966            0.000823994097           
       0.253667              0.0134205579            0.000837271684           
       0.254346              0.0139706856            0.000854084024           
       0.255025              0.0132397895            0.000829621297           
       0.255704              0.0129138183            0.000815592105           
       0.256384              0.0142481252            0.000853727906           
       0.257063              0.0132401094            0.000827666693           
       0.257742              0.0126883364            0.000804622945           
       0.258421              0.0123706653            0.000792957364           
       0.259100              0.0138524328            0.000840568316           
       0.259779              0.0135722317            0.000831318255           
       0.260459              0.0126098867            0.000802877526           
       0.261138              0.0141159186            0.000832869816           
       0.261817              0.0134309979            0.000828811911           
       0.262496              0.0129662978            0.000806361226           
       0.263175               0.012368245            0.000789237095           
       0.263854              0.0143524217            0.000846240183           
       0.264534              0.0139833678            0.000828155318           
       0.265213                0.01277684            0.000804096623           
       0.265892              0.0115635956            0.000755166872           
       0.266571              0.0114100854            0.000748431716           
       0.267250              0.0124855125            0.000784227213           
       0.267929              0.0125069118            0.000784094157           
       0.268609              0.0115936658             0.00075905801           
       0.269288              0.0113539197             0.00073869013           
       0.269967              0.0120482846            0.000769141378           
       0.270646              0.0110091601            0.000732047437           
       0.271325              0.0107089574            0.000723203414           
       0.272004              0.0131290498            0.000792779834           
       0.272683              0.0123970091            0.000771313077           
       0.273363               0.014937738            0.000852070905           
       0.274042              0.0131756916            0.000795518201           
       0.274721              0.0128100333            0.000783936671           
       0.275400              0.0122448633            0.000761373547           
       0.276079              0.0135795427             0.00080634785           
       0.276758              0.0122350105            0.000775047581           
       0.277438              0.0124824721            0.000774058695           
       0.278117              0.0110061788            0.000740061816           
       0.278796              0.0115132071            0.000749233377           
       0.279475              0.0118687933            0.000773282065           
       0.280154              0.0114129385            0.000747379212           
       0.280833              0.0109632947            0.000736963353           
       0.281513              0.0115743425            0.000769102316           
       0.282192              0.0104671537            0.000718914289           
       0.282871              0.0122045688            0.000781714628           
       0.283550              0.0111625184            0.000751604317           
       0.284229              0.0112185311            0.000764554469           
       0.284908              0.0103967611            0.000743783072           
       0.285588              0.0097526013            0.000711937484           
       0.286267              0.0116860378            0.000791797268           
       0.286946             0.00973018017            0.000717806403           
       0.287625              0.0108434493            0.000770660273           
       0.288304              0.0123433044            0.000811227878           
       0.288983             0.00988152918            0.000735028947           
       0.289663             0.00995753692            0.000742168943           
       0.290342              0.0108365923            0.000770114309           
       0.291021              0.0105670492            0.000764573364           
       0.291700              0.0116741114            0.000793128202           
       0.292379             0.00986866287            0.000745919797           
       0.293058             0.00973160277            0.000737923919           
       0.293738              0.0104045811            0.000756605249           
       0.294417              0.0104857278             0.00076837836           
       0.295096              0.0105744053            0.000763137932           
       0.295775             0.00927863975            0.000725770998           
       0.296454              0.0110211861            0.000780760131           
       0.297133              0.0100119847            0.000747675844           
       0.297812             0.00959338442            0.000735549563           
       0.298492              0.0113811447            0.000802707421           
       0.299171               0.010619938            0.000773932127           
       0.299850              0.0102465902            0.000755015341           
       0.300529              0.0101341868            0.000759320796           
       0.301208             0.00911201805            0.000721761387           
       0.301887             0.00976917556            0.000746446915           
       0.302567             0.00886732083            0.000707596402           
       0.303246              0.0115214281             0.00081183687           
       0.303925             0.00870553794            0.000714749998           
       0.304604             0.00865754863            0.000697386341           
       0.305283             0.00922192923            0.000730433465           
       0.305962             0.00892533693            0.000714250386           
       0.306642             0.00916699657            0.000733686225           
       0.307321             0.00847388931            0.000703152003           
       0.308000             0.00958360447            0.000738913691           
       0.308679             0.00847124926            0.000709753469           
       0.309358             0.00852476786            0.000702360745           
       0.310037             0.00891380403            0.000719808628           
       0.310717             0.00889788221            0.000718473561           
       0.311396             0.00861190443            0.000711573886           
       0.312075             0.00926665393             0.00074748865           
       0.312754             0.00836071814            0.000695806597           
       0.313433             0.00910574256            0.000732462164           
       0.314112             0.00874882931             0.00071779889           
       0.314792             0.00820385668            0.000699991767           
       0.315471             0.00730429796            0.000652332333           
       0.316150             0.00853946317            0.000711862009           
       0.316829             0.00795784287            0.000691730101           
       0.317508             0.00802390388             0.00068680112           
       0.318187             0.00853927711            0.000717860875           
       0.318866             0.00800383176            0.000685627967           
       0.319546             0.00892853805            0.000735006817           
       0.320225             0.00844971047            0.000715040423           
       0.320904             0.00805544159            0.000687364039           
       0.321583             0.00763967939            0.000684140557           
       0.322262             0.00798264062            0.000688729246           
       0.322941             0.00728443688            0.000666349256           
       0.323621             0.00756148025            0.000674759208           
       0.324300             0.00757561049            0.000675918734           
       0.324979              0.0071152331            0.000656242988           
       0.325658             0.00719626846            0.000661166677           
       0.326337             0.00789297488            0.000693336621           
       0.327016             0.00736510228             0.00066549869           
       0.327696             0.00748830072            0.000678504779           
       0.328375              0.0082506162             0.00070619425           
       0.329054             0.00786280211            0.000693136519           
       0.329733             0.00694377768            0.000653749171           
       0.330412             0.00863824857            0.000723191018           
       0.331091             0.00789173721            0.000703774865           
       0.331771             0.00699373518            0.000645164325           
       0.332450             0.00727106426            0.000670603558           
       0.333129             0.00870764724            0.000731973198           
       0.333808             0.00676448092            0.000646004634           
       0.334487             0.00665725421            0.000643902673           
       0.335166             0.00742109361            0.000669890187           
       0.335846             0.00718224777            0.000670603031           
       0.336525             0.00593732249            0.000603700478           
       0.337204             0.00677268813            0.000646463205           
       0.337883             0.00710509961            0.000663015457           
       0.338562             0.00799444176            0.000707189851           
       0.339241             0.00670133084            0.000648687479           
       0.339921             0.00701722455            0.000652668776           
       0.340600             0.00578438155            0.000603821731           
       0.341279             0.00775711862            0.000691759047           
       0.341958             0.00627534731            0.000630968737           
       0.342637             0.00651937394            0.000634034377           
       0.343316             0.00735492566            0.000675389916           
       0.343995             0.00652469299            0.000646545483           
       0.344675             0.00572439813            0.000594467836           
       0.345354             0.00661628494            0.000643318212           
       0.346033             0.00595449739            0.000608706183           
       0.346712             0.00635482031            0.000632847607           
       0.347391             0.00572453991            0.000604363974           
       0.348070             0.00642436934            0.000631148699           
       0.348750             0.00733749386            0.000684259355           
       0.349429             0.00608587818            0.000615127765           
       0.350108             0.00573372872            0.000604250675           
       0.350787             0.00651925411            0.000633367785           
       0.351466             0.00650581252            0.000644369859           
       0.352145              0.0058064563            0.000609256634           
       0.352825             0.00644741816            0.000639095832           
       0.353504             0.00594156153            0.000613361971           
       0.354183             0.00642096411            0.000630280786           
       0.354862             0.00608823252            0.000627994644           
       0.355541             0.00617080563            0.000623958864           
       0.356220             0.00519036187            0.000573328338           
       0.356900             0.00406505995            0.000512204881           
       0.357579             0.00589174342             0.00060907946           
       0.358258             0.00549304383            0.000596248581           
       0.358937             0.00515031975            0.000566493977           
       0.359616             0.00595508294            0.000617653308           
       0.360295             0.00519544768            0.000577396303           
       0.360975             0.00591238538            0.000613313496           
       0.361654             0.00558607181            0.000599221881           
       0.362333             0.00490321927            0.000558548828           
       0.363012             0.00567920041            0.000608858273           
       0.363691             0.00644056856            0.000635595527           
       0.364370             0.00598048938            0.000620071266           
       0.365050             0.00470417675             0.00054699694           
       0.365729             0.00465707373            0.000549440954           
       0.366408             0.00469295961            0.000552775047           
       0.367087             0.00641908774            0.000636120896           
       0.367766             0.00486944261            0.000565585876           
       0.368445             0.00392511602            0.000498775595           
       0.369124             0.00476815893            0.000554054729           
       0.369804             0.00519010387            0.000577124958           
       0.370483             0.00523654994             0.00058223797           
       0.371162             0.00505932348             0.00057561852           
       0.371841             0.00524044298            0.000575616967           
       0.372520             0.00579078988            0.000617216689           
       0.373199             0.00456302507            0.000541346414           
       0.373879             0.00472724723             0.00055738119           
       0.374558             0.00444576923            0.000532644616           
       0.375237             0.00537376411            0.000586563085           
       0.375916             0.00446323732            0.000544805726           
       0.376595             0.00491763995            0.000560690128           
       0.377274              0.0051581625            0.000583429976           
       0.377954             0.00440973142            0.000530971003           
       0.378633             0.00413522374            0.000520676701           
       0.379312             0.00498591601            0.000571585845           
       0.379991             0.00376191637            0.000493923731           
       0.380670             0.00498260393            0.000578485531           
       0.381349             0.00450813446            0.000542352696           
       0.382029             0.00503783562             0.00058154576           
       0.382708             0.00482159273            0.000556503922           
       0.383387             0.00445731359            0.000547194601           
       0.384066             0.00396236837            0.000511186537           
       0.384745             0.00499742844            0.000576340546           
       0.385424             0.00429120597            0.000535880692           
       0.386104              0.0037332991            0.000494309225           
       0.386783             0.00494748515            0.000581350645           
       0.387462             0.00416220445            0.000519956556           
       0.388141              0.0041769439            0.000529195669           
       0.388820             0.00364388867            0.000490703016           
       0.389499             0.00409482068            0.000523108327           
       0.390178              0.0039210587            0.000513927529           
       0.390858             0.00491966559            0.000571004499           
       0.391537             0.00346572086            0.000484150908           
       0.392216             0.00396778668            0.000511540692           
       0.392895             0.00339590753            0.000474837038           
       0.393574             0.00371085596            0.000495137546           
       0.394253             0.00427140322            0.000533609421           
       0.394933             0.00369460369            0.000501945744           
       0.395612             0.00308561757            0.000445391483           
       0.396291             0.00422946162            0.000532066933           
       0.396970             0.00447730598            0.000542584211           
       0.397649             0.00457582924            0.000550210335           
       0.398328             0.00406821833             0.00051651484           
       0.399008             0.00496548213            0.000569398762           
       0.399687              0.0046728098            0.000554511477           
       0.400366             0.00450264548            0.000542239426           
       0.401045             0.00293087752            0.000436650688           
       0.401724             0.00398998079            0.000510322872           
       0.402403             0.00398690393            0.000514102027           
       0.403083             0.00469541875            0.000549870778           
       0.403762             0.00389984685            0.000503597498           
       0.404441             0.00297335008            0.000442527306           
       0.405120              0.0041223077            0.000519350736           
       0.405799             0.00362783695            0.000485091438           
       0.406478             0.00343627655            0.000472122492           
       0.407158             0.00400018746            0.000508434455           
       0.407837             0.00427201319             0.00053006304           
       0.408516             0.00332717406            0.000463718423           
       0.409195             0.00380951579            0.000501822764           
       0.409874             0.00361257981            0.000495478692           
       0.410553             0.00361787003            0.000501174149           
       0.411233             0.00295851241            0.000450861034           
       0.411912             0.00299541483            0.000460092212           
       0.412591             0.00239380299            0.000414023899           
       0.413270             0.00453928655            0.000567422887           
       0.413949             0.00257608769            0.000432126636           
       0.414628             0.00335202726            0.000492044106           
       0.415307              0.0032895367             0.00049285804           
       0.415987             0.00287392615            0.000456876294           
       0.416666             0.00290633733            0.000456681038           
       0.417345             0.00226408444            0.000409806445           
       0.418024             0.00330574227            0.000495197032           
       0.418703             0.00322805534            0.000488444745           
       0.419382             0.00296868371            0.000466115431           
       0.420062             0.00304449735            0.000473352213           
       0.420741             0.00324777663            0.000491499594           
       0.421420             0.00297595021              0.0004722662           
       0.422099             0.00356696711            0.000517052776           
       0.422778              0.0032383754            0.000495329748           
       0.423457             0.00228582106            0.000418699108           
       0.424137             0.00249629308            0.000430420401           
       0.424816             0.00300122066            0.000481811232           
       0.425495             0.00330223544             0.00050491809           
       0.426174             0.00323053982            0.000499581679           
       0.426853             0.00227561894            0.000416747173           
       0.427532             0.00231243165            0.000423656374           
       0.428212             0.00258340622            0.000450747252           
       0.428891             0.00202545435            0.000398207137           
       0.429570             0.00250112316             0.00044280467           
       0.430249             0.00199492126            0.000393411293           
       0.430928             0.00201282636            0.000403814239           
       0.431607             0.00218276715            0.000413290206           
       0.432287              0.0021400341            0.000412221776           
       0.432966              0.0025780587            0.000456425968           
       0.433645             0.00194401233            0.000396758959           
       0.434324             0.00278431062            0.000471965508           
       0.435003             0.00352785331            0.000532166831           
       0.435682             0.00318524109            0.000509813211           
       0.436361              0.0026920862            0.000468061351           
       0.437041             0.00219252309            0.000421842586           
       0.437720             0.00172759162            0.000376260488           
       0.438399             0.00298196044            0.000496911895           
       0.439078              0.0026607638            0.000482998944           
       0.439757             0.00149629108            0.000359970853           
       0.440436             0.00283620049            0.000506764998           
       0.441116             0.00247783073            0.000481413319           
       0.441795             0.00276733406            0.000509373091           
       0.442474             0.00314494655            0.000544529177           
       0.443153             0.00194613372            0.000438345349           
       0.443832               0.002540167            0.000501640533           
       0.444511             0.00330577601            0.000569687806           
       0.445191             0.00215154247             0.00047077369           
       0.445870             0.00307220181            0.000562566612           
       0.446549             0.00251735543            0.000514608609           
       0.447228             0.00196016833            0.000451534018           
       0.447907             0.00287459026            0.000553365396           
       0.448586             0.00212391751             0.00048710064           
       0.449266             0.00197833393            0.000465786021           
       0.449945             0.00141551693              0.0003923911           
       0.450624             0.00353268389            0.000629733179           
       0.451303             0.00221214011            0.000504782137           
       0.451982             0.00194781185            0.000470736707           
       0.452661             0.00262275406            0.000556416303           
       0.453341             0.00217691494             0.00050869924           
       0.454020             0.00300543731            0.000598625912           
       0.454699             0.00221316606            0.000518390683           
       0.455378             0.00259108027            0.000561207701           
       0.456057             0.00156756898            0.000444275493           
       0.456736              0.0010401745            0.000360774422           
       0.457416             0.00131124872            0.000405076927           
       0.458095             0.00212095671            0.000522637959           
       0.458774             0.00206055633            0.000521950382           
       0.459453             0.00207470837            0.000526381185           
       0.460132               0.001720085            0.000468937509           
       0.460811             0.00160489724            0.000469863842           
       0.461490             0.00197747309             0.00051625481           
       0.462170             0.00148292877            0.000454039845           
       0.462849             0.00234052248            0.000574113723           
       0.463528             0.00107759777            0.000388652609           
       0.464207             0.00198891262            0.000537888353           
       0.464886               0.001667897            0.000488735596           
       0.465565             0.00128763666            0.000434140987           
       0.466245             0.00129685011            0.000437043426           
       0.466924             0.00197593342            0.000552211443           
       0.467603            0.000702550747            0.000322290312           
       0.468282             0.00106554283            0.000406323671           
       0.468961             0.00124550935            0.000442184829           
       0.469640             0.00125606223            0.000445825615           
       0.470320             0.00157610977            0.000499749925           
       0.470999             0.00145183217            0.000484166521           
       0.471678            0.000994029445            0.000404474087           
       0.472357             0.00183003491            0.000550340537           
       0.473036             0.00134371443            0.000474556584           
       0.473715             0.00119874556            0.000451733417           
       0.474395             0.00106869073            0.000432421166           
       0.475074             0.00247868461            0.000658573433           
       0.475753             0.00173128716            0.000545650366           
       0.476432             0.00131905804            0.000493618868           
       0.477111            0.000222566601            0.000200311518           
       0.477790            0.000952189179            0.000416535283           
       0.478470            5.08461242e-05            9.75269649e-05           
       0.479149            0.000823724484            0.000396602746           
       0.479828            0.000799754356            0.000389869685           
       0.480507             0.00178455706            0.000587075198           
       0.481186            0.000282172081            0.000238707923           
       0.481865            0.000259491089            0.000226078611           
       0.482545            0.000468638952            0.000307389526           
       0.483224            0.000695852525            0.000377125526           
       0.483903            0.000517005211             0.00033018881           
       0.484582            0.000542950674            0.000343875081           
       0.485261            0.000701656053            0.000381011179           
       0.485940            0.000334162054            0.000273545569           
       0.486619            -0.00010145253                         0           
       0.487299            0.000344836599            0.000279204734           
       0.487978           -0.000103006826                         0           
       0.488657           -8.60819596e-05                         0           
       0.489336            0.000377143276            0.000295665928           
       0.490015             0.00013424092               0.000177783           
       0.490694            0.000411703795            0.000319954878           
       0.491374            0.000406494693            0.000314048609           
       0.492053           -0.000320183306                         0           
       0.492732           -0.000320202668                         0           
       0.493411           -0.000320222282                         0           
       0.494090           -6.10053357e-05                         0           
       0.494769           -0.000320261385                         0           
       0.495449           -0.000320281019                         0           
       0.496128           -5.41119947e-05                         0           
       0.496807           -0.000320320191                         0           
       0.497486           -4.99603468e-05                         0           
       0.498165           -0.000320359789                         0           
       0.498844           -0.000320379429                         0           
       0.499524            0.000255152763             0.00027058547           
       0.500203           -0.000320419207                         0           
       0.500882           -0.000320438858                         0           
       0.501561           -2.01222085e-05                         0           
       0.502240           -0.000320478547                         0           
       0.502919            0.000315770873            0.000316591959           
       0.503599           -0.000320518402                         0           
       0.504278           -0.000320538649                         0           
       0.504957           -0.000320558659                         0           
       0.505636            -0.00032057854                         0           
       0.506315           -0.000320598749                         0           
       0.506994           -0.000320618597                         0           
       0.507673           -0.000320638404                         0           
       0.508353            7.24610421e-06            4.90870511e-05           
       0.509032           -0.000320678768                         0           
       0.509711           -0.000320698914                         0           
       0.510390            0.000397940357            0.000379358082           
       0.511069            0.000404850067            0.000383807393           
       0.511748           -0.000320760086                         0           
       0.512428           -0.000320780544                         0           
       0.513107           -0.000320800687                         0           
       0.513786           -0.000320820894                         0           
       0.514465           -0.000320841445                         0           
       0.515144            9.70073408e-05             0.00020184835           
       0.515823           -0.000320882332                         0           
       0.516503           -0.000320902873                         0           
       0.517182           -0.000320923412                         0           
       0.517861            0.000110882955            0.000217741188           
       0.518540           -0.000320964505                         0           
       0.519219             0.00142699121            0.000789647846           
       0.519898           -0.000321005683                         0           
       0.520578             -0.0003210265                         0           
       0.521257           -0.000321047048                         0           
       0.521936            0.000137625846            0.000251753089           
       0.522615            0.000135004236            0.000255289636           
       0.523294           -0.000321109411                         0           
       0.523973           -0.000321130043                         0           
       0.524653           -0.000321150526                         0           
       0.525332           -0.000321171308                         0           
       0.526011           -0.000321192464                         0           
       0.526690           -0.000321213579                         0           
       0.527369           -0.000321234519                         0           
       0.528048           -0.000321255609                         0           
       0.528728           -0.000321276674                         0           
       0.529407           -0.000321297642                         0           
       0.530086            0.000205518747            0.000329285763           
       0.530765            -0.00032133939                         0           
       0.531444           -0.000321360504                         0           
       0.532123           -0.000321381992                         0           
       0.532802           -0.000321403305                         0           
       0.533482           -0.000321424544                         0           
       0.534161           -0.000321445818                         0           
       0.534840            0.000269969298            0.000399077307           
       0.535519           -0.000321488392                         0           
       0.536198            0.000264176971            0.000395770352           
       0.536877           -0.000321530618                         0           
       0.537557           -0.000321551945                         0           
       0.538236           -0.000321573465                         0           
       0.538915           -0.000321594977                         0           
       0.539594            0.000987370677            0.000803798377           
       0.540273            0.000296053828            0.000428662142           
       0.540952           -0.000321659854                         0           
       0.541632           -0.000321681035                         0           
       0.542311            -0.00032170241                         0           
       0.542990           -0.000321724025                         0           
       0.543669            0.000319348948            0.000452331745           
       0.544348            0.000422588021            0.000560556023           
       0.545027           -0.000321789313                         0           
       0.545707            0.000416732579            0.000554986253           
       0.546386           -0.000321832951                         0           
       0.547065           -0.000321854538                         0           
       0.547744           -0.000321876223                         0           
       0.548423           -0.000321898148                         0           
       0.549102           -0.000321920094                         0           
       0.549782            0.000425744709             0.00056106915           
       0.550461           -0.000321964025                         0           
       0.551140           -0.000321986254                         0           
       0.551819            0.000523522013            0.000664323666           
       0.552498            0.000498169564            0.000641368129           
       0.553177           -0.000322052146                         0           
       0.553856           -0.000322073997                         0           
       0.554536            -0.00032209592                         0           
       0.555215           -0.000322118177                         0           
       0.555894               0.001371402             0.00107921405           
       0.556573           -0.000322162719                         0           
       0.557252           -0.000322185037                         0           
       0.557931           -0.000322207254                         0           
       0.558611            -0.00032222999                         0           
       0.559290           -0.000322252149                         0           
       0.559969           -0.000322273762                         0           
       0.560648           -0.000322295948                         0           
       0.561327           -0.000322318629                         0           
       0.562006           -0.000322341204                         0           
       0.562686           -0.000322363792                         0           
       0.563365           -0.000322386463                         0           
       0.564044            -0.00032240902                         0           
       0.564723           -0.000322431528                         0           
       0.565402           -0.000322453615                         0           
       0.566081            -0.00032247585                         0           
       0.566761           -0.000322498324                         0           
       0.567440           -0.000322521254                         0           
       0.568119            0.000830106553            0.000986482954           
       0.568798              0.0011278682             0.00128099353           
       0.569477           -0.000322589994                         0           
       0.570156           -0.000322613026                         0           
       0.570836             0.00109139575             0.00123806968           
       0.571515             0.00265433209             0.00200193944           
       0.572194           -0.000322681545                         0           
       0.572873           -0.000322704127                         0           
       0.573552           -0.000322726577                         0           
       0.574231           -0.000322749483                         0           
       0.574911           -0.000322772965                         0           
       0.575590           -0.000322795996                         0           
       0.576269           -0.000322818956                         0           
       0.576948           -0.000322842358                         0           
       0.577627           -0.000322865046                         0           
       0.578306           -0.000322888054                         0           
       0.578985           -0.000322911258                         0           
       0.579665           -0.000322934329                         0           
       0.580344           -0.000322957749                         0           
       0.581023           -0.000322981144                         0           
       0.581702           -0.000323004322                         0           
       0.582381            -0.00032302729                         0           
       0.583060           -0.000323050943                         0           
       0.583740           -0.000323074224                         0           
       0.584419           -0.000323097583                         0           
       0.585098           -0.000323120914                         0           
       0.585777           -0.000323144426                         0           
       0.586456           -0.000323168321                         0           
       0.587135           -0.000323191581                         0           
       0.587815            -0.00032321459                         0           
       0.588494           -0.000323238316                         0           
       0.589173           -0.000323262586                         0           
       0.589852           -0.000323285567                         0           
       0.590531           -0.000323309414                         0           
       0.591210           -0.000323332711                         0           
       0.591890           -0.000323356458                         0           
       0.592569           -0.000323379411                         0           
       0.593248           -0.000323404504                         0           
       0.593927           -0.000323428363                         0           
       0.594606           -0.000323452712                         0           
       0.595285            -0.00032347561                         0           
       0.595965           -0.000323496978                         0           
       0.596644           -0.000323518966                         0           
