################################################################################
# EDF_DataBlockID                     0.Image.Psd
# EDF_BinarySize                      4366944
# EDF_HeaderSize                      2560
# ByteOrder                           LowByteFirst
# DataType                            FloatValue
# Dim_1                               1028
# Dim_2                               1062
# Image                               0
# HeaderID                            EH:000000:000000:000000
# Size                                4366944
# Center_1                            607.5200
# Center_2                            651.5500
# Comment                             Xenocs_Cell_Window - 20251028_20perc_iodine_1.23mg
# DDummy                              0.6
# Date                                2025-10-31T13:45:09
# Delta                               0
# Dummy                               -1.5
# ExposureTime                        360
# Gamma                               0
# Intensity1                          8.55799e-10
# PSize_1                             7.5e-05
# PSize_2                             7.5e-05
# Pressure                            0.0326576
# SampleDistance                      0.450002
# SampleEnvKind                       large
# SampleEnvPN                         ElectroChemical cell
# SampleEnvSN                         1141
# Thickness                           0
# Wavelength                          1.541891e-10
# Wavelength                          1.54189e-10
# aux                                 0
# aux_dial                            0.002375
# beamx                               588.434
# beamx_dial                          588.434
# beamz                               657.808
# beamz_dial                          657.808
# det0x                               0
# det0x_dial                          6.36945
# det0xvd                             0
# det0xvd_dial                        0
# det0y                               450.002
# det0y_dial                          481.635
# det0z                               0
# det0z_dial                          1.23302
# det0zvd                             0
# det0zvd_dial                        0
# mag                                 1.818
# mag_dial                            1.818
# om                                  0.2499
# om_dial                             -0.610199
# phi                                 -0.0120535
# phi_dial                            0
# ry                                  0.599993
# ry_dial                             0.599993
# s1bot                               0.8
# s1bot_dial                          -1.66094
# s1hl                                0.8
# s1hl_dial                           -0.608437
# s1hr                                0.8
# s1hr_dial                           0.970938
# s1top                               0.8
# s1top_dial                          -0.461562
# s2bot                               0.45
# s2bot_dial                          1.36109
# s2hl                                0.45
# s2hl_dial                           -0.83375
# s2hr                                0.45
# s2hr_dial                           -0.118594
# s2top                               0.45
# s2top_dial                          1.44734
# w2theta                             32
# w2theta_dial                        32
# waxsch                              19.2605
# waxsch_dial                         -32.7355
# waxsh                               137.085
# waxsh_dial                          -43.5338
# waxsth                              26.0607
# waxsth_dial                         -19.4086
# waxsz                               67.0407
# waxsz_dial                          -23.7954
# wind                                65.9854
# wind_dial                           66.0041
# wpsi                                124
# wpsi_dial                           124
# wstod                               115
# wstod_dial                          115
# x                                   0
# x_dial                              1.00969
# z                                   0
# z_dial                              13.3172
# CountCutoff                         15302352
# DetectorModel                       Dectris EIGER2 Si 1M, S/N E-02-0362
# ThresholdSetting                    4023.88989258
# Saturation                          0
# FlatField                           Corrected
# BackgroundReductionExtra            0.02
# BackgroundCorrectionConstant        0.0026712
# Detector                            0
# Monitor                             0
# Pil_Roi0                            0
# SumForIntensity1                    3.08088e+08
# TransmittedFlux                     855799
# det                                 0
# mon                                 0
# pilai0                              3.08088e+08
# pilai1                              779803
# pilct0                              5.32844e+08
# pilct1                              779803
# pilroi0                             0
# pilroi1                             0
# sec                                 1
# title                               20251028_20perc_iodine_1.23mg_0_00649.edf
# usaxs0                              0
# Operation                           Azimuthal average I(q)
# Error_model                         ErrorModel.poisson
# Geometrical_correction              True
# Transmission_correction             True
# Thickness_correction                False
# Binning mode                        Uniform
# Binning factor                      1.0
# Psi                                 0.0
# Omega                               0.2499
# MaskInvalidPixels                   True
# DetectorEdge                        3
# MaskFiles                           ['20251028_20perc_iodine_1.23mg_0_00012_mask.edf']
################################################################################
    q(A⁻¹)                Intensity(a.u.)            Sigma_I(a.u.)            
       0.000340                373215.865                120.568947           
       0.001019                 360116.66                72.5258248           
       0.001698                350163.598                 50.569843           
       0.002377                331129.938                43.9845724           
       0.003056                307696.529                35.8342651           
       0.003735                253306.625                28.6740035           
       0.004415                204519.884                25.7651652           
       0.005094                152527.144                19.2694574           
       0.005773                100550.074                14.4848456           
       0.006452                58488.3847                10.5848998           
       0.007131                32336.0952                7.62437313           
       0.007810                16286.9817                5.36989212           
       0.008490                8228.43779                3.38326872           
       0.009169                4001.06772                2.33161268           
       0.009848                1245.19209                1.25759906           
       0.010527                485.000703               0.784865923           
       0.011206                121.784858                0.37536558           
       0.011885                55.4299918               0.235287185           
       0.012564                25.2078657               0.162901721           
       0.013244                17.1119433                0.12547791           
       0.013923                12.1753131               0.107549239           
       0.014602                9.38064267              0.0875524881           
       0.015281                 7.3782502              0.0790419706           
       0.015960                6.08559406              0.0712702838           
       0.016639                4.84292857              0.0600379219           
       0.017319                4.05076141              0.0540546087           
       0.017998                3.41856457              0.0475070052           
       0.018677                2.80831314              0.0445967977           
       0.019356                2.45753859              0.0412221071           
       0.020035                2.15649616              0.0362282717           
       0.020714                1.86635723              0.0340598627           
       0.021394                1.61151385               0.029945556           
       0.022073                1.45369014              0.0295910681           
       0.022752                1.25302707              0.0262807934           
       0.023431                1.07292936              0.0236059295           
       0.024110                1.03058887               0.024120426           
       0.024789               0.857540487              0.0204338294           
       0.025469               0.808636816              0.0204480205           
       0.026148               0.736529781              0.0183360004           
       0.026827               0.633425909              0.0172763592           
       0.027506               0.626554126              0.0174301706           
       0.028185               0.555152858              0.0156464185           
       0.028864               0.516629681              0.0150090995           
       0.029544               0.450783239              0.0135954819           
       0.030223               0.425637844              0.0134002899           
       0.030902               0.379438359              0.0127679426           
       0.031581               0.377349162              0.0121038637           
       0.032260               0.352746712              0.0119020405           
       0.032939               0.321762108              0.0109605559           
       0.033619               0.279323502              0.0103622755           
       0.034298               0.275989247              0.0100238061           
       0.034977               0.253617367             0.00942011686           
       0.035656               0.234958156              0.0093069333           
       0.036335               0.224211141             0.00881770477           
       0.037014               0.198334678             0.00831801699           
       0.037693               0.200681842             0.00804903175           
       0.038373               0.190147072             0.00791180465           
       0.039052               0.178093085             0.00768950055           
       0.039731               0.152486845             0.00694944266           
       0.040410               0.161858114             0.00711179908           
       0.041089               0.141795215             0.00655218681           
       0.041768               0.138899844             0.00651882669           
       0.042448               0.117237299              0.0059424891           
       0.043127               0.128720145             0.00607964958           
       0.043806               0.124079899             0.00601356747           
       0.044485               0.119416457              0.0057782827           
       0.045164               0.114254141             0.00576340265           
       0.045843                 0.1135945             0.00551182178           
       0.046523              0.0998630354             0.00518580273           
       0.047202               0.102697379             0.00529562859           
       0.047881               0.100564798             0.00513929992           
       0.048560              0.0941479587             0.00501795755           
       0.049239                0.07861444             0.00440276551           
       0.049918               0.085394575             0.00467840282           
       0.050598                 0.0902371             0.00473707075           
       0.051277              0.0892099125             0.00469508623           
       0.051956              0.0848704017              0.0045507118           
       0.052635              0.0773417199             0.00425199044           
       0.053314              0.0784858588             0.00440855712           
       0.053993              0.0645642099             0.00388882876           
       0.054673              0.0722727728              0.0040227843           
       0.055352              0.0702732574             0.00402501205           
       0.056031              0.0759798037             0.00409731032           
       0.056710              0.0720232451             0.00408695798           
       0.057389              0.0671934371              0.0038066627           
       0.058068              0.0607098061             0.00365564763           
       0.058748              0.0613615782             0.00372106364           
       0.059427              0.0628069107              0.0037008936           
       0.060106              0.0688119164             0.00391044174           
       0.060785              0.0655317854             0.00370176281           
       0.061464              0.0619809765             0.00368685224           
       0.062143              0.0572897764             0.00350857589           
       0.062822              0.0625580456             0.00362332601           
       0.063502              0.0527506803             0.00332126283           
       0.064181              0.0480367142             0.00313592323           
       0.064860              0.0548372435             0.00340158609           
       0.065539               0.049693086             0.00320644659           
       0.066218              0.0483580972             0.00309535599           
       0.066897              0.0477486625             0.00309953352           
       0.067577              0.0522738515             0.00327423937           
       0.068256              0.0431309587             0.00304720768           
       0.068935              0.0494033022             0.00320852771           
       0.069614              0.0462807493              0.0031363891           
       0.070293              0.0403531046             0.00295566047           
       0.070972              0.0408143687             0.00295074086           
       0.071652              0.0458677184             0.00313381936           
       0.072331              0.0413630829              0.0029229197           
       0.073010              0.0402522592             0.00294928739           
       0.073689              0.0383251096             0.00286200624           
       0.074368              0.0442773126             0.00307064026           
       0.075047              0.0436055523              0.0030145046           
       0.075727              0.0356812255             0.00271003082           
       0.076406              0.0418037797             0.00299186501           
       0.077085              0.0428726857             0.00297324974           
       0.077764              0.0387531095             0.00281688988           
       0.078443              0.0317521284             0.00256556845           
       0.079122              0.0366023701             0.00272809508           
       0.079802              0.0369821346             0.00277129468           
       0.080481              0.0409377691             0.00281738694           
       0.081160              0.0343553685             0.00263392412           
       0.081839              0.0367798294             0.00268164739           
       0.082518              0.0335118925             0.00256189838           
       0.083197              0.0351433805             0.00258275497           
       0.083876              0.0307120796             0.00237431835           
       0.084556              0.0347307643              0.0025951043           
       0.085235              0.0335903547              0.0025028342           
       0.085914              0.0361457754             0.00262151314           
       0.086593              0.0304428777             0.00239035242           
       0.087272              0.0326247583             0.00243955194           
       0.087951              0.0307874358             0.00242339542           
       0.088631              0.0295808804             0.00229452604           
       0.089310              0.0315840366             0.00242123009           
       0.089989              0.0301148518             0.00233660567           
       0.090668              0.0307908749             0.00238876618           
       0.091347              0.0319020251             0.00244509939           
       0.092026              0.0347421827              0.0024389357           
       0.092706              0.0286973049             0.00229708282           
       0.093385              0.0303038201             0.00232425563           
       0.094064              0.0301509902             0.00234537002           
       0.094743               0.030630356             0.00232791648           
       0.095422              0.0259493248             0.00211877257           
       0.096101              0.0299250384             0.00232216048           
       0.096781                0.02924161              0.0022626229           
       0.097460               0.027566621             0.00213693723           
       0.098139              0.0301398439             0.00221725621           
       0.098818              0.0250598637             0.00199688594           
       0.099497              0.0288443096             0.00214676615           
       0.100176              0.0287135931              0.0020856815           
       0.100856              0.0279040907              0.0020547537           
       0.101535              0.0226729378             0.00184859309           
       0.102214              0.0252470038             0.00195072046           
       0.102893              0.0257253652             0.00194667846           
       0.103572              0.0259606744             0.00192667203           
       0.104251              0.0283977264             0.00202252091           
       0.104931              0.0243081052              0.0018541926           
       0.105610               0.024805448              0.0018810548           
       0.106289              0.0270594594             0.00193196518           
       0.106968              0.0265569299              0.0019196217           
       0.107647              0.0230901977             0.00179102283           
       0.108326               0.023558029             0.00178487425           
       0.109005              0.0284687204             0.00194975943           
       0.109685              0.0236555462             0.00175737542           
       0.110364              0.0244992413             0.00180875301           
       0.111043              0.0214703682             0.00168654262           
       0.111722              0.0247241352             0.00178771032           
       0.112401              0.0226350444             0.00171527317           
       0.113080              0.0253949941              0.0017960199           
       0.113760              0.0202393441             0.00163015644           
       0.114439              0.0218375126             0.00166912883           
       0.115118              0.0244487794             0.00175278953           
       0.115797              0.0225654305               0.001699526           
       0.116476              0.0234860185             0.00170789608           
       0.117155               0.021495139             0.00164708334           
       0.117835              0.0220612217             0.00163545872           
       0.118514               0.021897824             0.00165005072           
       0.119193              0.0202847704             0.00158812614           
       0.119872              0.0233990662             0.00168435459           
       0.120551               0.020474158             0.00156507349           
       0.121230              0.0245869705             0.00169781997           
       0.121910               0.021786118             0.00161363846           
       0.122589              0.0243066932             0.00170618666           
       0.123268              0.0217557805              0.0015829042           
       0.123947              0.0218145841             0.00159529301           
       0.124626              0.0204571641             0.00152597329           
       0.125305              0.0197843844             0.00150803523           
       0.125985              0.0213686151             0.00155508941           
       0.126664              0.0220814539             0.00156575698           
       0.127343               0.024198994             0.00165811354           
       0.128022              0.0193578481             0.00147163555           
       0.128701              0.0211262667             0.00152937812           
       0.129380              0.0201577452              0.0014751996           
       0.130059              0.0198156886             0.00146602646           
       0.130739              0.0179162508             0.00140379658           
       0.131418              0.0190053547              0.0014417866           
       0.132097              0.0158645987             0.00130038447           
       0.132776              0.0170760756             0.00134303126           
       0.133455              0.0222885119             0.00154629975           
       0.134134              0.0210796139              0.0014989917           
       0.134814              0.0178204369               0.001364046           
       0.135493              0.0189281859              0.0014114918           
       0.136172              0.0184235911             0.00138203818           
       0.136851              0.0209491388             0.00148229444           
       0.137530              0.0198492616             0.00140857802           
       0.138209              0.0213509089             0.00147803956           
       0.138889              0.0209155601             0.00146934167           
       0.139568              0.0201751893             0.00144247773           
       0.140247              0.0177636351             0.00135175105           
       0.140926              0.0166313668             0.00127056251           
       0.141605              0.0218313175             0.00149268367           
       0.142284              0.0196063788              0.0013911362           
       0.142964              0.0166976333             0.00128871337           
       0.143643              0.0182114281              0.0013441629           
       0.144322              0.0225749228             0.00146524033           
       0.145001              0.0194938704             0.00138953312           
       0.145680              0.0193878507              0.0013529647           
       0.146359              0.0186810996             0.00133293382           
       0.147039              0.0174659121             0.00129946283           
       0.147718               0.018917687             0.00133007479           
       0.148397              0.0194472817              0.0013695196           
       0.149076              0.0188600712             0.00130684634           
       0.149755              0.0158399404             0.00121614165           
       0.150434              0.0178784457             0.00129255636           
       0.151114              0.0186868728             0.00131414756           
       0.151793              0.0186132913             0.00131156986           
       0.152472              0.0155529082             0.00117772977           
       0.153151              0.0164894916             0.00122439631           
       0.153830              0.0165079559             0.00121615593           
       0.154509              0.0191290481             0.00130368747           
       0.155188              0.0191904188             0.00130529444           
       0.155868              0.0172905163             0.00123018014           
       0.156547              0.0192429146             0.00130611357           
       0.157226              0.0189110752             0.00126317785           
       0.157905              0.0174996094             0.00122533044           
       0.158584              0.0168543916              0.0012003444           
       0.159263              0.0180204189             0.00124573828           
       0.159943              0.0151066162             0.00114143648           
       0.160622              0.0180201625             0.00122259977           
       0.161301               0.017051202             0.00120518233           
       0.161980              0.0187580069             0.00124257276           
       0.162659              0.0195078025             0.00128120854           
       0.163338              0.0144969498             0.00109546802           
       0.164018              0.0177816251             0.00120687332           
       0.164697              0.0175851945             0.00121559957           
       0.165376              0.0158299613              0.0011281397           
       0.166055              0.0193737792             0.00125627556           
       0.166734               0.015983858              0.0011359749           
       0.167413              0.0168006904             0.00116545486           
       0.168093              0.0165627948             0.00116812018           
       0.168772              0.0170551508             0.00115068956           
       0.169451              0.0176232926             0.00119121895           
       0.170130              0.0178435746             0.00118290463           
       0.170809              0.0163716348             0.00114658697           
       0.171488              0.0153812776             0.00110123488           
       0.172168               0.015913894             0.00110937829           
       0.172847              0.0169884446              0.0011612774           
       0.173526              0.0183817898             0.00118491767           
       0.174205              0.0167899057             0.00113766388           
       0.174884              0.0167795458             0.00113138604           
       0.175563              0.0171305751             0.00114803998           
       0.176243              0.0175683176             0.00117425066           
       0.176922              0.0164430236             0.00110641688           
       0.177601              0.0177124689             0.00116095201           
       0.178280              0.0174655064             0.00113996144           
       0.178959              0.0176096586             0.00115386296           
       0.179638              0.0165172999              0.0011142839           
       0.180317               0.016492715             0.00110534285           
       0.180997              0.0157284018             0.00108528577           
       0.181676              0.0177137588             0.00113944915           
       0.182355              0.0177774286             0.00114835083           
       0.183034              0.0151792429             0.00104409148           
       0.183713              0.0175556096             0.00113652383           
       0.184392              0.0165734428             0.00110394023           
       0.185072               0.018573679             0.00115534118           
       0.185751              0.0165832339             0.00109471839           
       0.186430              0.0161098449             0.00107142297           
       0.187109              0.0171518787             0.00111784354           
       0.187788              0.0159104307             0.00107397487           
       0.188467              0.0157455862             0.00105575324           
       0.189147              0.0180360284             0.00114137777           
       0.189826              0.0166222493             0.00107635415           
       0.190505              0.0172338564              0.0011140185           
       0.191184              0.0164068411             0.00107129465           
       0.191863              0.0149278299             0.00102402072           
       0.192542              0.0149865172              0.0010357074           
       0.193222              0.0152822903             0.00102243949           
       0.193901              0.0163811514             0.00107274881           
       0.194580              0.0130965932            0.000942412143           
       0.195259              0.0160468413             0.00105515401           
       0.195938              0.0158392584              0.0010508096           
       0.196617              0.0161544986             0.00104640183           
       0.197297              0.0141748647            0.000984194383           
       0.197976              0.0146695305            0.000985840888           
       0.198655              0.0174412651              0.0010866901           
       0.199334              0.0162340792             0.00103916294           
       0.200013              0.0178201858             0.00108814072           
       0.200692              0.0156325686             0.00102529436           
       0.201371              0.0140708276            0.000961776956           
       0.202051              0.0169491171             0.00105885511           
       0.202730              0.0167127241             0.00104094343           
       0.203409              0.0167586748             0.00104937073           
       0.204088              0.0164499685             0.00103851079           
       0.204767              0.0153042927            0.000996429313           
       0.205446              0.0141498962             0.00095998471           
       0.206126              0.0165380469             0.00102373833           
       0.206805              0.0147249656            0.000983702089           
       0.207484              0.0155268931            0.000991973665           
       0.208163              0.0164342843             0.00102668014           
       0.208842               0.017682322             0.00106206465           
       0.209521              0.0152435695            0.000977913178           
       0.210201              0.0139282031            0.000945200738           
       0.210880              0.0148466259            0.000956716988           
       0.211559              0.0147175156            0.000966631449           
       0.212238                0.01646741              0.0010172806           
       0.212917              0.0148289774            0.000961760911           
       0.213596              0.0157050376            0.000995614876           
       0.214276              0.0149353912            0.000950685182           
       0.214955              0.0146180404            0.000960309459           
       0.215634              0.0146084127            0.000953112958           
       0.216313              0.0157235748            0.000986746495           
       0.216992              0.0152312057            0.000970930876           
       0.217671              0.0162363474             0.00099566585           
       0.218351               0.017041226             0.00103002245           
       0.219030              0.0151690396             0.00095645692           
       0.219709              0.0185978352              0.0010656588           
       0.220388              0.0141810098            0.000929356355           
       0.221067              0.0155418713            0.000973698556           
       0.221746              0.0170901656             0.00102000175           
       0.222426              0.0149726068            0.000940452832           
       0.223105              0.0146703251            0.000943593295           
       0.223784              0.0162731146            0.000983945327           
       0.224463              0.0129233884            0.000883829914           
       0.225142              0.0130371004            0.000873663995           
       0.225821              0.0136809745            0.000898583193           
       0.226500              0.0155885602            0.000965284722           
       0.227180              0.0158561376            0.000958535497           
       0.227859              0.0139457119            0.000902970991           
       0.228538              0.0149174736            0.000924523793           
       0.229217              0.0143595218             0.00091424916           
       0.229896               0.016306917            0.000973803612           
       0.230575              0.0148896377            0.000915690685           
       0.231255              0.0133177436            0.000878973958           
       0.231934              0.0166129039            0.000975003542           
       0.232613              0.0150647232            0.000931887183           
       0.233292              0.0160294658            0.000951975551           
       0.233971              0.0141453755            0.000893862644           
       0.234650              0.0157353315            0.000953849891           
       0.235330              0.0133096381            0.000869593235           
       0.236009              0.0155149501            0.000936852202           
       0.236688              0.0158164359            0.000942525695           
       0.237367               0.014829964            0.000913985388           
       0.238046              0.0147402514            0.000917633883           
       0.238725              0.0142302245            0.000887708607           
       0.239405              0.0158604506            0.000942989916           
       0.240084              0.0161750372            0.000946232089           
       0.240763              0.0157551143             0.00094281074           
       0.241442              0.0140398789            0.000877470435           
       0.242121              0.0138308754            0.000872558689           
       0.242800              0.0136712915            0.000871617162           
       0.243480               0.015188658            0.000914413093           
       0.244159              0.0143919252            0.000890537619           
       0.244838              0.0145424756            0.000880453422           
       0.245517              0.0140394803            0.000877536864           
       0.246196              0.0139357908            0.000874711877           
       0.246875              0.0141929961            0.000870441696           
       0.247554              0.0142711117             0.00088170459           
       0.248234              0.0136243863            0.000848431873           
       0.248913              0.0158188865            0.000924465836           
       0.249592              0.0147194442            0.000883287424           
       0.250271              0.0132086881            0.000834301999           
       0.250950               0.014507319            0.000879708713           
       0.251629              0.0144624479            0.000870881771           
       0.252309              0.0132095783            0.000833994737           
       0.252988              0.0156780603            0.000892933061           
       0.253667              0.0139272284            0.000851431874           
       0.254346              0.0136112425            0.000841544448           
       0.255025              0.0136989911            0.000842403338           
       0.255704              0.0137870186            0.000841234922           
       0.256384              0.0137234081            0.000836388475           
       0.257063              0.0137598819            0.000842274166           
       0.257742              0.0142702844            0.000851810167           
       0.258421               0.013917791            0.000839604773           
       0.259100              0.0116198907            0.000768506329           
       0.259779              0.0127691102            0.000804930597           
       0.260459              0.0142294069            0.000851380195           
       0.261138              0.0135265754            0.000813866016           
       0.261817               0.012774658            0.000806887373           
       0.262496              0.0118147384            0.000768369522           
       0.263175              0.0146702581            0.000858042425           
       0.263854              0.0123022458            0.000782095315           
       0.264534              0.0125211664            0.000782284515           
       0.265213              0.0134266879            0.000822843785           
       0.265892              0.0124027794            0.000780714829           
       0.266571               0.013337337            0.000807753287           
       0.267250              0.0118075718            0.000761299341           
       0.267929              0.0115218187            0.000751259763           
       0.268609              0.0122975359             0.00078038707           
       0.269288              0.0135091994            0.000804341781           
       0.269967              0.0108879377            0.000729882274           
       0.270646              0.0118487618             0.00075811493           
       0.271325              0.0130639475            0.000797371155           
       0.272004              0.0119818325            0.000756021254           
       0.272683              0.0132082187            0.000794750474           
       0.273363              0.0122245086            0.000769458953           
       0.274042              0.0117250144            0.000749128876           
       0.274721              0.0123436325            0.000768181382           
       0.275400                0.01244747            0.000766298177           
       0.276079              0.0112573766            0.000732883413           
       0.276758              0.0112084136            0.000740516432           
       0.277438              0.0116187621            0.000745486796           
       0.278117              0.0120595025            0.000773305049           
       0.278796              0.0107458192            0.000722562066           
       0.279475               0.013357426            0.000818903031           
       0.280154              0.0109670694            0.000731347881           
       0.280833              0.0117023335            0.000760060247           
       0.281513              0.0124209254            0.000795333664           
       0.282192              0.0120512992             0.00077004514           
       0.282871              0.0113722696            0.000753263682           
       0.283550              0.0107871861            0.000737562272           
       0.284229             0.00987832597            0.000716173992           
       0.284908              0.0111628151            0.000769343978           
       0.285588              0.0105779578             0.00074014869           
       0.286267              0.0106104941            0.000753155403           
       0.286946              0.0108527706            0.000756752098           
       0.287625              0.0112830783            0.000784746671           
       0.288304              0.0106616752            0.000752620956           
       0.288983              0.0111499173            0.000779407576           
       0.289663             0.00981437255            0.000735520056           
       0.290342              0.0102345877            0.000747102925           
       0.291021              0.0112277755             0.00078672979           
       0.291700              0.0108930967            0.000764792449           
       0.292379              0.0102936403            0.000760473186           
       0.293058              0.0102803328             0.00075711077           
       0.293738              0.0112296776            0.000784652079           
       0.294417              0.0110109313            0.000786003166           
       0.295096             0.00971053459            0.000730017163           
       0.295775              0.0107526104            0.000779921412           
       0.296454              0.0111338246            0.000783361246           
       0.297133              0.0115392919            0.000801270723           
       0.297812              0.0107943183             0.00077886119           
       0.298492             0.00994786736             0.00074914474           
       0.299171               0.011033811            0.000787482824           
       0.299850              0.0105426905            0.000764501348           
       0.300529             0.00981537334            0.000745968844           
       0.301208             0.00970617038            0.000743612616           
       0.301887              0.0104517456             0.00077072744           
       0.302567              0.0093871674            0.000726763523           
       0.303246              0.0096499622            0.000741677076           
       0.303925             0.00837269009            0.000699721631           
       0.304604             0.00894545272            0.000707641941           
       0.305283              0.0100535834            0.000761318963           
       0.305962             0.00962454297            0.000740397029           
       0.306642             0.00897704579            0.000724769629           
       0.307321             0.00935901527            0.000737665271           
       0.308000             0.00926619759            0.000725298011           
       0.308679             0.00920302274            0.000738474454           
       0.309358             0.00785852519            0.000673171793           
       0.310037             0.00900227498            0.000722101222           
       0.310717             0.00873941506            0.000710796177           
       0.311396             0.00833939187            0.000698994931           
       0.312075             0.00869287925            0.000722705549           
       0.312754               0.007456328            0.000655942375           
       0.313433              0.0080791669            0.000688727204           
       0.314112             0.00893714524            0.000724208561           
       0.314792             0.00592104536            0.000593635042           
       0.315471             0.00901981164            0.000723627119           
       0.316150              0.0107977002            0.000799065902           
       0.316829             0.00769469321            0.000679002049           
       0.317508              0.0093419832            0.000739765566           
       0.318187             0.00797034447            0.000692316547           
       0.318866             0.00909983894            0.000729781478           
       0.319546             0.00956811898            0.000759540453           
       0.320225             0.00817876353            0.000702247079           
       0.320904             0.00837811013            0.000699764005           
       0.321583             0.00767549686            0.000684537832           
       0.322262             0.00843011167            0.000706526305           
       0.322941             0.00709420844            0.000656435913           
       0.323621             0.00764587796            0.000677322535           
       0.324300             0.00729921865            0.000662308437           
       0.324979             0.00619615773            0.000611318836           
       0.325658             0.00687513436            0.000645110794           
       0.326337             0.00889976474            0.000734935926           
       0.327016             0.00848726444            0.000713145451           
       0.327696             0.00746214983            0.000676129196           
       0.328375             0.00821895467            0.000703599809           
       0.329054             0.00807337649            0.000701122891           
       0.329733             0.00973461224            0.000772696618           
       0.330412             0.00817062733            0.000702108631           
       0.331091              0.0082965761            0.000720333032           
       0.331771             0.00614060729            0.000603473009           
       0.332450              0.0076743522            0.000687739804           
       0.333129             0.00691463564             0.00065112722           
       0.333808             0.00846417982            0.000721352052           
       0.334487             0.00731012822            0.000673552714           
       0.335166             0.00779908492            0.000685532299           
       0.335846             0.00760298661            0.000688753579           
       0.336525             0.00670409383            0.000640372506           
       0.337204             0.00742177062            0.000675543737           
       0.337883             0.00713578696            0.000663278532           
       0.338562             0.00652735084            0.000637891568           
       0.339241             0.00805864477            0.000710104765           
       0.339921             0.00719129794            0.000659553798           
       0.340600             0.00821508806             0.00071832804           
       0.341279             0.00729968328            0.000669873929           
       0.341958             0.00593355473            0.000612467248           
       0.342637             0.00790651519            0.000697009745           
       0.343316             0.00596717024            0.000607275944           
       0.343995             0.00624998639            0.000631676926           
       0.344675             0.00680587023            0.000647055768           
       0.345354              0.0047274387            0.000542835366           
       0.346033             0.00662016647            0.000640701955           
       0.346712             0.00665072144            0.000646276433           
       0.347391             0.00622824095            0.000629285048           
       0.348070             0.00616902905            0.000617392408           
       0.348750             0.00680410909            0.000657762238           
       0.349429             0.00612428297            0.000615981633           
       0.350108             0.00614856559            0.000624628669           
       0.350787             0.00681666409            0.000646516179           
       0.351466             0.00559583997            0.000596559168           
       0.352145             0.00579338209            0.000607501294           
       0.352825             0.00762731969            0.000693897745           
       0.353504             0.00642429117            0.000636671765           
       0.354183             0.00689073503            0.000651783193           
       0.354862             0.00574431554            0.000608927944           
       0.355541             0.00709754016             0.00066799835           
       0.356220             0.00478518934            0.000549528964           
       0.356900             0.00674483702            0.000658616187           
       0.357579             0.00708437319            0.000666713413           
       0.358258             0.00664458827            0.000654623059           
       0.358937             0.00558586464            0.000588924795           
       0.359616             0.00523475993            0.000578076992           
       0.360295             0.00561597195            0.000599254648           
       0.360975             0.00663745909            0.000648691965           
       0.361654             0.00589004499             0.00061422876           
       0.362333             0.00550842899            0.000590977301           
       0.363012             0.00474118373            0.000555331671           
       0.363691             0.00548489319            0.000585516653           
       0.364370             0.00621322578            0.000630911216           
       0.365050             0.00416385517            0.000513721006           
       0.365729             0.00522913954            0.000581187174           
       0.366408              0.0049869832            0.000568827272           
       0.367087             0.00433031857            0.000521554101           
       0.367766             0.00464834856            0.000551625976           
       0.368445             0.00460306818            0.000539186593           
       0.369124             0.00525090027            0.000580404305           
       0.369804             0.00428901228             0.00052371729           
       0.370483             0.00677028807            0.000660872847           
       0.371162             0.00489946615            0.000565456696           
       0.371841             0.00433896058            0.000522852122           
       0.372520             0.00512210687            0.000579468069           
       0.373199             0.00524044273            0.000579120932           
       0.373879             0.00426418956            0.000528448704           
       0.374558             0.00502461586            0.000565264813           
       0.375237             0.00490420791            0.000559366303           
       0.375916             0.00472396068            0.000559507929           
       0.376595             0.00465024581            0.000544275689           
       0.377274             0.00422148383            0.000526878199           
       0.377954             0.00331233129            0.000459375738           
       0.378633             0.00444711719            0.000539006944           
       0.379312             0.00463512403            0.000550143646           
       0.379991             0.00516723274            0.000577857523           
       0.380670               0.005766268            0.000621223913           
       0.381349             0.00533454347            0.000588936454           
       0.382029             0.00376169963            0.000501637957           
       0.382708             0.00461136407            0.000543280489           
       0.383387             0.00444244014            0.000545321269           
       0.384066             0.00446737287            0.000541831837           
       0.384745             0.00464539951             0.00055469449           
       0.385424             0.00400802857             0.00051698777           
       0.386104             0.00443878989            0.000538048038           
       0.386783             0.00458061424            0.000558398449           
       0.387462             0.00452630267            0.000541269536           
       0.388141             0.00462912409            0.000556125496           
       0.388820             0.00409273705            0.000519134073           
       0.389499             0.00367982447            0.000495021631           
       0.390178              0.0042430883            0.000533676009           
       0.390858             0.00476708983            0.000561092989           
       0.391537             0.00494112277            0.000577076272           
       0.392216             0.00434611454            0.000534432732           
       0.392895             0.00364279024            0.000490930684           
       0.393574             0.00488445396             0.00056706554           
       0.394253             0.00472482012            0.000560231182           
       0.394933             0.00368663995            0.000500523698           
       0.395612             0.00365255915            0.000483733231           
       0.396291             0.00428316549            0.000534493697           
       0.396970             0.00406272033            0.000515945303           
       0.397649             0.00323987758            0.000462162363           
       0.398328              0.0051107429            0.000577908564           
       0.399008             0.00391148477            0.000504478967           
       0.399687             0.00413003209            0.000520396822           
       0.400366             0.00501341006            0.000571163261           
       0.401045             0.00408666186            0.000514702291           
       0.401724             0.00417448194            0.000521071548           
       0.402403             0.00409808864            0.000520305648           
       0.403083             0.00366553209            0.000484985131           
       0.403762             0.00402140356             0.00051048743           
       0.404441             0.00460603971            0.000549815938           
       0.405120             0.00425003437            0.000526408878           
       0.405799              0.0038044163            0.000495884098           
       0.406478             0.00374849527            0.000492238475           
       0.407158             0.00442952857             0.00053408452           
       0.407837             0.00380532414              0.0004993942           
       0.408516             0.00448591678            0.000537500201           
       0.409195              0.0040724206            0.000517938527           
       0.409874             0.00392846607            0.000515779642           
       0.410553             0.00326201741             0.00047505266           
       0.411233             0.00303001138            0.000455475027           
       0.411912             0.00339667229            0.000489079719           
       0.412591             0.00381371287            0.000521664929           
       0.413270             0.00340800146            0.000490794142           
       0.413949             0.00314258522            0.000476442707           
       0.414628             0.00284100586            0.000452191884           
       0.415307             0.00342790477            0.000502233048           
       0.415987             0.00379028588            0.000523761102           
       0.416666              0.0033938675            0.000492633393           
       0.417345              0.0029896457            0.000470087574           
       0.418024             0.00285207327            0.000459156051           
       0.418703             0.00387235101            0.000534033805           
       0.419382             0.00165109854            0.000347003973           
       0.420062             0.00224989738            0.000406204193           
       0.420741             0.00331096652            0.000495386215           
       0.421420              0.0031782866            0.000487199683           
       0.422099             0.00229110222             0.00041366044           
       0.422778             0.00292699832            0.000470087267           
       0.423457             0.00341709104              0.0005110291           
       0.424137             0.00345000965            0.000505116613           
       0.424816             0.00321324236            0.000497663893           
       0.425495             0.00259129289             0.00044648986           
       0.426174             0.00275891085            0.000460865526           
       0.426853             0.00241783676            0.000428817813           
       0.427532             0.00230749937            0.000422460903           
       0.428212             0.00273010042            0.000462554045           
       0.428891             0.00257081308            0.000447836509           
       0.429570             0.00264814264              0.0004548328           
       0.430249             0.00292542719            0.000475570629           
       0.430928             0.00306519326             0.00049744359           
       0.431607             0.00248840631            0.000440502616           
       0.432287             0.00166157127             0.00036259057           
       0.432966             0.00218068643            0.000419041456           
       0.433645             0.00217814122            0.000419234184           
       0.434324             0.00222837664            0.000421485029           
       0.435003             0.00191913589            0.000391815708           
       0.435682             0.00203606779            0.000406885752           
       0.436361             0.00153944655            0.000353327177           
       0.437041             0.00169454463            0.000370204143           
       0.437720             0.00171461408            0.000374186142           
       0.438399             0.00224035534            0.000429955335           
       0.439078             0.00256849441             0.00047371678           
       0.439757             0.00225838334            0.000441463252           
       0.440436             0.00301711161            0.000521759386           
       0.441116             0.00284080248             0.00051456381           
       0.441795               0.002381535            0.000471704614           
       0.442474             0.00296117715            0.000527452253           
       0.443153             0.00303583434            0.000546519339           
       0.443832             0.00194292751            0.000437951704           
       0.444511             0.00250962565            0.000495497103           
       0.445191             0.00224039431            0.000479552201           
       0.445870             0.00286134116            0.000541963875           
       0.446549             0.00219440737            0.000479622822           
       0.447228             0.00247610239             0.00050659923           
       0.447907             0.00168843549            0.000423353051           
       0.448586             0.00179470454            0.000446974547           
       0.449266             0.00272606113            0.000545809237           
       0.449945             0.00314514205            0.000583872717           
       0.450624             0.00155739778            0.000417388421           
       0.451303             0.00129118752            0.000384971659           
       0.451982             0.00227652664            0.000508015973           
       0.452661             0.00320367222            0.000613877244           
       0.453341             0.00286394238            0.000582450378           
       0.454020             0.00193629981            0.000479649959           
       0.454699             0.00294833707            0.000597276172           
       0.455378             0.00185877199            0.000474496138           
       0.456057               0.001689803            0.000460461688           
       0.456736             0.00180810387            0.000474821921           
       0.457416             0.00179990929            0.000473758171           
       0.458095             0.00222307809              0.0005341323           
       0.458774             0.00151836973            0.000447262182           
       0.459453             0.00180385148            0.000489957773           
       0.460132             0.00195914595            0.000499585527           
       0.460811            0.000767987833            0.000324460637           
       0.461490             0.00142159123            0.000436950885           
       0.462170             0.00245556675            0.000583238425           
       0.462849             0.00164213789            0.000480045902           
       0.463528            0.000650038229            0.000301327751           
       0.464207             0.00111712482            0.000402412604           
       0.464886             0.00209006692            0.000546142391           
       0.465565             0.00273624291             0.00063175383           
       0.466245             0.00171813401            0.000502162934           
       0.466924             0.00136321194            0.000457864925           
       0.467603             0.00233516926            0.000586548623           
       0.468282              0.0018323575            0.000531897818           
       0.468961             0.00199297727            0.000558364696           
       0.469640            0.000942435719            0.000385497657           
       0.470320             0.00109880948            0.000416540412           
       0.470999             0.00128694944            0.000455044349           
       0.471678             0.00131862305            0.000465037362           
       0.472357             0.00133008597            0.000468358177           
       0.473036             0.00183346348             0.00055335913           
       0.473715            0.000697953087               0.000344087           
       0.474395            0.000544929254            0.000308238881           
       0.475074            0.000890631797              0.0003940752           
       0.475753            0.000700733708            0.000346531594           
       0.476432            0.000964976039            0.000421458191           
       0.477111             0.00111891998            0.000448344531           
       0.477790            0.000229893217             0.00020431003           
       0.478470            0.000799832128            0.000386128306           
       0.479149            0.000809243539            0.000392410649           
       0.479828            0.000810348636            0.000391754098           
       0.480507             0.00120339409            0.000481247942           
       0.481186             0.00108144626            0.000466496855           
       0.481865             0.00084458574            0.000407151988           
       0.482545            8.26542798e-05            0.000128866188           
       0.483224            0.000282727215            0.000239964816           
       0.483903            0.000719032536            0.000388709896           
       0.484582           -0.000101284805                         0           
       0.485261           -0.000318866588                         0           
       0.485940           -9.68298584e-05                         0           
       0.486619            0.000112782924            0.000156893659           
       0.487299            0.000325896752             0.00027095212           
       0.487978           -0.000104340971                         0           
       0.488657           -8.34202573e-05                         0           
       0.489336           -8.78046722e-05                         0           
       0.490015             0.00035114124            0.000287028569           
       0.490694            0.000383223428             0.00030814758           
       0.491374           -0.000319039978                         0           
       0.492053           -0.000319059408                         0           
       0.492732            0.000183524957            0.000215057252           
       0.493411           -0.000319098247                         0           
       0.494090           -6.41350295e-05                         0           
       0.494769           -0.000319137213                         0           
       0.495449            0.000205851388            0.000232754346           
       0.496128           -0.000319176403                         0           
       0.496807           -0.000319195813                         0           
       0.497486           -0.000319215401                         0           
       0.498165           -3.60776402e-05                         0           
       0.498844            0.000246070112            0.000264304113           
       0.499524           -0.000319274506                         0           
       0.500203           -0.000319294481                         0           
       0.500882           -2.31981565e-05                         0           
       0.501561           -0.000319333707                         0           
       0.502240           -2.53598152e-05                         0           
       0.502919            -9.1406436e-06                         0           
       0.503599           -2.17451759e-05                         0           
       0.504278            2.49336031e-07            8.88116722e-06           
       0.504957           -0.000319433443                         0           
       0.505636            7.50052481e-06            4.93710502e-05           
       0.506315           -0.000319473393                         0           
       0.506994           -0.000319493171                         0           
       0.507673           -0.000319512909                         0           
       0.508353            0.000665154414            0.000469474847           
       0.509032            4.43360004e-05            0.000126969274           
       0.509711           -0.000319573206                         0           
       0.510390            0.000396687778            0.000378095226           
       0.511069           -0.000319613921                         0           
       0.511748           -0.000319634163                         0           
       0.512428            6.63447637e-05            0.000159010476           
       0.513107            0.000820451666            0.000558305742           
       0.513786            7.85229592e-05            0.000177584372           
       0.514465            4.32130611e-05            0.000127532952           
       0.515144           -0.000319735702                         0           
       0.515823           -0.000319755981                         0           
       0.516503           -0.000319776449                         0           
       0.517182           -0.000319796916                         0           
       0.517861           -0.000319817333                         0           
       0.518540           -0.000319837865                         0           
       0.519219           -0.000319858279                         0           
       0.519898           -0.000319878899                         0           
       0.520578           -0.000319899643                         0           
       0.521257           -0.000319920119                         0           
       0.521936           -0.000319940643                         0           
       0.522615           -0.000319961414                         0           
       0.523294           -0.000319982262                         0           
       0.523973           -0.000320002822                         0           
       0.524653           -0.000320023233                         0           
       0.525332           -0.000320043942                         0           
       0.526011           -0.000320065023                         0           
       0.526690            0.000658023968            0.000567306798           
       0.527369           -0.000320106932                         0           
       0.528048           -0.000320127948                         0           
       0.528728           -0.000320148938                         0           
       0.529407            0.000218891094            0.000344552101           
       0.530086           -0.000320190618                         0           
       0.530765           -0.000320211434                         0           
       0.531444           -0.000320232474                         0           
       0.532123           -0.000320253886                         0           
       0.532802            0.000219804238            0.000345326804           
       0.533482            0.000264379017            0.000392285834           
       0.534161           -0.000320317488                         0           
       0.534840           -0.000320338506                         0           
       0.535519           -0.000320359913                         0           
       0.536198           -0.000320381098                         0           
       0.536877           -0.000320401991                         0           
       0.537557           -0.000320423243                         0           
       0.538236           -0.000320444688                         0           
       0.538915           -0.000320466124                         0           
       0.539594           -0.000320487531                         0           
       0.540273           -0.000320509273                         0           
       0.540952           -0.000320530773                         0           
       0.541632            -0.00032055188                         0           
       0.542311             0.00031443486            0.000448019382           
       0.542990           -0.000320594719                         0           
       0.543669           -0.000320616438                         0           
       0.544348            0.000422555957            0.000559550105           
       0.545027            0.000348856893            0.000483688957           
       0.545707            -0.00032068149                         0           
       0.546386           -0.000320703262                         0           
       0.547065           -0.000320724774                         0           
       0.547744           -0.000320746383                         0           
       0.548423            -0.00032076823                         0           
       0.549102             -0.0003207901                         0           
       0.549782           -0.000320811859                         0           
       0.550461           -0.000320833877                         0           
       0.551140           -0.000320856027                         0           
       0.551819           -0.000320877916                         0           
       0.552498           -0.000320899991                         0           
       0.553177           -0.000320921688                         0           
       0.553856             0.00148507394             0.00115826858           
       0.554536           -0.000320965308                         0           
       0.555215           -0.000320987488                         0           
       0.555894           -0.000321009614                         0           
       0.556573           -0.000321031873                         0           
       0.557252           -0.000321054113                         0           
       0.557931           -0.000321076252                         0           
       0.558611           -0.000321098908                         0           
       0.559290           -0.000321120989                         0           
       0.559969           -0.000321142526                         0           
       0.560648           -0.000321164635                         0           
       0.561327           -0.000321187235                         0           
       0.562006            0.000631837186             0.00077346714           
       0.562686            -0.00032123224                         0           
       0.563365            0.000697840272            0.000839800557           
       0.564044            -0.00032127731                         0           
       0.564723           -0.000321299738                         0           
       0.565402           -0.000321321748                         0           
       0.566081           -0.000321343905                         0           
       0.566761             -0.0003213663                         0           
       0.567440            -0.00032138915                         0           
       0.568119           -0.000321411819                         0           
       0.568798           -0.000321434808                         0           
       0.569477           -0.000321457648                         0           
       0.570156             -0.0003214806                         0           
       0.570836           -0.000321503465                         0           
       0.571515             0.00118764362             0.00133675806           
       0.572194           -0.000321548877                         0           
       0.572873           -0.000321571381                         0           
       0.573552           -0.000321593752                         0           
       0.574231           -0.000321616577                         0           
       0.574911           -0.000321639977                         0           
       0.575590           -0.000321662927                         0           
       0.576269           -0.000321685807                         0           
       0.576948           -0.000321709127                         0           
       0.577627           -0.000321731735                         0           
       0.578306           -0.000321754662                         0           
       0.578985           -0.000321777785                         0           
       0.579665           -0.000321800775                         0           
       0.580344           -0.000321824113                         0           
       0.581023           -0.000321847425                         0           
       0.581702           -0.000321870522                         0           
       0.582381           -0.000321893409                         0           
       0.583060           -0.000321916979                         0           
       0.583740           -0.000321940179                         0           
       0.584419           -0.000321963455                         0           
       0.585098           -0.000321986704                         0           
       0.585777           -0.000322010134                         0           
       0.586456           -0.000322033946                         0           
       0.587135           -0.000322057124                         0           
       0.587815           -0.000322080052                         0           
       0.588494           -0.000322103694                         0           
       0.589173           -0.000322127879                         0           
       0.589852           -0.000322150779                         0           
       0.590531           -0.000322174543                         0           
       0.591210           -0.000322197758                         0           
       0.591890           -0.000322221422                         0           
       0.592569           -0.000322244294                         0           
       0.593248             -0.0003222693                         0           
       0.593927           -0.000322293074                         0           
       0.594606           -0.000322317338                         0           
       0.595285           -0.000322340156                         0           
       0.595965           -0.000322361449                         0           
       0.596644            -0.00032238336                         0           
