################################################################################
# EDF_DataBlockID                     0.Image.Psd
# EDF_BinarySize                      4366944
# EDF_HeaderSize                      2560
# ByteOrder                           LowByteFirst
# DataType                            FloatValue
# Dim_1                               1028
# Dim_2                               1062
# Image                               0
# HeaderID                            EH:000000:000000:000000
# Size                                4366944
# Center_1                            607.5200
# Center_2                            651.5500
# Comment                             Xenocs_Cell_Window - 20251028_20perc_iodine_1.23mg
# DDummy                              0.6
# Date                                2025-11-02T22:00:59
# Delta                               0
# Dummy                               -1.5
# ExposureTime                        360
# Gamma                               0
# Intensity1                          8.88542e-10
# PSize_1                             7.5e-05
# PSize_2                             7.5e-05
# Pressure                            0.0327663
# SampleDistance                      0.450002
# SampleEnvKind                       large
# SampleEnvPN                         ElectroChemical cell
# SampleEnvSN                         1141
# Thickness                           0
# Wavelength                          1.541891e-10
# Wavelength                          1.54189e-10
# aux                                 0
# aux_dial                            0.002375
# beamx                               588.434
# beamx_dial                          588.434
# beamz                               657.808
# beamz_dial                          657.808
# det0x                               0
# det0x_dial                          6.36945
# det0xvd                             0
# det0xvd_dial                        0
# det0y                               450.002
# det0y_dial                          481.635
# det0z                               0
# det0z_dial                          1.23302
# det0zvd                             0
# det0zvd_dial                        0
# mag                                 1.818
# mag_dial                            1.818
# om                                  0.2499
# om_dial                             -0.610199
# phi                                 -0.0120535
# phi_dial                            0
# ry                                  0.599993
# ry_dial                             0.599993
# s1bot                               0.8
# s1bot_dial                          -1.66094
# s1hl                                0.8
# s1hl_dial                           -0.608437
# s1hr                                0.8
# s1hr_dial                           0.970938
# s1top                               0.8
# s1top_dial                          -0.461562
# s2bot                               0.45
# s2bot_dial                          1.36109
# s2hl                                0.45
# s2hl_dial                           -0.83375
# s2hr                                0.45
# s2hr_dial                           -0.118594
# s2top                               0.45
# s2top_dial                          1.44734
# w2theta                             32
# w2theta_dial                        32
# waxsch                              19.2605
# waxsch_dial                         -32.7355
# waxsh                               137.085
# waxsh_dial                          -43.5338
# waxsth                              26.0607
# waxsth_dial                         -19.4086
# waxsz                               67.0407
# waxsz_dial                          -23.7954
# wind                                65.9854
# wind_dial                           66.0041
# wpsi                                124
# wpsi_dial                           124
# wstod                               115
# wstod_dial                          115
# x                                   0
# x_dial                              1.00969
# z                                   0
# z_dial                              13.3172
# CountCutoff                         15302352
# DetectorModel                       Dectris EIGER2 Si 1M, S/N E-02-0362
# ThresholdSetting                    4023.88989258
# Saturation                          0
# FlatField                           Corrected
# BackgroundReductionExtra            0.02
# BackgroundCorrectionConstant        0.0026712
# Detector                            0
# Monitor                             0
# Pil_Roi0                            0
# SumForIntensity1                    3.19875e+08
# TransmittedFlux                     888542
# det                                 0
# mon                                 0
# pilai0                              3.19875e+08
# pilai1                              798947
# pilct0                              5.51924e+08
# pilct1                              798947
# pilroi0                             0
# pilroi1                             0
# sec                                 1
# title                               20251028_20perc_iodine_1.23mg_0_01160.edf
# usaxs0                              0
# Operation                           Azimuthal average I(q)
# Error_model                         ErrorModel.poisson
# Geometrical_correction              True
# Transmission_correction             True
# Thickness_correction                False
# Binning mode                        Uniform
# Binning factor                      1.0
# Psi                                 0.0
# Omega                               0.2499
# MaskInvalidPixels                   True
# DetectorEdge                        3
# MaskFiles                           ['20251028_20perc_iodine_1.23mg_0_00012_mask.edf']
################################################################################
    q(A⁻¹)                Intensity(a.u.)            Sigma_I(a.u.)            
       0.000340                372770.283                118.255941           
       0.001019                359757.659                71.1414972           
       0.001698                350317.756                49.6402648           
       0.002377                331073.718                43.1628796           
       0.003056                307307.948                35.1456037           
       0.003735                253685.141                28.1617398           
       0.004415                204193.954                25.2658265           
       0.005094                151761.582                18.8635639           
       0.005773                99511.5515                14.1418533           
       0.006452                57668.2408                10.3149516           
       0.007131                32211.6077                7.46815739           
       0.007810                16335.1794                5.27781445           
       0.008490                8308.72037                3.33650497           
       0.009169                4049.56648                2.30207586           
       0.009848                1268.13276                1.24552743           
       0.010527                495.712011               0.778728228           
       0.011206                124.088611               0.371852467           
       0.011885                56.3350421               0.232788802           
       0.012564                25.2079214                0.15987224           
       0.013244                16.9085529               0.122410236           
       0.013923                12.0777324               0.105125211           
       0.014602                9.34241885               0.085748942           
       0.015281                7.24187343              0.0768516935           
       0.015960                6.00238163              0.0694649468           
       0.016639                4.85809973              0.0590135498           
       0.017319                4.04487328              0.0530107273           
       0.017998                3.40177854              0.0465088591           
       0.018677                2.91759319              0.0446108177           
       0.019356                2.45801731              0.0404593954           
       0.020035                2.08619232              0.0349701383           
       0.020714                 1.7846382              0.0326864312           
       0.021394                1.57142412              0.0290207728           
       0.022073                1.40038345              0.0285032979           
       0.022752                1.21134282              0.0253593832           
       0.023431                1.07226737              0.0231597566           
       0.024110               0.973951547              0.0230121836           
       0.024789               0.871889125              0.0202208769           
       0.025469               0.802868196              0.0199960195           
       0.026148               0.745023965              0.0180984541           
       0.026827                0.67986934              0.0175656388           
       0.027506               0.622364027              0.0170487086           
       0.028185               0.542496331              0.0151793776           
       0.028864               0.520701627              0.0147878942           
       0.029544               0.455831767              0.0134171392           
       0.030223               0.429323385              0.0132078843           
       0.030902               0.397640615              0.0128275164           
       0.031581               0.376519548              0.0118656901           
       0.032260               0.316777026              0.0110691349           
       0.032939               0.287970932              0.0101762171           
       0.033619               0.293398106              0.0104226212           
       0.034298               0.265501879             0.00964866625           
       0.034977               0.262252978             0.00940099705           
       0.035656               0.245750716             0.00934126391           
       0.036335               0.202906182             0.00823230602           
       0.037014               0.202620935              0.0082510561           
       0.037693               0.181205036             0.00750622606           
       0.038373               0.187655871              0.0077136285           
       0.039052                0.16599779             0.00728572313           
       0.039731               0.160567387             0.00699857085           
       0.040410               0.173138484             0.00721864946           
       0.041089                0.15926185             0.00681488086           
       0.041768               0.147378255             0.00658995073           
       0.042448               0.136357587             0.00628958589           
       0.043127               0.128647149             0.00596488777           
       0.043806               0.118398523             0.00576502933           
       0.044485               0.129810109             0.00591245515           
       0.045164               0.110839669             0.00557105575           
       0.045843               0.107683537             0.00526669388           
       0.046523               0.101131287             0.00512157201           
       0.047202               0.103409542             0.00521512896           
       0.047881               0.103973856              0.0051284952           
       0.048560              0.0927477285             0.00488787483           
       0.049239               0.101152519             0.00490128156           
       0.049918              0.0926413747             0.00478224558           
       0.050598              0.0931331636             0.00472298309           
       0.051277              0.0946862299             0.00474708858           
       0.051956              0.0824519963             0.00440198641           
       0.052635              0.0780797498             0.00419277426           
       0.053314              0.0707756206             0.00410855888           
       0.053993              0.0820859647             0.00430332612           
       0.054673              0.0838673582             0.00425287654           
       0.055352              0.0742704613             0.00406094502           
       0.056031              0.0714237011             0.00389868239           
       0.056710              0.0747605634             0.00408645781           
       0.057389              0.0726369976             0.00388424681           
       0.058068              0.0764696718             0.00402648814           
       0.058748              0.0636069347             0.00371807355           
       0.059427              0.0600431118             0.00355125114           
       0.060106              0.0661065084             0.00376151683           
       0.060785              0.0693644138             0.00373764332           
       0.061464              0.0691888637             0.00382288762           
       0.062143              0.0589471963             0.00349277648           
       0.062822              0.0582607315             0.00343163191           
       0.063502              0.0580333459             0.00341880968           
       0.064181              0.0518544557             0.00319756014           
       0.064860              0.0568642626             0.00339946263           
       0.065539              0.0537904308             0.00327397564           
       0.066218              0.0545328224              0.0032259074           
       0.066897              0.0490697033             0.00308368036           
       0.067577              0.0555883153             0.00331365156           
       0.068256              0.0519908803             0.00328335612           
       0.068935              0.0489409405              0.0031340857           
       0.069614               0.048534978             0.00315212964           
       0.070293              0.0469482726             0.00312876383           
       0.070972              0.0515960958             0.00325596596           
       0.071652              0.0408869772             0.00290375385           
       0.072331              0.0453781555             0.00300455917           
       0.073010              0.0439233777             0.00302354707           
       0.073689              0.0400014379             0.00286954857           
       0.074368               0.049634722             0.00319064155           
       0.075047              0.0419668462             0.00290231889           
       0.075727              0.0393009871             0.00279127731           
       0.076406               0.041022031             0.00290863821           
       0.077085              0.0367688805             0.00270226636           
       0.077764              0.0402339743             0.00281682564           
       0.078443              0.0385581304             0.00277461082           
       0.079122              0.0375634028             0.00271227842           
       0.079802              0.0406688557             0.00285209905           
       0.080481              0.0399760043             0.00273231653           
       0.081160              0.0402496621             0.00279791154           
       0.081839              0.0305170472             0.00239725911           
       0.082518              0.0400188596             0.00274752519           
       0.083197              0.0331196327             0.00246065713           
       0.083876              0.0370146634             0.00255810369           
       0.084556              0.0360892243              0.0025961712           
       0.085235              0.0352446964             0.00251604602           
       0.085914              0.0361218892             0.00257190783           
       0.086593              0.0329375578             0.00244012284           
       0.087272              0.0339084802             0.00244082974           
       0.087951              0.0345343207             0.00251889398           
       0.088631              0.0380207148             0.00255296281           
       0.089310              0.0298701102              0.0023108277           
       0.089989              0.0323268707             0.00237587616           
       0.090668              0.0339143171             0.00246037368           
       0.091347              0.0318272602             0.00239681176           
       0.092026              0.0296610338             0.00221162683           
       0.092706              0.0315313547             0.00236305767           
       0.093385              0.0295029518             0.00225068566           
       0.094064              0.0363920654             0.00252877878           
       0.094743              0.0303779127             0.00227518776           
       0.095422              0.0342630835             0.00238935918           
       0.096101              0.0302140351             0.00228995076           
       0.096781              0.0312453002             0.00229535993           
       0.097460              0.0318904683             0.00225567929           
       0.098139              0.0299299277             0.00216842858           
       0.098818              0.0323760886             0.00222752714           
       0.099497               0.028713502              0.0021020578           
       0.100176              0.0289409467             0.00205497949           
       0.100856              0.0275876415             0.00200507225           
       0.101535              0.0248796931             0.00190045173           
       0.102214               0.029694213             0.00207621791           
       0.102893              0.0247698013             0.00187465613           
       0.103572              0.0254178858             0.00187096829           
       0.104251              0.0270791953             0.00193827779           
       0.104931              0.0292722008             0.00199688881           
       0.105610              0.0283045569             0.00197198223           
       0.106289              0.0235213968             0.00176773922           
       0.106968              0.0246369877             0.00181454368           
       0.107647              0.0292046063             0.00197678702           
       0.108326              0.0268537998             0.00187019946           
       0.109005              0.0290039693             0.00193140202           
       0.109685              0.0289230858             0.00190707282           
       0.110364                0.02484269             0.00178751282           
       0.111043               0.026805357             0.00184941884           
       0.111722              0.0214653025             0.00163475248           
       0.112401               0.025313635             0.00178019175           
       0.113080              0.0228692761             0.00167266975           
       0.113760              0.0243023455             0.00175308135           
       0.114439              0.0251186833             0.00175684569           
       0.115118               0.022055439             0.00163382651           
       0.115797              0.0239356982             0.00171781329           
       0.116476              0.0225330652             0.00164177556           
       0.117155              0.0223796264             0.00164937257           
       0.117835              0.0247720571             0.00170079805           
       0.118514              0.0214339331             0.00160211858           
       0.119193              0.0247879808             0.00172292919           
       0.119872              0.0232410753             0.00164743875           
       0.120551              0.0233999225             0.00164204791           
       0.121230              0.0224195099             0.00159110592           
       0.121910              0.0234869903             0.00164428427           
       0.122589              0.0233701373             0.00164187898           
       0.123268              0.0242535131             0.00164021784           
       0.123947              0.0207653769             0.00152750911           
       0.124626              0.0245547382             0.00164073626           
       0.125305              0.0235950346             0.00161624589           
       0.125985              0.0225514353             0.00156783797           
       0.126664              0.0210393819             0.00149994011           
       0.127343               0.023273017             0.00159583821           
       0.128022              0.0237973275             0.00160133698           
       0.128701              0.0205542191             0.00148047436           
       0.129380               0.024053254             0.00158147975           
       0.130059              0.0218311396             0.00151015782           
       0.130739              0.0205187598             0.00147435843           
       0.131418              0.0231226735             0.00156073412           
       0.132097              0.0229895659             0.00153627697           
       0.132776              0.0220282276             0.00149702403           
       0.133455              0.0209484688             0.00147121518           
       0.134134              0.0199146811             0.00142988624           
       0.134814              0.0209649362             0.00145198965           
       0.135493              0.0192407759             0.00139663223           
       0.136172              0.0193232283             0.00138905565           
       0.136851              0.0226064251             0.00151117321           
       0.137530              0.0185403597              0.0013360254           
       0.138209              0.0201860184             0.00141042538           
       0.138889              0.0196647051             0.00139823018           
       0.139568              0.0186578333             0.00136137515           
       0.140247              0.0198945263             0.00140392692           
       0.140926               0.019103192             0.00133638608           
       0.141605              0.0205244677             0.00142040001           
       0.142284               0.021056528             0.00141485276           
       0.142964              0.0210471593             0.00141994828           
       0.143643              0.0183968785             0.00132586369           
       0.144322              0.0183492916             0.00129643959           
       0.145001              0.0198875232             0.00137739062           
       0.145680              0.0212227337             0.00138921416           
       0.146359              0.0196429883             0.00134139924           
       0.147039              0.0186703355             0.00131853358           
       0.147718              0.0194929552             0.00132503635           
       0.148397              0.0194687677             0.00134479144           
       0.149076              0.0175386141              0.0012367941           
       0.149755              0.0198000903             0.00133440568           
       0.150434              0.0210748841             0.00137725423           
       0.151114              0.0194484154             0.00131572412           
       0.151793              0.0181883608             0.00127239961           
       0.152472              0.0201279708             0.00131488192           
       0.153151              0.0200973385             0.00132658341           
       0.153830              0.0181534677             0.00125161085           
       0.154509              0.0191045553             0.00127862203           
       0.155188              0.0192828812             0.00128410084           
       0.155868              0.0162183149             0.00116926918           
       0.156547               0.020516189             0.00132355127           
       0.157226              0.0194217883             0.00125631314           
       0.157905              0.0176171024             0.00120657185           
       0.158584              0.0168081099             0.00117640179           
       0.159263              0.0176791769             0.00121093908           
       0.159943              0.0195317013             0.00127375263           
       0.160622               0.016628948             0.00115261496           
       0.161301              0.0168182531             0.00117466115           
       0.161980              0.0185626345             0.00121309608           
       0.162659              0.0186552772             0.00122959874           
       0.163338              0.0179489461             0.00119626603           
       0.164018              0.0191685469             0.00122975179           
       0.164697              0.0191057988             0.00124350191           
       0.165376              0.0174930993             0.00116386671           
       0.166055              0.0166990599             0.00114464458           
       0.166734              0.0164934822             0.00113248123           
       0.167413              0.0180380082             0.00118514937           
       0.168093              0.0164205964             0.00114146365           
       0.168772              0.0176464225             0.00114869739           
       0.169451              0.0178326177               0.001175987           
       0.170130              0.0164373924             0.00111422312           
       0.170809              0.0186108348             0.00119975015           
       0.171488              0.0184477396              0.0011835926           
       0.172168              0.0180816074             0.00116053129           
       0.172847              0.0184199449             0.00118672539           
       0.173526              0.0156501258             0.00107300094           
       0.174205              0.0178578864             0.00115146774           
       0.174884              0.0183950999             0.00116256889           
       0.175563              0.0175282731             0.00113969204           
       0.176243              0.0172908777             0.00114327617           
       0.176922              0.0155868441             0.00105719221           
       0.177601              0.0179346491             0.00114648418           
       0.178280              0.0145893207             0.00102250163           
       0.178959              0.0171670963             0.00111808313           
       0.179638              0.0157625464             0.00106828326           
       0.180317              0.0165930259              0.0010880795           
       0.180997              0.0180099925              0.0011397392           
       0.181676              0.0169649333             0.00109436594           
       0.182355              0.0165578257             0.00108764879           
       0.183034              0.0162342329             0.00105968379           
       0.183713              0.0162760722             0.00107397037           
       0.184392              0.0156219055             0.00105184829           
       0.185072                0.01793939              0.0011143254           
       0.185751              0.0187513368             0.00114243322           
       0.186430              0.0137558082            0.000971639664           
       0.187109              0.0186911092             0.00114522183           
       0.187788              0.0158127627             0.00105076098           
       0.188467              0.0176756015              0.0010977843           
       0.189147              0.0179989829             0.00111899937           
       0.189826              0.0159396011             0.00103441765           
       0.190505              0.0170296454             0.00108680312           
       0.191184              0.0170060654             0.00107039797           
       0.191863              0.0170868854             0.00107519879           
       0.192542              0.0179602471             0.00111272995           
       0.193222              0.0169474345             0.00105667707           
       0.193901              0.0153139268             0.00101792556           
       0.194580               0.017676658             0.00107450562           
       0.195259              0.0182467433             0.00110423285           
       0.195938              0.0156834747             0.00102618263           
       0.196617              0.0158221065             0.00101632079           
       0.197297               0.017207473             0.00106420888           
       0.197976              0.0158439449             0.00100548892           
       0.198655              0.0162489169             0.00102938026           
       0.199334              0.0196301019             0.00112144506           
       0.200013              0.0162614537             0.00102013005           
       0.200692              0.0167842361             0.00104263211           
       0.201371              0.0153394636            0.000985522493           
       0.202051              0.0149720853            0.000976677203           
       0.202730              0.0151762491            0.000973492563           
       0.203409              0.0165210613             0.00102252748           
       0.204088              0.0170571571             0.00103783595           
       0.204767              0.0167447238             0.00102288254           
       0.205446              0.0151151379            0.000973734712           
       0.206126              0.0159904046            0.000987923888           
       0.206805              0.0158303123             0.00100098622           
       0.207484              0.0141691508            0.000929986575           
       0.208163              0.0165681041              0.0010116798           
       0.208842              0.0146833648            0.000949819341           
       0.209521              0.0146839831            0.000941945566           
       0.210201              0.0170147715             0.00102526581           
       0.210880              0.0149479949            0.000942123811           
       0.211559               0.017165794             0.00102452491           
       0.212238              0.0151329429            0.000957054606           
       0.212917              0.0160220536            0.000981109582           
       0.213596              0.0162193912            0.000992969862           
       0.214276              0.0155389362            0.000951669108           
       0.214955              0.0157190405            0.000977296968           
       0.215634              0.0148310895            0.000942489006           
       0.216313              0.0162680532            0.000985019085           
       0.216992              0.0154907572            0.000960957987           
       0.217671              0.0159150795            0.000967432686           
       0.218351              0.0160030591            0.000979590767           
       0.219030              0.0159500856            0.000962531136           
       0.219709              0.0143880366            0.000919887366           
       0.220388              0.0123532558            0.000851268022           
       0.221067              0.0154354782            0.000952313242           
       0.221746              0.0184019455             0.00103873929           
       0.222426              0.0150463512            0.000925232359           
       0.223105              0.0148324936            0.000931148543           
       0.223784              0.0146501703            0.000916228653           
       0.224463              0.0153603017            0.000945643143           
       0.225142              0.0157236102            0.000941622816           
       0.225821              0.0157134512            0.000945110246           
       0.226500              0.0152974445            0.000938444904           
       0.227180              0.0151456349            0.000919390785           
       0.227859              0.0170209341             0.00097902111           
       0.228538              0.0142335681            0.000886286741           
       0.229217              0.0157746217             0.00094041807           
       0.229896              0.0149364061               0.000914651           
       0.230575              0.0160576869            0.000933243835           
       0.231255              0.0160415768            0.000946740854           
       0.231934              0.0152318151            0.000916233472           
       0.232613              0.0160203389            0.000943116877           
       0.233292              0.0141219552            0.000876921245           
       0.233971              0.0149186351            0.000900896709           
       0.234650              0.0150468641            0.000915402283           
       0.235330              0.0141888906            0.000881158747           
       0.236009              0.0130468805            0.000843133098           
       0.236688              0.0172135061            0.000964984774           
       0.237367              0.0154660719            0.000916022462           
       0.238046              0.0148792861            0.000904804914           
       0.238725              0.0153698722            0.000905412716           
       0.239405              0.0146722792            0.000890112677           
       0.240084              0.0139691447            0.000862992146           
       0.240763              0.0164814668            0.000946364802           
       0.241442              0.0155144715            0.000905245162           
       0.242121              0.0146326413            0.000880801576           
       0.242800              0.0154674845            0.000909866663           
       0.243480              0.0141056991            0.000864822436           
       0.244159              0.0154880595            0.000906647012           
       0.244838              0.0146665911            0.000867758171           
       0.245517              0.0154255523            0.000902728433           
       0.246196              0.0152747168            0.000898737173           
       0.246875              0.0139835544            0.000847926756           
       0.247554              0.0143156854            0.000866656859           
       0.248234              0.0145384516            0.000860130771           
       0.248913              0.0158128558            0.000907099595           
       0.249592              0.0140804755            0.000847836109           
       0.250271               0.014869508            0.000868737658           
       0.250950              0.0123782951            0.000797485208           
       0.251629              0.0130225587            0.000811023363           
       0.252309              0.0140471994            0.000844035308           
       0.252988              0.0145785387            0.000845038785           
       0.253667              0.0146193952            0.000856109202           
       0.254346              0.0130143145            0.000807580326           
       0.255025              0.0144458179            0.000848972773           
       0.255704              0.0132765034            0.000810160147           
       0.256384              0.0150319598            0.000859076344           
       0.257063              0.0142849376            0.000842232912           
       0.257742              0.0129867035            0.000797485645           
       0.258421              0.0142290925            0.000833153939           
       0.259100              0.0140670373            0.000829840551           
       0.259779              0.0131531109            0.000801750551           
       0.260459              0.0123943437            0.000779810032           
       0.261138               0.013546409            0.000799315039           
       0.261817              0.0139789335            0.000828365886           
       0.262496              0.0144629092            0.000834320303           
       0.263175              0.0129679558            0.000791721706           
       0.263854              0.0117402246            0.000749812359           
       0.264534               0.013202826             0.00078835658           
       0.265213              0.0136306726            0.000813651626           
       0.265892              0.0141287244            0.000817770241           
       0.266571              0.0123200856            0.000761899941           
       0.267250              0.0128329509            0.000778906504           
       0.267929              0.0137315073            0.000804888316           
       0.268609              0.0123296387            0.000766872381           
       0.269288              0.0131484926            0.000778772687           
       0.269967              0.0123149128            0.000761802828           
       0.270646              0.0128210459            0.000773939833           
       0.271325              0.0121575631            0.000754907049           
       0.272004              0.0113532469            0.000722236332           
       0.272683              0.0124904909            0.000758482091           
       0.273363              0.0126018517            0.000766714789           
       0.274042              0.0131830288            0.000779568626           
       0.274721              0.0122037144            0.000749609724           
       0.275400              0.0121316715            0.000742445324           
       0.276079              0.0136194066            0.000791119874           
       0.276758              0.0110412203            0.000721303551           
       0.277438              0.0125869335            0.000761494728           
       0.278117              0.0117522919            0.000749194089           
       0.278796              0.0111820854            0.000723375345           
       0.279475              0.0108946664             0.00072581337           
       0.280154               0.013065479            0.000783408513           
       0.280833              0.0109422947            0.000721294953           
       0.281513               0.013123043            0.000802299594           
       0.282192              0.0106612308            0.000710803946           
       0.282871              0.0129746324            0.000789619552           
       0.283550              0.0117213095            0.000754535331           
       0.284229              0.0123034318             0.00078439878           
       0.284908              0.0122365821            0.000790515998           
       0.285588               0.011690399            0.000763624112           
       0.286267              0.0115219176            0.000770240019           
       0.286946              0.0107543688            0.000739303382           
       0.287625              0.0102014965            0.000732309268           
       0.288304              0.0105736125            0.000735566911           
       0.288983              0.0110481594            0.000761413676           
       0.289663               0.010677054            0.000752897534           
       0.290342              0.0105519805            0.000744490494           
       0.291021              0.0111443599            0.000769224676           
       0.291700              0.0122896701            0.000797232382           
       0.292379             0.00877143623            0.000688940434           
       0.293058               0.010101256            0.000736529987           
       0.293738             0.00955754815            0.000710417482           
       0.294417             0.00979061027            0.000727384526           
       0.295096              0.0102770057              0.0007370411           
       0.295775             0.00986502227            0.000733144921           
       0.296454              0.0121606593            0.000803462039           
       0.297133               0.010396653            0.000746420188           
       0.297812              0.0115467789            0.000790569007           
       0.298492              0.0102230689            0.000745312306           
       0.299171              0.0110523544            0.000773486305           
       0.299850              0.0110613019            0.000768515369           
       0.300529             0.00917295893            0.000707732125           
       0.301208              0.0100590287            0.000742929708           
       0.301887             0.00953781251            0.000722566301           
       0.302567             0.00932024305            0.000710700083           
       0.303246              0.0100511736            0.000742860633           
       0.303925             0.00908155032            0.000715187138           
       0.304604             0.00938752442            0.000711434381           
       0.305283              0.0104538821            0.000761889363           
       0.305962              0.0103324144            0.000752874218           
       0.306642             0.00774507887            0.000660682944           
       0.307321               0.010781952            0.000777033717           
       0.308000             0.00941842632            0.000717631985           
       0.308679             0.00932474791            0.000729517452           
       0.309358             0.00901036327            0.000707413661           
       0.310037              0.0103801682             0.00076097615           
       0.310717             0.00925412645            0.000717824905           
       0.311396             0.00831774635            0.000685104119           
       0.312075             0.00992589317             0.00075789889           
       0.312754             0.00750468507            0.000645827195           
       0.313433             0.00913712104            0.000718812371           
       0.314112             0.00879088987            0.000704900101           
       0.314792             0.00942741319            0.000735128928           
       0.315471             0.00906924503            0.000712112444           
       0.316150             0.00985314543            0.000749119875           
       0.316829             0.00782129182            0.000671833387           
       0.317508             0.00898315612              0.0007119278           
       0.318187              0.0101583133            0.000767050353           
       0.318866              0.0096519516            0.000737616221           
       0.319546             0.00897212249            0.000721825349           
       0.320225             0.00787195322            0.000676136334           
       0.320904             0.00808469057            0.000674616835           
       0.321583             0.00726848392            0.000653751998           
       0.322262             0.00767122056            0.000661440546           
       0.322941             0.00921540763            0.000734250993           
       0.323621             0.00824044912             0.00069008755           
       0.324300             0.00745141946            0.000656732506           
       0.324979             0.00723821915            0.000648439281           
       0.325658             0.00767110856             0.00066875907           
       0.326337             0.00886827053            0.000719990204           
       0.327016             0.00638386586            0.000606992091           
       0.327696             0.00788552713            0.000682118737           
       0.328375             0.00843497547             0.00069952983           
       0.329054             0.00760324999            0.000667748753           
       0.329733             0.00932197504             0.00074207971           
       0.330412             0.00840187488            0.000698733591           
       0.331091             0.00716715717            0.000657058822           
       0.331771             0.00665744648            0.000616670164           
       0.332450             0.00817404327            0.000696576262           
       0.333129             0.00699591885            0.000642762438           
       0.333808             0.00814609142              0.0006945066           
       0.334487             0.00709175584              0.0006510778           
       0.335166              0.0083311298            0.000695352393           
       0.335846             0.00688663176            0.000643312653           
       0.336525             0.00734122729            0.000657648566           
       0.337204             0.00620457683            0.000606181528           
       0.337883             0.00810683741            0.000693821321           
       0.338562             0.00634630918            0.000617285255           
       0.339241             0.00871723756            0.000724815995           
       0.339921             0.00708413614            0.000642446461           
       0.340600             0.00707715712            0.000654324276           
       0.341279             0.00674966528            0.000632163027           
       0.341958             0.00589495603              0.0005991183           
       0.342637             0.00755539591             0.00066868536           
       0.343316             0.00730432417            0.000659384585           
       0.343995             0.00632817359             0.00062379455           
       0.344675             0.00768662256            0.000674861365           
       0.345354             0.00693839351             0.00064540385           
       0.346033             0.00584738071             0.00059094789           
       0.346712             0.00596803317            0.000600822878           
       0.347391             0.00544589262            0.000577492242           
       0.348070             0.00744232717            0.000665509352           
       0.348750             0.00550344739            0.000580560681           
       0.349429             0.00613192546            0.000604902638           
       0.350108             0.00592552372            0.000601790443           
       0.350787             0.00723623134            0.000653727236           
       0.351466             0.00550817632            0.000580860314           
       0.352145             0.00651920609            0.000632448815           
       0.352825             0.00801271179            0.000697985128           
       0.353504             0.00685317033            0.000645350501           
       0.354183             0.00604325898            0.000599035957           
       0.354862             0.00472873183            0.000542208111           
       0.355541             0.00513714541            0.000557736795           
       0.356220             0.00558766169            0.000582777778           
       0.356900             0.00581674282            0.000600251852           
       0.357579              0.0059104083            0.000597646149           
       0.358258             0.00633557303            0.000627331535           
       0.358937             0.00555513443            0.000576379903           
       0.359616             0.00589532611            0.000602057712           
       0.360295             0.00480731944            0.000544123326           
       0.360975             0.00598041311            0.000604296514           
       0.361654             0.00615577783            0.000616253242           
       0.362333              0.0052451305            0.000565955101           
       0.363012             0.00531620975            0.000577107888           
       0.363691              0.0057733794            0.000589545216           
       0.364370             0.00561558896            0.000588646062           
       0.365050             0.00609589739            0.000610021648           
       0.365729             0.00578899737            0.000600135737           
       0.366408             0.00532194937            0.000576691743           
       0.367087             0.00483150835            0.000540664326           
       0.367766             0.00466514783            0.000542344171           
       0.368445             0.00559032298            0.000583150615           
       0.369124             0.00407613356            0.000501862621           
       0.369804             0.00529745964            0.000571214209           
       0.370483             0.00520969342            0.000568941122           
       0.371162             0.00515046257            0.000568977372           
       0.371841             0.00587658672            0.000597166592           
       0.372520              0.0054302298            0.000585546249           
       0.373199             0.00517384368            0.000564727363           
       0.373879             0.00385700245            0.000493237911           
       0.374558             0.00556448246            0.000583794252           
       0.375237             0.00510152652            0.000559897908           
       0.375916             0.00440998073            0.000530540279           
       0.376595             0.00416943172            0.000505785437           
       0.377274             0.00425648859            0.000519218679           
       0.377954             0.00490630339            0.000548687767           
       0.378633             0.00497705597            0.000559613578           
       0.379312             0.00471426646            0.000544501889           
       0.379991             0.00367416979            0.000478209586           
       0.380670             0.00478199039            0.000555203263           
       0.381349             0.00513950392            0.000567318983           
       0.382029             0.00483627712            0.000558214135           
       0.382708             0.00431677662            0.000515865041           
       0.383387             0.00459668672            0.000544391085           
       0.384066             0.00518674496            0.000572971173           
       0.384745             0.00472438983            0.000548987033           
       0.385424             0.00553573628            0.000596278936           
       0.386104             0.00490757314            0.000555225054           
       0.386783              0.0043490392            0.000533981133           
       0.387462             0.00355698292            0.000470900971           
       0.388141             0.00393805747            0.000503397815           
       0.388820             0.00267393506             0.00041180816           
       0.389499             0.00467843459             0.00054778207           
       0.390178             0.00473487212            0.000553270709           
       0.390858             0.00445643267            0.000532413129           
       0.391537             0.00455937901            0.000544026619           
       0.392216             0.00431452174            0.000522583511           
       0.392895             0.00293696939            0.000432613146           
       0.393574             0.00375477233            0.000487937231           
       0.394253             0.00391547834            0.000500511382           
       0.394933             0.00381248021            0.000499528174           
       0.395612             0.00327600517            0.000449600194           
       0.396291             0.00398944566            0.000506248028           
       0.396970             0.00372912309            0.000485115852           
       0.397649              0.0037532705            0.000488182396           
       0.398328             0.00466186664            0.000541681425           
       0.399008             0.00419759757             0.00051288447           
       0.399687             0.00404728643            0.000505576408           
       0.400366             0.00458292615            0.000535934836           
       0.401045             0.00386816049            0.000491440448           
       0.401724             0.00458202289            0.000535761621           
       0.402403             0.00407484036            0.000509178518           
       0.403083             0.00382536312            0.000486231567           
       0.403762             0.00416891847            0.000510099421           
       0.404441             0.00411156432             0.00050980482           
       0.405120             0.00371320571            0.000482890204           
       0.405799             0.00484744836            0.000549338032           
       0.406478             0.00342349607            0.000461667068           
       0.407158             0.00383818871            0.000487911782           
       0.407837             0.00397172805            0.000500707763           
       0.408516              0.0032077172            0.000446064815           
       0.409195             0.00360234798            0.000478070166           
       0.409874             0.00435989127             0.00053325806           
       0.410553             0.00347697459            0.000481333714           
       0.411233             0.00323474586             0.00046185902           
       0.411912             0.00362020706            0.000495525994           
       0.412591             0.00352770459            0.000492391624           
       0.413270             0.00315861284            0.000463708001           
       0.413949             0.00343900404            0.000489136871           
       0.414628             0.00336604958            0.000483051973           
       0.415307             0.00329901441            0.000483537238           
       0.415987             0.00254326919            0.000421056455           
       0.416666             0.00360688855            0.000498413358           
       0.417345              0.0028218775             0.00044821346           
       0.418024             0.00289156002            0.000453725288           
       0.418703             0.00273995374            0.000440859205           
       0.419382             0.00355304181            0.000499568466           
       0.420062             0.00257238585            0.000426263366           
       0.420741             0.00332855216            0.000487462389           
       0.421420             0.00357423288            0.000507047678           
       0.422099              0.0032070892            0.000480312825           
       0.422778             0.00252174343            0.000428217692           
       0.423457             0.00292584334            0.000464076735           
       0.424137             0.00295845121            0.000459050653           
       0.424816             0.00347411411            0.000507847522           
       0.425495             0.00265883186            0.000443859677           
       0.426174              0.0033948379            0.000501720466           
       0.426853             0.00232891526            0.000413031408           
       0.427532             0.00326409809            0.000493110482           
       0.428212             0.00255551892            0.000439197267           
       0.428891             0.00269716009            0.000450178256           
       0.429570               0.002395177            0.000424518677           
       0.430249             0.00289174966            0.000464031681           
       0.430928             0.00265141855            0.000454047156           
       0.431607             0.00209365911            0.000396540671           
       0.432287             0.00266168058              0.0004503829           
       0.432966             0.00177866617            0.000371410783           
       0.433645             0.00218333509            0.000411927488           
       0.434324             0.00199408048            0.000391296625           
       0.435003             0.00176988075            0.000369273284           
       0.435682             0.00243611883            0.000436789819           
       0.436361             0.00250778749            0.000442575133           
       0.437041             0.00279870734            0.000466917787           
       0.437720             0.00242334247            0.000436574947           
       0.438399              0.0017650405            0.000374532175           
       0.439078              0.0027273859            0.000479070752           
       0.439757             0.00252160674            0.000457805824           
       0.440436             0.00228893845            0.000446003787           
       0.441116             0.00280713619             0.00050199266           
       0.441795             0.00248150199            0.000472547925           
       0.442474               0.002944113            0.000516149013           
       0.443153             0.00299955827             0.00053314097           
       0.443832             0.00311028345            0.000543807024           
       0.444511             0.00232473263            0.000468026086           
       0.445191             0.00334015191            0.000574650348           
       0.445870             0.00206422967            0.000451763806           
       0.446549             0.00272385482            0.000524421029           
       0.447228             0.00218308264            0.000466833723           
       0.447907             0.00111802278            0.000338090284           
       0.448586             0.00193866603             0.00045591588           
       0.449266             0.00210304201            0.000470483034           
       0.449945             0.00229785055            0.000489785412           
       0.450624             0.00250057552            0.000519047994           
       0.451303              0.0022221756            0.000495644387           
       0.451982             0.00154417834            0.000410616724           
       0.452661             0.00240893233            0.000522416283           
       0.453341             0.00185745313            0.000460344154           
       0.454020             0.00232284128            0.000515578483           
       0.454699             0.00305791542            0.000596961419           
       0.455378             0.00248477323            0.000538406023           
       0.456057             0.00174481719            0.000459195196           
       0.456736             0.00185294866            0.000471734536           
       0.457416             0.00209233966             0.00050129619           
       0.458095             0.00203656408            0.000501726948           
       0.458774             0.00107926659            0.000370070684           
       0.459453             0.00263825703            0.000581518751           
       0.460132              0.0022650919             0.00052718892           
       0.460811             0.00282526642            0.000610747161           
       0.461490             0.00162611981            0.000458636308           
       0.462170             0.00142678618             0.00043631145           
       0.462849             0.00130032741            0.000419228906           
       0.463528             0.00196305255            0.000513904654           
       0.464207             0.00234488405            0.000572174261           
       0.464886             0.00200685204            0.000525206844           
       0.465565             0.00164945798            0.000481380057           
       0.466245             0.00166631112            0.000485334416           
       0.466924             0.00175415581            0.000509725868           
       0.467603             0.00209316261            0.000544995891           
       0.468282             0.00132432101            0.000443778895           
       0.468961             0.00163547079             0.00049640378           
       0.469640             0.00149986387            0.000477275018           
       0.470320            0.000899173307            0.000369797995           
       0.470999             0.00169396205            0.000512355885           
       0.471678             0.00111874661            0.000420378298           
       0.472357            0.000953443789            0.000389164042           
       0.473036              0.0019014618            0.000553046512           
       0.473715             0.00163468432            0.000516795834           
       0.474395             0.00170712711            0.000535423211           
       0.475074            0.000522012564            0.000296085672           
       0.475753            2.35787341e-05            6.23840379e-05           
       0.476432             0.00108936902            0.000439471434           
       0.477111            0.000385710909            0.000258339152           
       0.477790            0.000551779818            0.000310639317           
       0.478470            0.000948803591            0.000412731185           
       0.479149             0.00094115295            0.000415315534           
       0.479828            0.000778117462            0.000376744641           
       0.480507            0.000784043237            0.000381225429           
       0.481186             0.00085293115            0.000406583869           
       0.481865             0.00138270839            0.000511265978           
       0.482545            0.000837045059            0.000402464552           
       0.483224             0.00104715466            0.000453227321           
       0.483903             0.00049895823            0.000317782756           
       0.484582           -0.000100262258                         0           
       0.485261           -0.000114224491                         0           
       0.485940            0.000112151007            0.000155251587           
       0.486619            0.000101538406            0.000146098513           
       0.487299            0.000113818109             0.00015714665           
       0.487978            0.000323334144            0.000262166849           
       0.488657            0.000826899155            0.000436555709           
       0.489336           -9.28076344e-05                         0           
       0.490015           -0.000307246135                         0           
       0.490694           -0.000307264751                         0           
       0.491374           -0.000307283273                         0           
       0.492053           -0.000307301987                         0           
       0.492732            -0.00030732057                         0           
       0.493411           -0.000307339395                         0           
       0.494090           -0.000307358343                         0           
       0.494769            0.000207856735            0.000231577863           
       0.495449           -0.000307395769                         0           
       0.496128           -0.000307414671                         0           
       0.496807           -0.000307433365                         0           
       0.497486           -4.50783601e-05                         0           
       0.498165           -3.68970164e-05                         0           
       0.498844            -3.1216602e-05                         0           
       0.499524           -0.000307509159                         0           
       0.500203           -0.000307528398                         0           
       0.500882           -1.92119754e-05                         0           
       0.501561            0.000559259151            0.000402236143           
       0.502240            -0.00030758535                         0           
       0.502919           -0.000307604437                         0           
       0.503599           -0.000307623602                         0           
       0.504278           -5.01506091e-06                         0           
       0.504957           -0.000307662239                         0           
       0.505636           -0.000307681321                         0           
       0.506315            1.10926783e-05            5.91674456e-05           
       0.506994           -0.000307719766                         0           
       0.507673           -0.000307738776                         0           
       0.508353           -0.000307758187                         0           
       0.509032            4.42085274e-05            0.000124428627           
       0.509711           -0.000307796852                         0           
       0.510390            0.000737479573            0.000505939617           
       0.511069           -0.000307836067                         0           
       0.511748           -0.000307855563                         0           
       0.512428           -0.000307875198                         0           
       0.513107           -0.000307894531                         0           
       0.513786           -0.000307913924                         0           
       0.514465            5.99616872e-05            0.000147434366           
       0.515144            9.02111299e-05            0.000190693684           
       0.515823           -0.000307972891                         0           
       0.516503           -0.000307992605                         0           
       0.517182           -0.000308012318                         0           
       0.517861           -0.000308031983                         0           
       0.518540           -0.000308051758                         0           
       0.519219            -0.00030807142                         0           
       0.519898            -0.00030809128                         0           
       0.520578           -0.000308111259                         0           
       0.521257            -0.00030813098                         0           
       0.521936           -0.000308150749                         0           
       0.522615           -0.000308170754                         0           
       0.523294           -0.000308190834                         0           
       0.523973           -0.000308210636                         0           
       0.524653           -0.000308230295                         0           
       0.525332            0.000141759238             0.00025428101           
       0.526011           -0.000308270545                         0           
       0.526690           -0.000308290811                         0           
       0.527369           -0.000308310909                         0           
       0.528048            0.000173734821            0.000290887296           
       0.528728           -0.000308351368                         0           
       0.529407             0.00124925818            0.000807818632           
       0.530086           -0.000308391512                         0           
       0.530765           -0.000308411561                         0           
       0.531444           -0.000308431825                         0           
       0.532123           -0.000308452449                         0           
       0.532802           -0.000308472904                         0           
       0.533482            0.000252533959            0.000376266829           
       0.534161           -0.000308513707                         0           
       0.534840            -0.00030853395                         0           
       0.535519           -0.000308554568                         0           
       0.536198           -0.000308574972                         0           
       0.536877           -0.000308595096                         0           
       0.537557           -0.000308615565                         0           
       0.538236           -0.000308636219                         0           
       0.538915           -0.000308656865                         0           
       0.539594           -0.000308677484                         0           
       0.540273           -0.000308698424                         0           
       0.540952             0.00159578199             0.00100665267           
       0.541632           -0.000308739461                         0           
       0.542311           -0.000308759976                         0           
       0.542990           -0.000308780722                         0           
       0.543669             0.00152414469            0.000968101211           
       0.544348           -0.000308822534                         0           
       0.545027            0.000336001427            0.000465864895           
       0.545707            0.000396700285            0.000530478879           
       0.546386           -0.000308885265                         0           
       0.547065           -0.000308905984                         0           
       0.547744            0.000438334255            0.000570052674           
       0.548423           -0.000308947839                         0           
       0.549102           -0.000308968903                         0           
       0.549782            -0.00030898986                         0           
       0.550461           -0.000309011066                         0           
       0.551140           -0.000309032401                         0           
       0.551819           -0.000309053482                         0           
       0.552498           -0.000309074745                         0           
       0.553177           -0.000309095642                         0           
       0.553856           -0.000309116614                         0           
       0.554536             0.00126723489             0.00100224726           
       0.555215           -0.000309159017                         0           
       0.555894           -0.000309180328                         0           
       0.556573           -0.000309201766                         0           
       0.557252           -0.000309223187                         0           
       0.557931            -0.00030924451                         0           
       0.558611           -0.000309266331                         0           
       0.559290           -0.000309287598                         0           
       0.559969           -0.000309308342                         0           
       0.560648           -0.000309329636                         0           
       0.561327           -0.000309351404                         0           
       0.562006           -0.000309373071                         0           
       0.562686            -0.00030939475                         0           
       0.563365           -0.000309416509                         0           
       0.564044           -0.000309438159                         0           
       0.564723           -0.000309459761                         0           
       0.565402            -0.00030948096                         0           
       0.566081             -0.0003095023                         0           
       0.566761           -0.000309523869                         0           
       0.567440           -0.000309545878                         0           
       0.568119           -0.000309567712                         0           
       0.568798           -0.000309589853                         0           
       0.569477           -0.000309611852                         0           
       0.570156           -0.000309633958                         0           
       0.570836             0.00105746101             0.00119390421           
       0.571515           -0.000309677537                         0           
       0.572194           -0.000309699719                         0           
       0.572873           -0.000309721393                         0           
       0.573552            -0.00030974294                         0           
       0.574231           -0.000309764924                         0           
       0.574911           -0.000309787462                         0           
       0.575590           -0.000309809566                         0           
       0.576269           -0.000309831603                         0           
       0.576948           -0.000309854063                         0           
       0.577627           -0.000309875838                         0           
       0.578306            -0.00030989792                         0           
       0.578985           -0.000309920191                         0           
       0.579665           -0.000309942334                         0           
       0.580344           -0.000309964812                         0           
       0.581023           -0.000309987265                         0           
       0.581702           -0.000310009511                         0           
       0.582381           -0.000310031555                         0           
       0.583060           -0.000310054256                         0           
       0.583740           -0.000310076601                         0           
       0.584419            -0.00031009902                         0           
       0.585098           -0.000310121412                         0           
       0.585777           -0.000310143979                         0           
       0.586456           -0.000310166912                         0           
       0.587135           -0.000310189236                         0           
       0.587815           -0.000310211319                         0           
       0.588494           -0.000310234091                         0           
       0.589173           -0.000310257385                         0           
       0.589852           -0.000310279441                         0           
       0.590531           -0.000310302329                         0           
       0.591210           -0.000310324688                         0           
       0.591890            -0.00031034748                         0           
       0.592569           -0.000310369509                         0           
       0.593248           -0.000310393594                         0           
       0.593927           -0.000310416492                         0           
       0.594606           -0.000310439861                         0           
       0.595285           -0.000310461839                         0           
       0.595965           -0.000310482347                         0           
       0.596644           -0.000310503451                         0           
