################################################################################
# EDF_DataBlockID                     0.Image.Psd
# EDF_BinarySize                      2105344
# EDF_HeaderSize                      2560
# ByteOrder                           LowByteFirst
# DataType                            FloatValue
# Dim_1                               512
# Dim_2                               1028
# Image                               0
# HeaderID                            EH:000000:000000:000000
# Size                                2105344
# Center_1                            304.9000
# Center_2                            588.7000
# Comment                             Xenocs_Cell_Window - 20251028_20perc_iodine_1.23mg
# DDummy                              0.6
# Date                                2025-11-01T00:58:45
# Delta                               21.910000
# Dummy                               -1.5
# ExposureTime                        360
# Gamma                               15.360000
# Intensity1                          8.60962e-10
# PSize_1                             7.5e-05
# PSize_2                             7.5e-05
# Pressure                            0.0327549
# SampleDistance                      0.115750
# SampleEnvKind                       large
# SampleEnvPN                         ElectroChemical cell
# SampleEnvSN                         1141
# Thickness                           0
# Wavelength                          1.541891e-10
# Wavelength                          1.54189e-10
# aux                                 0
# aux_dial                            0.002375
# beamx                               588.434
# beamx_dial                          588.434
# beamz                               657.808
# beamz_dial                          657.808
# det0x                               0
# det0x_dial                          6.36945
# det0xvd                             0
# det0xvd_dial                        0
# det0y                               450.002
# det0y_dial                          481.635
# det0z                               0
# det0z_dial                          1.23302
# det0zvd                             0
# det0zvd_dial                        0
# mag                                 1.818
# mag_dial                            1.818
# om                                  0.2499
# om_dial                             -0.610199
# phi                                 -0.0120535
# phi_dial                            0
# ry                                  0.599993
# ry_dial                             0.599993
# s1bot                               0.8
# s1bot_dial                          -1.66094
# s1hl                                0.8
# s1hl_dial                           -0.608437
# s1hr                                0.8
# s1hr_dial                           0.970938
# s1top                               0.8
# s1top_dial                          -0.461562
# s2bot                               0.45
# s2bot_dial                          1.36109
# s2hl                                0.45
# s2hl_dial                           -0.83375
# s2hr                                0.45
# s2hr_dial                           -0.118594
# s2top                               0.45
# s2top_dial                          1.44734
# w2theta                             32
# w2theta_dial                        32
# waxsch                              19.2605
# waxsch_dial                         -32.7355
# waxsh                               137.085
# waxsh_dial                          -43.5338
# waxsth                              26.0607
# waxsth_dial                         -19.4086
# waxsz                               67.0407
# waxsz_dial                          -23.7954
# wind                                65.9854
# wind_dial                           66.0041
# wpsi                                124
# wpsi_dial                           124
# wstod                               115
# wstod_dial                          115
# x                                   0
# x_dial                              1.00969
# z                                   0
# z_dial                              13.3172
# CountCutoff                         6807993
# DetectorModel                       Dectris EIGER2 Si 500K, S/N E-01-0554
# ThresholdSetting                    4023.88989258
# Saturation                          0
# FlatField                           Corrected
# BackgroundReductionExtra            0.02
# BackgroundCorrectionConstant        0.0026712
# Detector                            0
# Monitor                             0
# Pil_Roi0                            0
# SumForIntensity1                    3.09946e+08
# TransmittedFlux                     860962
# det                                 0
# mon                                 0
# pilai0                              3.09946e+08
# pilai1                              787798
# pilct0                              5.35768e+08
# pilct1                              787798
# pilroi0                             0
# pilroi1                             0
# sec                                 1
# title                               20251028_20perc_iodine_1.23mg_1_00751.edf
# usaxs0                              0
# Operation                           Azimuthal average I(q)
# Error_model                         ErrorModel.poisson
# Geometrical_correction              True
# Transmission_correction             True
# Thickness_correction                False
# Binning mode                        Uniform
# Binning factor                      1.0
# Psi                                 0.0
# Omega                               0.2499
# MaskInvalidPixels                   True
# DetectorEdge                        3
# MaskFiles                           ['WAXS_corrected.edf']
################################################################################
    q(A⁻¹)                Intensity(a.u.)            Sigma_I(a.u.)            
       0.693100              0.0164329711             0.00851687203           
       0.695741              0.0027280434             0.00283175342           
       0.698381             0.00424183743             0.00432533414           
       0.701021              0.0175338626              0.0124317892           
       0.703662             0.00559841569             0.00405477604           
       0.706302              0.0102467584             0.00424702388           
       0.708942             0.00282667289             0.00287905716           
       0.711583              0.0109346299             0.00490343415           
       0.714223              0.0116995131             0.00585574447           
       0.716864              0.0012318771             0.00124323349           
       0.719504             0.00439930151             0.00253529632           
       0.722144             0.00747637432             0.00306075945           
       0.724785             0.00633753776              0.0022478916           
       0.727425             0.00584176798             0.00291962641           
       0.730065             0.00435248451             0.00178264541           
       0.732706              0.0112671962             0.00240853534           
       0.735346             0.00873362692             0.00276418129           
       0.737987              0.0081510024             0.00188699951           
       0.740627             0.00193043748             0.00137018948           
       0.743267             0.00695215356             0.00174162479           
       0.745908             0.00721142436              0.0019244834           
       0.748548             0.00521433916             0.00150840413           
       0.751189              0.0071350948             0.00237757639           
       0.753829              0.0080385735             0.00231979284           
       0.756469              0.0090931668             0.00198953066           
       0.759110              0.0106330751             0.00226721672           
       0.761750             0.00637122031             0.00155179936           
       0.764390             0.00694482037             0.00169574377           
       0.767031             0.00708525704             0.00148322381           
       0.769671             0.00630426613             0.00174526264           
       0.772312              0.0108938622             0.00174656927           
       0.774952              0.0097034516             0.00222596183           
       0.777592             0.00730419474             0.00140668855           
       0.780233             0.00827654162             0.00180659167           
       0.782873              0.0103986102             0.00193671552           
       0.785513             0.00577731481             0.00154328088           
       0.788154              0.0083477848             0.00155185611           
       0.790794             0.00654774196             0.00164312515           
       0.793435             0.00855673092             0.00168744264           
       0.796075              0.0107944886             0.00182575408           
       0.798715             0.00818045675             0.00187820402           
       0.801356             0.00953799894             0.00174549472           
       0.803996               0.008264885             0.00165653657           
       0.806637             0.00564566638             0.00108956325           
       0.809277              0.0093668022             0.00151904923           
       0.811917             0.00560267917             0.00109827652           
       0.814558             0.00531741771             0.00111202376           
       0.817198             0.00944878432             0.00140830488           
       0.819838             0.00599709607             0.00113551123           
       0.822479             0.00773318731             0.00151415137           
       0.825119             0.00471520342             0.00100631505           
       0.827760             0.00704585056             0.00124607247           
       0.830400             0.00718840099             0.00118458967           
       0.833040             0.00490760435             0.00102546354           
       0.835681             0.00829375291             0.00151550052           
       0.838321             0.00682826197             0.00115416885           
       0.840961             0.00738467731             0.00130775387           
       0.843602             0.00753092448             0.00121108069           
       0.846242             0.00715133456             0.00117998829           
       0.848883             0.00796445711             0.00127435085           
       0.851523             0.00714483238             0.00119200594           
       0.854163             0.00718702074             0.00127138188           
       0.856804             0.00687302701             0.00111789633           
       0.859444             0.00804357982             0.00118492984           
       0.862085             0.00434498781            0.000907683129           
       0.864725             0.00817916421             0.00127449606           
       0.867365             0.00783796764             0.00115691557           
       0.870006             0.00617159576            0.000978265079           
       0.872646             0.00733361197             0.00111825933           
       0.875286              0.0057879818            0.000955762869           
       0.877927             0.00835298386             0.00110793358           
       0.880567             0.00663948142             0.00102335958           
       0.883208              0.0064703982             0.00100072752           
       0.885848             0.00716121795             0.00109311794           
       0.888488             0.00717096597             0.00102597474           
       0.891129             0.00631168203            0.000988331359           
       0.893769             0.00720780603             0.00101077689           
       0.896410             0.00724209418            0.000944637123           
       0.899050             0.00893673799             0.00115400521           
       0.901690             0.00617605114             0.00104500278           
       0.904331             0.00763411796             0.00103002353           
       0.906971             0.00770902803             0.00110113842           
       0.909611             0.00717025561            0.000966726309           
       0.912252             0.00916183669             0.00112871334           
       0.914892             0.00962284529             0.00126409464           
       0.917533             0.00667496088            0.000995959453           
       0.920173             0.00792547268             0.00100689884           
       0.922813             0.00816329069             0.00107236272           
       0.925454             0.00535389091            0.000782013526           
       0.928094             0.00793014656             0.00101606689           
       0.930734             0.00768010426             0.00107652445           
       0.933375             0.00691704698             0.00101160319           
       0.936015              0.0077945135             0.00097528707           
       0.938656             0.00746786836             0.00102409527           
       0.941296             0.00738253687            0.000922794546           
       0.943936             0.00796907937            0.000940204945           
       0.946577             0.00851725078            0.000965578191           
       0.949217             0.00600459187            0.000745545315           
       0.951858             0.00770379401            0.000883992374           
       0.954498             0.00692831297             0.00097034084           
       0.957138             0.00842641558             0.00101379111           
       0.959779             0.00723737543            0.000926198276           
       0.962419             0.00768982171            0.000948359762           
       0.965059             0.00790000533             0.00101096562           
       0.967700             0.00799475771             0.00104162035           
       0.970340             0.00764322722            0.000901238822           
       0.972981             0.00712748738            0.000792928176           
       0.975621              0.0059934361            0.000773525884           
       0.978261             0.00883148818            0.000892191018           
       0.980902             0.00770141531            0.000996829243           
       0.983542             0.00747663115             0.00086977917           
       0.986182             0.00792222604            0.000879022417           
       0.988823              0.0079043635            0.000852569501           
       0.991463             0.00879054935            0.000959237833           
       0.994104             0.00844855898            0.000917368324           
       0.996744             0.00799247659            0.000910101591           
       0.999384             0.00812145515            0.000820476424           
       1.002025             0.00732771623            0.000869859492           
       1.004665             0.00880915338            0.000871604116           
       1.007306             0.00612968683            0.000723340301           
       1.009946             0.00860994478            0.000874307695           
       1.012586             0.00875331991            0.000858584838           
       1.015227              0.0073776627            0.000846812131           
       1.017867             0.00772130392            0.000832583184           
       1.020507             0.00759721664            0.000799963417           
       1.023148             0.00753248593            0.000859497239           
       1.025788             0.00733297399            0.000777584118           
       1.028429             0.00833593694            0.000868573814           
       1.031069             0.00793254363            0.000797339209           
       1.033709             0.00747217828            0.000822611487           
       1.036350             0.00723251024            0.000726872323           
       1.038990             0.00665809141            0.000710226382           
       1.041630             0.00866198649            0.000844927005           
       1.044271             0.00786145946            0.000757014254           
       1.046911             0.00734438505            0.000769647866           
       1.049552             0.00777435687            0.000831945916           
       1.052192             0.00847595184            0.000793209979           
       1.054832             0.00687218057            0.000720732426           
       1.057473             0.00912443865            0.000818679226           
       1.060113             0.00747411574            0.000722630559           
       1.062754             0.00654364159            0.000690342177           
       1.065394             0.00828774942            0.000821398958           
       1.068034             0.00828907583            0.000747420223           
       1.070675             0.00740994108            0.000737147893           
       1.073315             0.00806914304            0.000780264424           
       1.075955              0.0100678562            0.000822801159           
       1.078596             0.00773293817            0.000766391828           
       1.081236             0.00878857115            0.000782359059           
       1.083877             0.00705087701            0.000694472533           
       1.086517             0.00886996326            0.000835233188           
       1.089157               0.010082065            0.000923967249           
       1.091798             0.00988969834            0.000802292116           
       1.094438             0.00850248228            0.000741497839           
       1.097078             0.00827327438            0.000701522911           
       1.099719             0.00904268024            0.000793304008           
       1.102359              0.0103402657            0.000794456711           
       1.105000               0.010022667            0.000874608192           
       1.107640             0.00838148759            0.000764740691           
       1.110280             0.00801602141            0.000682385284           
       1.112921             0.00736445722            0.000702606718           
       1.115561             0.00903865924            0.000739788877           
       1.118202             0.00801301377            0.000697208647           
       1.120842             0.00890400782            0.000772436839           
       1.123482              0.0084989911            0.000751368373           
       1.126123             0.00866078852            0.000727515779           
       1.128763             0.00909857572            0.000750789008           
       1.131403             0.00816107345            0.000685164992           
       1.134044             0.00871814153            0.000728701868           
       1.136684             0.00893481964            0.000786517991           
       1.139325             0.00817677654            0.000693122871           
       1.141965             0.00950521019            0.000752249052           
       1.144605             0.00969382712            0.000724353338           
       1.147246             0.00847366607             0.00069309002           
       1.149886             0.00912441227            0.000716658008           
       1.152527             0.00903009602            0.000723312088           
       1.155167             0.00770020732            0.000635302867           
       1.157807             0.00849350909            0.000715385515           
       1.160448              0.0101269903            0.000762817058           
       1.163088             0.00946643285            0.000703484864           
       1.165728             0.00943213039            0.000720971394           
       1.168369              0.0076831558            0.000656714798           
       1.171009              0.0106695569            0.000751040879           
       1.173650             0.00855903901            0.000690321121           
       1.176290             0.00910129657            0.000695640023           
       1.178930             0.00883975718            0.000671923015           
       1.181571             0.00892421617            0.000688513288           
       1.184211             0.00870183782            0.000682291372           
       1.186851             0.00935288242            0.000691570306           
       1.189492             0.00842804934            0.000652071979           
       1.192132              0.0104892077            0.000719288324           
       1.194773             0.00896354197            0.000667828438           
       1.197413             0.00918427798            0.000647705042           
       1.200053             0.00851460513            0.000639490247           
       1.202694             0.00968904563            0.000648703967           
       1.205334               0.010386476            0.000723823724           
       1.207975              0.0104233241            0.000692134644           
       1.210615              0.0089516197             0.00070758837           
       1.213255             0.00883208516            0.000629384328           
       1.215896              0.0100449455            0.000683371136           
       1.218536             0.00882899175            0.000616037307           
       1.221176             0.00883088076             0.00066983059           
       1.223817             0.00988446307              0.0006652336           
       1.226457              0.0117793327            0.000740833188           
       1.229098             0.00939248376            0.000661498941           
       1.231738             0.00958120888            0.000671399911           
       1.234378             0.00941481913            0.000625379111           
       1.237019             0.00992023474            0.000661519059           
       1.239659              0.0100077719            0.000658643437           
       1.242299             0.00981421493            0.000643956204           
       1.244940             0.00982761594            0.000626715224           
       1.247580             0.00962926958            0.000639330296           
       1.250221             0.00908779878             0.00061726252           
       1.252861              0.0102559133            0.000624261956           
       1.255501             0.00981724706            0.000663174686           
       1.258142               0.010307546            0.000638543421           
       1.260782               0.010985356            0.000673467408           
       1.263423              0.0107476695            0.000640086898           
       1.266063              0.0102796384            0.000641626695           
       1.268703              0.0108049305              0.0006523575           
       1.271344             0.00974741106            0.000640610351           
       1.273984              0.0105598064            0.000643970121           
       1.276624              0.0108413099            0.000640238989           
       1.279265             0.00980615082            0.000619018221           
       1.281905              0.0101155056            0.000631496789           
       1.284546              0.0106076626            0.000625071652           
       1.287186               0.011095537            0.000627205848           
       1.289826             0.00981168276            0.000621605081           
       1.292467              0.0111870748            0.000649125194           
       1.295107               0.010959189            0.000636097555           
       1.297747              0.0100170496            0.000581940622           
       1.300388              0.0103968221            0.000646302541           
       1.303028              0.0106193594             0.00062356747           
       1.305669              0.0119247448            0.000676516814           
       1.308309              0.0108024058            0.000637553028           
       1.310949              0.0105487911            0.000629391313           
       1.313590             0.00979043093            0.000587392016           
       1.316230               0.010777005            0.000657653464           
       1.318871              0.0104089405            0.000632996531           
       1.321511              0.0105421878            0.000625227592           
       1.324151              0.0111534189            0.000624031946           
       1.326792              0.0109907221             0.00062329357           
       1.329432              0.0111295046            0.000622790321           
       1.332072              0.0108866076            0.000606777116           
       1.334713              0.0111767339             0.00063454412           
       1.337353             0.00995559732            0.000574335509           
       1.339994              0.0115853057             0.00065017007           
       1.342634              0.0107675219            0.000601064768           
       1.345274              0.0105809458            0.000616632699           
       1.347915              0.0108660958            0.000607630236           
       1.350555              0.0122021816            0.000655181583           
       1.353195              0.0113788863            0.000635800157           
       1.355836              0.0118248348            0.000638032696           
       1.358476              0.0115542151            0.000612495283           
       1.361117              0.0106822816             0.00058973954           
       1.363757              0.0112924609            0.000624863405           
       1.366397              0.0102954955            0.000578587685           
       1.369038              0.0105138594            0.000590513218           
       1.371678              0.0117808185            0.000619570216           
       1.374319              0.0103323759            0.000575237323           
       1.376959              0.0112615804            0.000594507065           
       1.379599              0.0113114001            0.000638539277           
       1.382240              0.0111141759            0.000594876155           
       1.384880              0.0113908616            0.000637904035           
       1.387520              0.0108630788            0.000591635293           
       1.390161              0.0113218127            0.000573653126           
       1.392801              0.0101417813            0.000565686506           
       1.395442              0.0111537722            0.000601341133           
       1.398082              0.0109163055            0.000557102928           
       1.400722              0.0109129428            0.000583462638           
       1.403363               0.010034703            0.000588933976           
       1.406003              0.0108600702            0.000573382173           
       1.408644              0.0110078609            0.000604728346           
       1.411284              0.0114629882            0.000584341957           
       1.413924              0.0120054412            0.000595791326           
       1.416565              0.0110908051            0.000570397129           
       1.419205              0.0105686741             0.00058084037           
       1.421845              0.0109541098            0.000590989822           
       1.424486               0.011042518            0.000570364872           
       1.427126              0.0105066251            0.000577943037           
       1.429767              0.0115775196            0.000570814108           
       1.432407              0.0109643711            0.000581336681           
       1.435047              0.0116032172             0.00056165215           
       1.437688              0.0109276301            0.000553205649           
       1.440328              0.0105207522            0.000553997475           
       1.442968              0.0101923377            0.000557499518           
       1.445609              0.0112203131             0.00056638252           
       1.448249              0.0103087435            0.000556633533           
       1.450890              0.0105946971            0.000560617765           
       1.453530              0.0107964288            0.000592076509           
       1.456170              0.0107237033            0.000572685517           
       1.458811              0.0109065137            0.000552262022           
       1.461451              0.0101358618            0.000533789853           
       1.464092               0.010868882            0.000556368466           
       1.466732             0.00949190359             0.00051546431           
       1.469372               0.010858362            0.000538417857           
       1.472013              0.0106475091            0.000575028677           
       1.474653              0.0102051485             0.00055427259           
       1.477293              0.0105300238            0.000574892661           
       1.479934              0.0112030714            0.000565827571           
       1.482574              0.0105558525            0.000531303952           
       1.485215              0.0110948631            0.000554845147           
       1.487855              0.0111888062            0.000564539448           
       1.490495               0.010052968             0.00053314722           
       1.493136              0.0102754986            0.000531627518           
       1.495776              0.0114835651            0.000559451404           
       1.498416              0.0108937415            0.000562722038           
       1.501057              0.0107875943            0.000547632791           
       1.503697               0.011012122            0.000540941468           
       1.506338               0.010950972            0.000549294874           
       1.508978             0.00979146448            0.000514293359           
       1.511618             0.00966235402            0.000544096812           
       1.514259              0.0105975729            0.000550134805           
       1.516899              0.0105416247            0.000534233125           
       1.519540              0.0100731036            0.000530647525           
       1.522180              0.0103170883            0.000541753172           
       1.524820              0.0102045674            0.000535767951           
       1.527461             0.00994069694            0.000531410871           
       1.530101              0.0105783479            0.000542707302           
       1.532741              0.0105482772            0.000538790331           
       1.535382              0.0101206558            0.000536252441           
       1.538022             0.00950021442            0.000489448459           
       1.540663             0.00991767392            0.000537873967           
       1.543303             0.00904213509            0.000476870708           
       1.545943             0.00946204249            0.000516319069           
       1.548584              0.0104445436            0.000552200968           
       1.551224               0.010331383            0.000507788625           
       1.553864              0.0109682303            0.000552864016           
       1.556505              0.0106106053            0.000525301802           
       1.559145              0.0107719835            0.000535765068           
       1.561786              0.0099710613             0.00051585969           
       1.564426             0.00983827408            0.000496475091           
       1.567066              0.0106259748            0.000540634934           
       1.569707             0.00935149561            0.000498067311           
       1.572347             0.00931345295            0.000513505637           
       1.574988              0.0102014792            0.000511542688           
       1.577628              0.0099245356            0.000526122689           
       1.580268             0.00851858888            0.000472271573           
       1.582909             0.00957743528            0.000530789302           
       1.585549             0.00961830805            0.000516477995           
       1.588189             0.00974811136            0.000508603229           
       1.590830             0.00904486953            0.000489299303           
       1.593470             0.00914262485             0.00051141498           
       1.596111             0.00958909755            0.000511346034           
       1.598751             0.00893868004            0.000478378304           
       1.601391               0.009163323            0.000495038344           
       1.604032             0.00929972086            0.000509134702           
       1.606672             0.00918200281            0.000491531886           
       1.609312              0.0100165357            0.000535912149           
       1.611953              0.0092526828            0.000504030902           
       1.614593             0.00933152668            0.000496516428           
       1.617234             0.00916610664            0.000509996718           
       1.619874             0.00864749739            0.000493402308           
       1.622514             0.00985404297            0.000519514874           
       1.625155             0.00983284969            0.000522021638           
       1.627795             0.00934764566            0.000496508172           
       1.630436             0.00862110838            0.000474332792           
       1.633076             0.00846114552            0.000476074694           
       1.635716              0.0090907543            0.000485791713           
       1.638357             0.00862976517            0.000474561889           
       1.640997             0.00909902772            0.000502054892           
       1.643637             0.00875339509            0.000479187103           
       1.646278             0.00853804882            0.000488125799           
       1.648918             0.00870881281            0.000494327803           
       1.651559             0.00877011839            0.000499914855           
       1.654199              0.0077160831            0.000456058545           
       1.656839             0.00887900265            0.000489390813           
       1.659480             0.00842049844             0.00049448422           
       1.662120             0.00811440559            0.000457179596           
       1.664761             0.00865101097            0.000490342524           
       1.667401             0.00905677609             0.00047952754           
       1.670041             0.00853269659            0.000472543641           
       1.672682             0.00848273712            0.000469221683           
       1.675322              0.0091510455            0.000484221072           
       1.677962              0.0089905972            0.000474662752           
       1.680603             0.00814723652            0.000453242289           
       1.683243             0.00883884209            0.000492535772           
       1.685884             0.00869768172            0.000492194969           
       1.688524             0.00846013384            0.000476043742           
       1.691164             0.00843286116            0.000475383695           
       1.693805             0.00772404552            0.000459964274           
       1.696445             0.00919857919            0.000504863536           
       1.699085             0.00878951373            0.000476973515           
       1.701726             0.00900650034            0.000465117737           
       1.704366             0.00776523805            0.000454972861           
       1.707007             0.00879278579            0.000473348417           
       1.709647             0.00768796048            0.000447610526           
       1.712287             0.00789884287            0.000457657207           
       1.714928             0.00935740388            0.000502138771           
       1.717568             0.00826709799            0.000444606024           
       1.720209             0.00907767898             0.00048799063           
       1.722849             0.00816060687            0.000460306164           
       1.725489             0.00907659414            0.000485860441           
       1.728130             0.00902867807            0.000514968811           
       1.730770             0.00897274646            0.000487564714           
       1.733410             0.00828736541            0.000461208074           
       1.736051             0.00889153605             0.00048104917           
       1.738691             0.00833718749            0.000456369581           
       1.741332             0.00769969543             0.00045139902           
       1.743972             0.00891784913            0.000501666826           
       1.746612             0.00886980175             0.00048042857           
       1.749253             0.00854874072            0.000480967764           
       1.751893             0.00868937881            0.000481348592           
       1.754533             0.00797145075            0.000460604583           
       1.757174             0.00803738364            0.000458174392           
       1.759814             0.00854532316            0.000465269135           
       1.762455             0.00858353936            0.000474870765           
       1.765095             0.00915637685            0.000469185126           
       1.767735             0.00911368181             0.00048253054           
       1.770376             0.00849654668            0.000467135111           
       1.773016             0.00776090806            0.000443464386           
       1.775657             0.00829618844            0.000451905353           
       1.778297              0.0083815036            0.000450311774           
       1.780937             0.00903344995            0.000493443285           
       1.783578             0.00933713166            0.000489125035           
       1.786218             0.00769156486            0.000463295935           
       1.788858             0.00898425505            0.000475560152           
       1.791499             0.00837640973             0.00045403387           
       1.794139             0.00937613827            0.000476467644           
       1.796780             0.00867549938            0.000456110319           
       1.799420             0.00897667003            0.000461390435           
       1.802060              0.0085917718             0.00045503642           
       1.804701             0.00920561791            0.000452003811           
       1.807341             0.00901995465            0.000470143709           
       1.809981             0.00955190424            0.000485421468           
       1.812622             0.00842433588             0.00044766371           
       1.815262             0.00900711122             0.00047272178           
       1.817903             0.00856973828            0.000454269516           
       1.820543             0.00858799474            0.000461839212           
       1.823183             0.00930044971            0.000480350309           
       1.825824             0.00922918137            0.000457145568           
       1.828464              0.0091275604            0.000473962907           
       1.831105             0.00899639259            0.000457535471           
       1.833745             0.00936632329            0.000476818061           
       1.836385             0.00858723279            0.000469586144           
       1.839026             0.00893878115            0.000477588108           
       1.841666             0.00857836234            0.000466201676           
       1.844306             0.00886254468            0.000460931354           
       1.846947             0.00855340989             0.00045679043           
       1.849587             0.00862474826            0.000506506467           
       1.852228               0.007551246            0.000428556963           
       1.854868               0.008933004            0.000492387152           
       1.857508               0.008492309            0.000475379337           
       1.860149             0.00854591818            0.000485541615           
       1.862789             0.00851551205            0.000467825464           
       1.865429              0.0086444229            0.000492020642           
       1.868070             0.00877034409            0.000488985896           
       1.870710             0.00873502869            0.000476749761           
       1.873351             0.00827893637            0.000469874141           
       1.875991             0.00792967593             0.00046736109           
       1.878631             0.00870008828            0.000480162547           
       1.881272              0.0079372116            0.000455554923           
       1.883912             0.00815308095            0.000480504007           
       1.886553             0.00945029423            0.000511535804           
       1.889193             0.00787126834            0.000466050559           
       1.891833             0.00878859438            0.000511438236           
       1.894474             0.00828337802            0.000492196351           
       1.897114             0.00918592568            0.000501565303           
       1.899754             0.00874839134            0.000491522559           
       1.902395             0.00925885632            0.000495773086           
       1.905035             0.00779245127            0.000481732571           
       1.907676             0.00842471855            0.000472094977           
       1.910316             0.00933932648            0.000510258546           
       1.912956              0.0091194768            0.000493124148           
       1.915597             0.00896332947            0.000491616493           
       1.918237             0.00771094706            0.000470916208           
       1.920878             0.00881440441            0.000501423595           
       1.923518             0.00838988242            0.000489407305           
       1.926158             0.00886109329            0.000496436455           
       1.928799             0.00805839117            0.000467937428           
       1.931439             0.00986929595            0.000531436001           
       1.934079             0.00932732991            0.000538582661           
       1.936720             0.00779327044            0.000456134175           
       1.939360             0.00883884562             0.00051824864           
       1.942001             0.00866839561            0.000470399126           
       1.944641             0.00883248991             0.00048418372           
       1.947281             0.00763131681            0.000445909452           
       1.949922             0.00849398539            0.000485921173           
       1.952562             0.00812732093            0.000490216587           
       1.955202             0.00905759979             0.00051688169           
       1.957843              0.0081329878            0.000477088039           
       1.960483             0.00798063656             0.00049410098           
       1.963124             0.00897663702            0.000513276502           
       1.965764             0.00800591586            0.000457114139           
       1.968404             0.00815924539            0.000457110556           
       1.971045              0.0084615401            0.000474603122           
       1.973685             0.00911469603             0.00051667989           
       1.976326             0.00894438306            0.000504795455           
       1.978966             0.00827041411            0.000489664417           
       1.981606             0.00837385416            0.000502993007           
       1.984247              0.0082559127            0.000496154683           
       1.986887             0.00843954958            0.000495633247           
       1.989527             0.00857109166            0.000494101776           
       1.992168             0.00797831844            0.000494626761           
       1.994808             0.00771337216            0.000484259812           
       1.997449             0.00793465093            0.000481070187           
       2.000089             0.00810146448            0.000484173526           
       2.002729             0.00845592953            0.000494948765           
       2.005370             0.00835342643            0.000486646604           
       2.008010             0.00818129624            0.000502625522           
       2.010650             0.00789731891             0.00049751012           
       2.013291             0.00801667182            0.000480926889           
       2.015931             0.00801052782            0.000477344243           
       2.018572             0.00911056603            0.000544493865           
       2.021212              0.0085294544            0.000517377026           
       2.023852             0.00755022226             0.00046070761           
       2.026493             0.00726741273            0.000472191151           
       2.029133             0.00805446513            0.000487099169           
       2.031774             0.00778685405            0.000502635664           
       2.034414             0.00725619725            0.000446457603           
       2.037054             0.00767983655            0.000470947414           
       2.039695             0.00807851736             0.00047936881           
       2.042335             0.00638433721            0.000442862749           
       2.044975             0.00757790977            0.000476636128           
       2.047616             0.00775362662            0.000480932945           
       2.050256             0.00803623915            0.000494252824           
       2.052897             0.00776076431            0.000494661994           
       2.055537             0.00758867108            0.000472741726           
       2.058177             0.00767566061            0.000465587432           
       2.060818             0.00752756114            0.000483010593           
       2.063458             0.00890991416            0.000547615066           
       2.066098             0.00802661357            0.000490309995           
       2.068739             0.00750073327            0.000481343564           
       2.071379             0.00725514335            0.000485744247           
       2.074020             0.00724245085            0.000474771833           
       2.076660             0.00777738747            0.000495970375           
       2.079300             0.00806603705            0.000517465963           
       2.081941              0.0069263698            0.000439052957           
       2.084581             0.00802272206            0.000498754924           
       2.087222             0.00799169974            0.000480070584           
       2.089862             0.00844391547            0.000537460043           
       2.092502             0.00794221807            0.000505276391           
       2.095143              0.0080476262            0.000525224488           
       2.097783             0.00799209485            0.000506748241           
       2.100423             0.00677344203            0.000449531213           
       2.103064             0.00754651015            0.000492348453           
       2.105704             0.00772667029            0.000495723114           
       2.108345             0.00772137227            0.000476094049           
       2.110985             0.00830715075             0.00052743899           
       2.113625             0.00715811218            0.000493877049           
       2.116266             0.00803546459            0.000530693055           
       2.118906             0.00758452762             0.00048049844           
       2.121546             0.00740288878            0.000465646267           
       2.124187             0.00705945348            0.000477312262           
       2.126827             0.00788493023            0.000510077515           
       2.129468             0.00832849559             0.00052556744           
       2.132108             0.00851124704            0.000516916794           
       2.134748             0.00797197318            0.000498331928           
       2.137389             0.00712598489            0.000491525407           
       2.140029             0.00739121237            0.000448157888           
       2.142670             0.00810773235            0.000501634586           
       2.145310             0.00719990175            0.000460103749           
       2.147950              0.0078202219            0.000493551413           
       2.150591             0.00825589737            0.000501988385           
       2.153231             0.00750557665            0.000492679303           
       2.155871             0.00781583254            0.000485698691           
       2.158512             0.00762329822             0.00050051109           
       2.161152             0.00690067051            0.000461275442           
       2.163793             0.00782641587            0.000489031219           
       2.166433             0.00731215402             0.00048540437           
       2.169073             0.00798638175            0.000495995714           
       2.171714             0.00841249141            0.000505250153           
       2.174354             0.00648954279            0.000463691449           
       2.176995             0.00786400817            0.000508291389           
       2.179635             0.00753096864            0.000525622734           
       2.182275             0.00825975516            0.000519729415           
       2.184916             0.00653493864            0.000446512064           
       2.187556             0.00822478235             0.00049590652           
       2.190196             0.00676038274            0.000469822644           
       2.192837             0.00721097703            0.000482587412           
       2.195477             0.00771781032            0.000475984248           
       2.198118             0.00770229818              0.0004876898           
       2.200758             0.00777403389            0.000502664704           
       2.203398             0.00770517039            0.000503634863           
       2.206039             0.00707438772            0.000456720875           
       2.208679             0.00740328471            0.000478090463           
       2.211319              0.0073650798             0.00047960481           
       2.213960             0.00651662256            0.000457178996           
       2.216600             0.00714895337            0.000495355912           
       2.219241             0.00787939764            0.000497024444           
       2.221881             0.00711553722            0.000473289757           
       2.224521             0.00760735005            0.000495369649           
       2.227162             0.00799333925            0.000497614463           
       2.229802             0.00715736639            0.000485615107           
       2.232443             0.00711147907            0.000476420947           
       2.235083             0.00724041952            0.000494900557           
       2.237723             0.00698709159            0.000466546552           
       2.240364             0.00736507035            0.000490800186           
       2.243004             0.00737650117            0.000487260051           
       2.245644              0.0074349784            0.000494084106           
       2.248285             0.00688249076            0.000465849159           
       2.250925             0.00754149062             0.00049060422           
       2.253566             0.00809793528            0.000543498859           
       2.256206             0.00672169469            0.000485265189           
       2.258846             0.00675994901            0.000462933146           
       2.261487             0.00689309124            0.000490652944           
       2.264127             0.00753574126            0.000495462134           
       2.266767             0.00669454498            0.000479432369           
       2.269408             0.00831964465             0.00053665357           
       2.272048             0.00632719257            0.000465207851           
       2.274689             0.00787200877             0.00052573795           
       2.277329             0.00790997916            0.000496208573           
       2.279969             0.00699510143            0.000496701993           
       2.282610             0.00713044732            0.000487536589           
       2.285250             0.00683484715            0.000456863887           
       2.287891             0.00671619125            0.000485556648           
       2.290531             0.00605682243            0.000467304531           
       2.293171             0.00729002856            0.000499391862           
       2.295812             0.00716216016            0.000493003072           
       2.298452             0.00741427025            0.000524545482           
       2.301092             0.00724404365            0.000481739909           
       2.303733             0.00769800365            0.000516642758           
       2.306373              0.0073078925            0.000511309141           
       2.309014             0.00690154651            0.000487197285           
       2.311654             0.00843262204             0.00056198558           
       2.314294             0.00754471345            0.000489742777           
       2.316935             0.00699187456            0.000473406304           
       2.319575             0.00696992732            0.000495241129           
       2.322215             0.00726404404            0.000526902051           
       2.324856             0.00675295925            0.000467079134           
       2.327496             0.00697697298            0.000504822218           
       2.330137             0.00646329528            0.000464953933           
       2.332777             0.00792973488            0.000531026059           
       2.335417             0.00692555554             0.00048145143           
       2.338058              0.0067163272            0.000488286172           
       2.340698             0.00774498801            0.000520226574           
       2.343339             0.00708417243            0.000508487332           
       2.345979             0.00712711887            0.000482525452           
       2.348619             0.00808182231            0.000532610384           
       2.351260              0.0066896089             0.00048174547           
       2.353900              0.0061737967            0.000461334038           
       2.356540             0.00724456969            0.000499032356           
       2.359181             0.00741172563            0.000497680244           
       2.361821             0.00617800957            0.000438914742           
       2.364462              0.0070781257            0.000491354283           
       2.367102             0.00681192739            0.000495358993           
       2.369742             0.00755744086            0.000549190516           
       2.372383             0.00773412539            0.000503070124           
       2.375023             0.00789499102            0.000534307156           
       2.377663             0.00667199777            0.000469642843           
       2.380304             0.00721292967            0.000496451976           
       2.382944             0.00722353639            0.000473202336           
       2.385585             0.00729427946            0.000507143687           
       2.388225             0.00682584163            0.000488283882           
       2.390865             0.00691053268            0.000486256929           
       2.393506             0.00718178188            0.000486356132           
       2.396146             0.00731780136              0.0005308267           
       2.398787               0.007324842            0.000489433276           
       2.401427             0.00755363329            0.000479737168           
       2.404067             0.00647078885            0.000453925699           
       2.406708             0.00731653682            0.000476891479           
       2.409348             0.00801110477             0.00052930228           
       2.411988             0.00738486732            0.000497916981           
       2.414629             0.00667032339             0.00048795333           
       2.417269             0.00748930529            0.000523078348           
       2.419910             0.00701275002            0.000507337247           
       2.422550             0.00698991795            0.000484598188           
       2.425190             0.00803870083            0.000547800364           
       2.427831             0.00716652115            0.000514322315           
       2.430471             0.00707500381            0.000486852678           
       2.433112             0.00644086614            0.000452333778           
       2.435752             0.00661823529            0.000485256979           
       2.438392             0.00670884277             0.00047156739           
       2.441033             0.00696436907            0.000509195258           
       2.443673              0.0068241831            0.000504431902           
       2.446313             0.00656072778            0.000495035067           
       2.448954             0.00737649773            0.000499787943           
       2.451594             0.00679070171            0.000515609431           
       2.454235             0.00676318914             0.00048279229           
       2.456875             0.00750022848            0.000531988541           
       2.459515             0.00687159516            0.000522388352           
       2.462156              0.0077855836            0.000524984342           
       2.464796             0.00762356245            0.000512790736           
       2.467436             0.00704075671            0.000509613265           
       2.470077              0.0067471025            0.000472840739           
       2.472717             0.00674594666            0.000474848307           
       2.475358             0.00718896375            0.000495303686           
       2.477998             0.00821805225            0.000520641592           
       2.480638             0.00795987652            0.000521503016           
       2.483279             0.00761183275            0.000533004425           
       2.485919             0.00679247055            0.000485238041           
       2.488560             0.00668184993            0.000479925839           
       2.491200             0.00819524763            0.000547309004           
       2.493840             0.00670858247            0.000523969918           
       2.496481             0.00819304172            0.000569574714           
       2.499121             0.00714383475            0.000517314609           
       2.501761             0.00699741142            0.000518769156           
       2.504402             0.00641492595             0.00048945125           
       2.507042             0.00636360443            0.000483878147           
       2.509683             0.00735171382            0.000512141457           
       2.512323             0.00657151797            0.000508534627           
       2.514963             0.00675274628            0.000509130365           
       2.517604             0.00747197364            0.000555723709           
       2.520244              0.0070857384            0.000507347986           
       2.522884             0.00940351557              0.0005928234           
       2.525525              0.0111585492            0.000653108962           
       2.528165             0.00765762613              0.0005326058           
       2.530806             0.00720620194            0.000525674205           
       2.533446             0.00840422417            0.000555574343           
       2.536086             0.00692934466            0.000499959526           
       2.538727             0.00696446898            0.000480849251           
       2.541367             0.00709334638            0.000490058129           
       2.544008              0.0072620413            0.000512093252           
       2.546648             0.00691782213            0.000508382442           
       2.549288             0.00648372015            0.000502201658           
       2.551929             0.00650170567            0.000494881448           
       2.554569             0.00691360314            0.000491647385           
       2.557209             0.00764577019            0.000521773948           
       2.559850             0.00791581928            0.000532613393           
       2.562490             0.00612200233             0.00048410987           
       2.565131             0.00708103582            0.000539833009           
       2.567771             0.00707211034            0.000520151942           
       2.570411             0.00722724263            0.000520136599           
       2.573052             0.00702670421            0.000519328448           
       2.575692             0.00681718458            0.000508429733           
       2.578332             0.00668355736            0.000505503852           
       2.580973             0.00728677815            0.000522801049           
       2.583613             0.00725543101            0.000509253734           
       2.586254             0.00720933091            0.000506927799           
       2.588894              0.0062291974            0.000489329292           
       2.591534             0.00720913832            0.000544936537           
       2.594175             0.00684671848            0.000521040878           
       2.596815             0.00620762331            0.000499052721           
       2.599456             0.00663445802            0.000489249171           
       2.602096             0.00717070298            0.000512508234           
       2.604736             0.00687074932            0.000513570307           
       2.607377             0.00719398497            0.000511663018           
       2.610017             0.00639379963            0.000473927046           
       2.612657             0.00771196551            0.000553622316           
       2.615298             0.00650784312            0.000496522993           
       2.617938             0.00768794797            0.000577306016           
       2.620579             0.00754196422            0.000548920881           
       2.623219              0.0071691384            0.000534418499           
       2.625859             0.00648460835            0.000494175771           
       2.628500             0.00624520562            0.000481789071           
       2.631140             0.00654452314            0.000500798807           
       2.633780             0.00723161195            0.000525973826           
       2.636421             0.00698304618            0.000529565833           
       2.639061             0.00756786752            0.000518981124           
       2.641702             0.00769973532            0.000535602099           
       2.644342             0.00743716557            0.000528633501           
       2.646982             0.00812283246            0.000544205695           
       2.649623             0.00731187449            0.000541088547           
       2.652263             0.00690024112            0.000520362472           
       2.654904             0.00803273977            0.000562007845           
       2.657544             0.00651716048            0.000476807212           
       2.660184             0.00710702631            0.000526941927           
       2.662825             0.00702705737            0.000536124933           
       2.665465             0.00676671218            0.000508825126           
       2.668105             0.00697339542             0.00054445031           
       2.670746             0.00739063233            0.000517784005           
       2.673386              0.0101366091            0.000624936603           
       2.676027             0.00969117636            0.000601244623           
       2.678667             0.00935864101            0.000576511424           
       2.681307              0.0143645144            0.000701785996           
       2.683948              0.0154760032            0.000748429449           
       2.686588              0.0107569502            0.000613625626           
       2.689229             0.00993899027            0.000576361712           
       2.691869             0.00995482854            0.000609642186           
       2.694509             0.00916131227             0.00058516122           
       2.697150             0.00708304696            0.000506177662           
       2.699790             0.00826071351            0.000573073891           
       2.702430             0.00767175375            0.000527900956           
       2.705071             0.00650221515            0.000502188724           
       2.707711             0.00754024498            0.000524877663           
       2.710352             0.00644672193            0.000512809166           
       2.712992             0.00745536874            0.000561665379           
       2.715632             0.00670532593            0.000494206161           
       2.718273             0.00606165739            0.000486975165           
       2.720913             0.00633381737            0.000496371021           
       2.723553             0.00710395175            0.000529209734           
       2.726194             0.00719084506            0.000556571603           
       2.728834              0.0070292469            0.000550540391           
       2.731475              0.0077047311            0.000531953869           
       2.734115             0.00736855017            0.000536364272           
       2.736755             0.00690914283            0.000523649707           
       2.739396             0.00622483679            0.000494161846           
       2.742036             0.00644601995            0.000526279714           
       2.744677             0.00629343134            0.000504556373           
       2.747317             0.00777056403            0.000556652656           
       2.749957             0.00759566595            0.000554214778           
       2.752598             0.00739314999            0.000552710537           
       2.755238             0.00756295124            0.000569113264           
       2.757878             0.00765851266            0.000567690251           
       2.760519             0.00773938091            0.000564628528           
       2.763159             0.00742001101            0.000547331118           
       2.765800             0.00895287698            0.000572947681           
       2.768440             0.00747020916            0.000527214941           
       2.771080             0.00880554591            0.000577177678           
       2.773721             0.00600443142            0.000488909437           
       2.776361             0.00748543211            0.000553415709           
       2.779001             0.00771212635            0.000581731672           
       2.781642             0.00665052142            0.000536229991           
       2.784282             0.00673368028            0.000548444809           
       2.786923             0.00645101689            0.000541536718           
       2.789563             0.00727539864            0.000553887379           
       2.792203             0.00668179771            0.000507075872           
       2.794844              0.0071503809            0.000574903503           
       2.797484              0.0068581536            0.000531365932           
       2.800125             0.00768981515            0.000591639928           
       2.802765             0.00750961198            0.000574608344           
       2.805405             0.00717218358            0.000563451207           
       2.808046             0.00658432903            0.000549357094           
       2.810686             0.00688424075             0.00051616381           
       2.813326             0.00613636562            0.000506192042           
       2.815967             0.00786212743            0.000589258279           
       2.818607             0.00687163487            0.000525701052           
       2.821248             0.00604831169            0.000482963844           
       2.823888             0.00677014895            0.000530401334           
       2.826528             0.00684260472            0.000516408866           
       2.829169             0.00739705014            0.000562397054           
       2.831809             0.00791574722            0.000589694734           
       2.834449              0.0067072767            0.000546248654           
       2.837090             0.00697246299            0.000537918146           
       2.839730             0.00686875007            0.000531295741           
       2.842371             0.00662363454            0.000522482803           
       2.845011             0.00753689847            0.000561782471           
       2.847651              0.0079009232            0.000575895685           
       2.850292             0.00632306541            0.000520247722           
       2.852932             0.00750094706            0.000578985208           
       2.855573              0.0079086124            0.000576691994           
       2.858213             0.00640542548            0.000545013458           
       2.860853             0.00734310731            0.000542829437           
       2.863494             0.00687817354            0.000543940756           
       2.866134             0.00714200703            0.000576100001           
       2.868774             0.00703840639              0.0005620667           
       2.871415             0.00684510441            0.000562928645           
       2.874055             0.00659101794            0.000528008553           
       2.876696             0.00776798931            0.000588721658           
       2.879336             0.00784762265            0.000570315492           
       2.881976             0.00692244179            0.000552479254           
       2.884617             0.00748054248            0.000565883835           
       2.887257             0.00747974013            0.000568774174           
       2.889897             0.00662288631            0.000524190076           
       2.892538              0.0067177617            0.000578350705           
       2.895178             0.00802014065             0.00057090795           
       2.897819             0.00756050971            0.000565446467           
       2.900459             0.00686137457            0.000528189624           
       2.903099              0.0070499083             0.00052991673           
       2.905740             0.00641007051            0.000518370845           
       2.908380             0.00591296595            0.000503522199           
       2.911021             0.00772485894            0.000584878091           
       2.913661             0.00720022685            0.000564498812           
       2.916301             0.00664768672            0.000542924173           
       2.918942             0.00689482592            0.000528885547           
       2.921582             0.00630175094            0.000529032007           
       2.924222             0.00679537039            0.000532225241           
       2.926863             0.00742060619            0.000579316629           
       2.929503             0.00699300025            0.000569040408           
       2.932144             0.00678213187            0.000537945175           
       2.934784             0.00627131458            0.000508808057           
       2.937424             0.00755557026            0.000564214696           
       2.940065             0.00697746399            0.000517207643           
       2.942705             0.00719379842            0.000524505518           
       2.945346              0.0070699261            0.000551819864           
       2.947986              0.0070377164            0.000561382118           
       2.950626             0.00723165401             0.00056586049           
       2.953267             0.00728076021            0.000558604681           
       2.955907             0.00733880784            0.000581781007           
       2.958547             0.00694487745            0.000534287077           
       2.961188             0.00711992748            0.000564391826           
       2.963828              0.0076241856            0.000571295228           
       2.966469             0.00725872586            0.000546841591           
       2.969109             0.00626924653            0.000515734931           
       2.971749             0.00691045461            0.000538089377           
       2.974390              0.0075687623            0.000553384492           
       2.977030             0.00825534417              0.0005908551           
       2.979670             0.00924612047            0.000608231289           
       2.982311              0.0081713029            0.000592628948           
       2.984951             0.00668551335            0.000509829873           
       2.987592             0.00688282882             0.00052765976           
       2.990232             0.00635409927            0.000527261827           
       2.992872             0.00806274494            0.000559455619           
       2.995513             0.00858088038            0.000564644495           
       2.998153              0.0105828754            0.000637598222           
       3.000794              0.0128732083            0.000681136797           
       3.003434              0.0123911245            0.000669270281           
       3.006074              0.0556171526             0.00139804277           
       3.008715               0.130548134             0.00206761573           
       3.011355               0.159508555             0.00220393623           
       3.013995              0.0744627797             0.00150992946           
       3.016636              0.0528433629             0.00124557546           
       3.019276               0.120416046             0.00184825345           
       3.021917                0.49401527             0.00359965371           
       3.024557                1.81086249             0.00677584171           
       3.027197                1.09489471             0.00513674331           
       3.029838               0.500116691             0.00352090541           
       3.032478               0.258209234             0.00253247942           
       3.035118              0.0722510888             0.00135759436           
       3.037759               0.110177264              0.0016742994           
       3.040399               0.154253357             0.00204354496           
       3.043040               0.575433069             0.00399535375           
       3.045680               0.373623505             0.00302899866           
       3.048320              0.0750464147             0.00138705642           
       3.050961                0.11057514             0.00171334032           
       3.053601              0.0872036681             0.00146542374           
       3.056242              0.0602291708             0.00129484965           
       3.058882              0.0551642399             0.00132930379           
       3.061522              0.0409167674             0.00112322785           
       3.064163              0.0522001276             0.00125270686           
       3.066803               0.116051904             0.00196643394           
       3.069443               0.108845957             0.00199249578           
       3.072084              0.0443048322             0.00123781784           
       3.074724              0.0411228419             0.00133179423           
       3.077365              0.0833069439             0.00196222929           
       3.080005              0.0150362305            0.000838363995           
       3.082645             0.00976757799            0.000709842982           
       3.085286              0.0139606973            0.000855333322           
       3.087926             0.00924199693            0.000690565066           
       3.090566              0.0123129502            0.000780986078           
       3.093207              0.0093877424             0.00070962366           
       3.095847             0.00887559095            0.000661349934           
       3.098488             0.00818054595            0.000704025412           
       3.101128             0.00964499955            0.000769364845           
       3.103768             0.00992729049            0.000765857804           
       3.106409             0.00990579211             0.00081419567           
       3.109049             0.00911206812            0.000749386295           
       3.111690              0.0069573312            0.000643573862           
       3.114330              0.0086618967            0.000733374041           
       3.116970             0.00788631813            0.000705143622           
       3.119611              0.0142243734             0.00100803535           
       3.122251              0.0230982411              0.0013436751           
       3.124891              0.0324347781             0.00160707773           
       3.127532              0.0228521763             0.00131966379           
       3.130172              0.0150782646             0.00109047432           
       3.132813             0.00912995295            0.000835361658           
       3.135453             0.00816585684            0.000783517979           
       3.138093             0.00643986053            0.000753927203           
       3.140734             0.00615734951            0.000680128076           
       3.143374             0.00696149209            0.000764791938           
       3.146014             0.00612401384            0.000772222847           
       3.148655             0.00570239566            0.000692701128           
       3.151295             0.00485866449            0.000681385423           
       3.153936              0.0063253034            0.000750997744           
       3.156576             0.00676100542            0.000765871238           
       3.159216             0.00593786838            0.000721327085           
       3.161857             0.00640510191            0.000746120357           
       3.164497             0.00757041505            0.000852293832           
       3.167138             0.00624025025            0.000799527526           
       3.169778             0.00791435942            0.000885561028           
       3.172418             0.00611886249            0.000770736381           
       3.175059             0.00616604663            0.000685919885           
       3.177699              0.0067385958            0.000759321759           
       3.180339             0.00706675266            0.000833128196           
       3.182980             0.00682128398            0.000846277531           
       3.185620              0.0061123235            0.000815844977           
       3.188261             0.00655553513            0.000859983976           
       3.190901             0.00533758891            0.000713690057           
       3.193541             0.00599183837            0.000794548073           
       3.196182             0.00605538269            0.000832412197           
       3.198822             0.00479032086            0.000740620076           
       3.201463             0.00529490921            0.000765235218           
       3.204103             0.00502450051            0.000740903706           
       3.206743             0.00623723888            0.000825411934           
       3.209384             0.00535891598            0.000826615377           
       3.212024             0.00553466029            0.000783199725           
       3.214664             0.00661223613            0.000973455496           
       3.217305             0.00748989727            0.000984835132           
       3.219945             0.00521634071            0.000845926978           
       3.222586             0.00620915517            0.000879070216           
       3.225226             0.00643813897            0.000993010437           
       3.227866             0.00562328098            0.000848222823           
       3.230507             0.00701458834            0.000982044613           
       3.233147             0.00602348006            0.000917374459           
       3.235787             0.00496583904            0.000852420823           
       3.238428             0.00544650019            0.000963360575           
       3.241068              0.0061000608            0.000953305019           
       3.243709             0.00650723196             0.00101725553           
       3.246349             0.00620783895            0.000905739336           
       3.248989              0.0059026111               0.001042853           
       3.251630             0.00562865668            0.000980657547           
       3.254270              0.0046271328            0.000794651577           
       3.256911             0.00582796227            0.000973078904           
       3.259551             0.00470828818            0.000941610348           
       3.262191             0.00548941644             0.00103853211           
       3.264832             0.00535860989             0.00107210404           
       3.267472             0.00450414038            0.000922081779           
       3.270112             0.00617531357             0.00119317831           
       3.272753             0.00734632636             0.00119120288           
       3.275393             0.00542919587             0.00104488106           
       3.278034             0.00619528463             0.00111679684           
       3.280674             0.00543929255             0.00113553379           
       3.283314             0.00493013694            0.000966869722           
       3.285955             0.00383037332            0.000879318693           
       3.288595             0.00450539929              0.0010609796           
       3.291235             0.00469667122              0.0011135891           
       3.293876             0.00652180798             0.00133109869           
       3.296516             0.00600196546             0.00122589812           
       3.299157             0.00760640714             0.00136271762           
       3.301797             0.00601419996             0.00138219932           
       3.304437              0.0054763973             0.00114271545           
       3.307078             0.00748274535             0.00147139709           
       3.309718             0.00365946444             0.00106209527           
       3.312359             0.00400854641             0.00111186311           
       3.314999             0.00687843078             0.00143401725           
       3.317639              0.0038436188               0.001025201           
       3.320280             0.00523129113             0.00127163034           
       3.322920             0.00445857201             0.00119372171           
       3.325560             0.00572735035             0.00135387019           
       3.328201              0.0048936565             0.00112709035           
       3.330841             0.00535259814             0.00143462105           
       3.333482             0.00616520528             0.00145534497           
       3.336122             0.00753273172             0.00160941491           
       3.338762             0.00545741202             0.00158243309           
       3.341403             0.00374383036             0.00125238813           
       3.344043             0.00498090404             0.00138689471           
       3.346683             0.00805492918             0.00180057548           
       3.349324             0.00713737521             0.00190565006           
       3.351964             0.00964257758             0.00234226225           
       3.354605             0.00972955543             0.00269078909           
       3.357245             0.00656431257             0.00199381814           
       3.359885             0.00154288114            0.000773646786           
       3.362526             0.00414328719             0.00158543062           
       3.365166             0.00648103501             0.00187024171           
       3.367807              0.0043929579             0.00197058458           
       3.370447             0.00484605528             0.00171685795           
       3.373087             0.00624862786             0.00208477778           
       3.375728             0.00695301574              0.0024819514           
       3.378368           -2.60633092e-05                         0           
       3.381008             0.00543570452             0.00242818976           
       3.383649              0.0104899787             0.00270599173           
       3.386289              0.0127020884              0.0035241734           
       3.388930              0.0124125644             0.00551053513           
       3.391570             0.00853671689             0.00323274126           
       3.394210             0.00196263107             0.00196161968           
       3.396851             0.00489773813             0.00346630722           
       3.399491             0.00702117706             0.00415141667           
       3.402131             0.00485208968             0.00488261252           
       3.404772             0.00959191642             0.00971091878           
       3.407412                       nan                       nan           
       3.410053           -2.63263125e-05                         0           
       3.412693                       nan                       nan           
       3.415333             0.00893715752             0.00939411951           
