################################################################################
# EDF_DataBlockID                     0.Image.Psd
# EDF_BinarySize                      2105344
# EDF_HeaderSize                      2560
# ByteOrder                           LowByteFirst
# DataType                            FloatValue
# Dim_1                               512
# Dim_2                               1028
# Image                               0
# HeaderID                            EH:000000:000000:000000
# Size                                2105344
# Center_1                            304.9000
# Center_2                            588.7000
# Comment                             Xenocs_Cell_Window - 20251028_20perc_iodine_1.23mg
# DDummy                              0.6
# Date                                2025-11-01T22:33:32
# Delta                               21.910000
# Dummy                               -1.5
# ExposureTime                        360
# Gamma                               15.360000
# Intensity1                          8.76238e-10
# PSize_1                             7.5e-05
# PSize_2                             7.5e-05
# Pressure                            0.0327177
# SampleDistance                      0.115750
# SampleEnvKind                       large
# SampleEnvPN                         ElectroChemical cell
# SampleEnvSN                         1141
# Thickness                           0
# Wavelength                          1.541891e-10
# Wavelength                          1.54189e-10
# aux                                 0
# aux_dial                            0.002375
# beamx                               588.434
# beamx_dial                          588.434
# beamz                               657.808
# beamz_dial                          657.808
# det0x                               0
# det0x_dial                          6.36945
# det0xvd                             0
# det0xvd_dial                        0
# det0y                               450.002
# det0y_dial                          481.635
# det0z                               0
# det0z_dial                          1.23302
# det0zvd                             0
# det0zvd_dial                        0
# mag                                 1.818
# mag_dial                            1.818
# om                                  0.2499
# om_dial                             -0.610199
# phi                                 -0.0120535
# phi_dial                            0
# ry                                  0.599993
# ry_dial                             0.599993
# s1bot                               0.8
# s1bot_dial                          -1.66094
# s1hl                                0.8
# s1hl_dial                           -0.608437
# s1hr                                0.8
# s1hr_dial                           0.970938
# s1top                               0.8
# s1top_dial                          -0.461562
# s2bot                               0.45
# s2bot_dial                          1.36109
# s2hl                                0.45
# s2hl_dial                           -0.83375
# s2hr                                0.45
# s2hr_dial                           -0.118594
# s2top                               0.45
# s2top_dial                          1.44734
# w2theta                             32
# w2theta_dial                        32
# waxsch                              19.2605
# waxsch_dial                         -32.7355
# waxsh                               137.085
# waxsh_dial                          -43.5338
# waxsth                              26.0607
# waxsth_dial                         -19.4086
# waxsz                               67.0407
# waxsz_dial                          -23.7954
# wind                                65.9854
# wind_dial                           66.0041
# wpsi                                124
# wpsi_dial                           124
# wstod                               115
# wstod_dial                          115
# x                                   0
# x_dial                              1.00969
# z                                   0
# z_dial                              13.3172
# CountCutoff                         6807993
# DetectorModel                       Dectris EIGER2 Si 500K, S/N E-01-0554
# ThresholdSetting                    4023.88989258
# Saturation                          0
# FlatField                           Corrected
# BackgroundReductionExtra            0.02
# BackgroundCorrectionConstant        0.0026712
# Detector                            0
# Monitor                             0
# Pil_Roi0                            0
# SumForIntensity1                    3.15446e+08
# TransmittedFlux                     876238
# det                                 0
# mon                                 0
# pilai0                              3.15446e+08
# pilai1                              793521
# pilct0                              5.44937e+08
# pilct1                              793521
# pilroi0                             0
# pilroi1                             0
# sec                                 1
# title                               20251028_20perc_iodine_1.23mg_1_00947.edf
# usaxs0                              0
# Operation                           Azimuthal average I(q)
# Error_model                         ErrorModel.poisson
# Geometrical_correction              True
# Transmission_correction             True
# Thickness_correction                False
# Binning mode                        Uniform
# Binning factor                      1.0
# Psi                                 0.0
# Omega                               0.2499
# MaskInvalidPixels                   True
# DetectorEdge                        3
# MaskFiles                           ['WAXS_corrected.edf']
################################################################################
    q(A⁻¹)                Intensity(a.u.)            Sigma_I(a.u.)            
       0.693100             0.00806878167             0.00591571181           
       0.695741             0.00271880349              0.0028022034           
       0.698381              0.0083589251             0.00601864628           
       0.701021             0.00860252508             0.00863154941           
       0.703662              0.0139035357             0.00633399737           
       0.706302             0.00489265472             0.00290900648           
       0.708942             0.00280111407             0.00284091904           
       0.711583             0.00641106259             0.00372172485           
       0.714223              0.0114001776             0.00572974088           
       0.716864              0.0109494495             0.00367405878           
       0.719504             0.00862654768             0.00351913823           
       0.722144               0.007320597             0.00300218797           
       0.724785             0.00692011471             0.00232837368           
       0.727425             0.00860061307             0.00351156561           
       0.730065             0.00781777609             0.00236820292           
       0.732706             0.00601358367              0.0017441857           
       0.735346             0.00600289101             0.00227159228           
       0.737987              0.0063603487             0.00165229538           
       0.740627             0.00380366502             0.00190649136           
       0.743267             0.00981958841             0.00205174088           
       0.745908             0.00709986037             0.00189282079           
       0.748548             0.00893719316             0.00195749021           
       0.751189             0.00938904607             0.00270349948           
       0.753829              0.0105933499              0.0026397167           
       0.756469             0.00726286408              0.0017624953           
       0.759110             0.00569753135             0.00164508334           
       0.761750             0.00444032392             0.00128414047           
       0.764390              0.0081027668             0.00181562997           
       0.767031             0.00640819965             0.00139822754           
       0.769671             0.00905093922             0.00207286633           
       0.772312             0.00630817384             0.00131743031           
       0.774952              0.0110641208             0.00235610149           
       0.777592             0.00661713495             0.00132717358           
       0.780233             0.00655034687             0.00159312059           
       0.782873             0.00318115882             0.00106182222           
       0.785513              0.0080207206             0.00180247646           
       0.788154             0.00677836036             0.00138614641           
       0.790794             0.00928093255             0.00193910632           
       0.793435              0.0071685429              0.0015309869           
       0.796075             0.00727500961             0.00148572688           
       0.798715             0.00758200849             0.00179236755           
       0.801356             0.00619219807              0.0013940979           
       0.803996             0.00907567921             0.00172069199           
       0.806637             0.00577050601             0.00109189968           
       0.809277             0.00751261034             0.00134850498           
       0.811917             0.00593927125             0.00112088576           
       0.814558              0.0054887942             0.00111990995           
       0.817198              0.0078450209             0.00127199885           
       0.819838             0.00651362738             0.00117304139           
       0.822479             0.00671615033             0.00139872129           
       0.825119             0.00757566447             0.00126437258           
       0.827760             0.00758360626             0.00128143159           
       0.830400             0.00629409921             0.00109875164           
       0.833040             0.00777635778             0.00127954193           
       0.835681              0.0062736793             0.00130653982           
       0.838321              0.0065274954             0.00111858373           
       0.840961             0.00611877433             0.00117997667           
       0.843602             0.00722063371             0.00117548621           
       0.846242             0.00932388647             0.00133556057           
       0.848883             0.00704976057             0.00118844492           
       0.851523             0.00742382036             0.00120441755           
       0.854163             0.00839958488             0.00136242132           
       0.856804             0.00856992205             0.00123736233           
       0.859444             0.00854880812             0.00121088161           
       0.862085             0.00596896274             0.00105455775           
       0.864725             0.00760791612             0.00121842231           
       0.867365             0.00553825951             0.00096397891           
       0.870006             0.00773751879             0.00108577446           
       0.872646             0.00822841085             0.00117414708           
       0.875286             0.00679627454             0.00102660407           
       0.877927              0.0066286471            0.000978332105           
       0.880567             0.00667167945             0.00101685661           
       0.883208             0.00726647373             0.00105121886           
       0.885848             0.00441477077            0.000850763022           
       0.888488             0.00835341415             0.00109764219           
       0.891129             0.00775231076              0.0010857418           
       0.893769             0.00695015177            0.000983856716           
       0.896410             0.00832380801             0.00100386405           
       0.899050             0.00834932248             0.00110566822           
       0.901690             0.00570089011            0.000995208984           
       0.904331             0.00751487105             0.00101299997           
       0.906971             0.00601054638            0.000963784706           
       0.909611             0.00688992834            0.000939343688           
       0.912252             0.00708495067            0.000983879133           
       0.914892             0.00798911207             0.00114171589           
       0.917533             0.00726451199              0.0010299152           
       0.920173             0.00753256067            0.000973028415           
       0.922813             0.00662210794            0.000957388387           
       0.925454             0.00728853194            0.000904441511           
       0.928094             0.00624276968            0.000893616746           
       0.930734             0.00680108999             0.00100417765           
       0.933375             0.00811293546              0.0010859749           
       0.936015             0.00993155183             0.00109125807           
       0.938656             0.00914190392             0.00112315918           
       0.941296             0.00761028393             0.00092871741           
       0.943936             0.00828527554            0.000950282832           
       0.946577             0.00817129321            0.000937484461           
       0.949217             0.00586817446            0.000730574917           
       0.951858             0.00815765904            0.000901695521           
       0.954498             0.00760927563             0.00100800612           
       0.957138             0.00707328692             0.00092070103           
       0.959779             0.00849982715            0.000994945781           
       0.962419             0.00838318175            0.000981522761           
       0.965059             0.00737175337            0.000968030505           
       0.967700             0.00678893004            0.000951455369           
       0.970340             0.00614969439             0.00080132598           
       0.972981             0.00646592349            0.000748620736           
       0.975621             0.00864273691            0.000920753774           
       0.978261             0.00857830568            0.000871610814           
       0.980902             0.00743520878             0.00097087436           
       0.983542             0.00975114844            0.000984611398           
       0.986182             0.00643173474            0.000785093439           
       0.988823             0.00713682035            0.000803026123           
       0.991463              0.0080244235            0.000908460736           
       0.994104              0.0075263522            0.000858273373           
       0.996744             0.00845624593            0.000927937957           
       0.999384             0.00897787964            0.000855100226           
       1.002025             0.00781473723            0.000890436441           
       1.004665             0.00729046237            0.000785978512           
       1.007306             0.00838490981              0.0008385977           
       1.009946             0.00671696173            0.000765475869           
       1.012586             0.00736150686            0.000780478826           
       1.015227             0.00753485496            0.000848293367           
       1.017867             0.00882425734             0.00088227169           
       1.020507             0.00944112649            0.000883966343           
       1.023148             0.00865565107            0.000913284615           
       1.025788             0.00817837725            0.000813995172           
       1.028429             0.00870676682            0.000879911368           
       1.031069             0.00778642526            0.000783045315           
       1.033709             0.00791152859            0.000839039309           
       1.036350             0.00768151615            0.000742536879           
       1.038990             0.00834364508            0.000788099015           
       1.041630              0.0093168006            0.000868609931           
       1.044271             0.00979817839            0.000837733897           
       1.046911             0.00841811022            0.000816775316           
       1.049552             0.00936138814            0.000904927807           
       1.052192             0.00848323995            0.000786603283           
       1.054832             0.00891035059            0.000813495447           
       1.057473             0.00852583401            0.000784440629           
       1.060113             0.00844744526            0.000761517796           
       1.062754              0.0103861298            0.000862109594           
       1.065394             0.00838687838            0.000819062352           
       1.068034             0.00788103014            0.000722410805           
       1.070675             0.00830261184            0.000773455922           
       1.073315             0.00836935716            0.000787689578           
       1.075955             0.00859576545            0.000753615151           
       1.078596             0.00849564702            0.000796265275           
       1.081236             0.00895141327            0.000782661072           
       1.083877             0.00907151817            0.000780826316           
       1.086517             0.00849402399            0.000810185608           
       1.089157             0.00841167864            0.000836573528           
       1.091798             0.00849316909            0.000736981926           
       1.094438             0.00934483188            0.000770555134           
       1.097078             0.00846556328            0.000703415648           
       1.099719              0.0089702544            0.000783203088           
       1.102359              0.0097816605            0.000765934501           
       1.105000             0.00787975724            0.000768704207           
       1.107640             0.00898039891             0.00078466162           
       1.110280              0.0101022913            0.000759348452           
       1.112921             0.00935655957            0.000785020449           
       1.115561             0.00895676953            0.000729982486           
       1.118202             0.00929806988             0.00074446138           
       1.120842             0.00956820431            0.000793718279           
       1.123482             0.00854594591            0.000746844597           
       1.126123             0.00827231514            0.000704787488           
       1.128763             0.00858709939            0.000722995167           
       1.131403             0.00825390379            0.000683018038           
       1.134044             0.00916127374             0.00074045182           
       1.136684             0.00857398362            0.000763726818           
       1.139325             0.00929773985            0.000732636936           
       1.141965             0.00941213405            0.000742003217           
       1.144605             0.00892014126            0.000688762743           
       1.147246             0.00810247742            0.000671805937           
       1.149886             0.00879763551            0.000697546944           
       1.152527              0.0086330869            0.000701041205           
       1.155167             0.00866179622            0.000667904758           
       1.157807              0.0093651155            0.000744618949           
       1.160448             0.00966624776            0.000738737439           
       1.163088             0.00836922996            0.000655669948           
       1.165728             0.00882133615             0.00069113243           
       1.168369             0.00881127961             0.00069711981           
       1.171009              0.0104749239            0.000737643928           
       1.173650             0.00951260139            0.000721388572           
       1.176290             0.00871470318            0.000674745781           
       1.178930             0.00857656308            0.000656050003           
       1.181571             0.00864943378            0.000671896029           
       1.184211              0.0102334844            0.000733427354           
       1.186851              0.0099989219            0.000708795805           
       1.189492             0.00947408561            0.000685301379           
       1.192132             0.00900025923            0.000660450279           
       1.194773              0.0093860895            0.000677404966           
       1.197413             0.00975187075            0.000661575914           
       1.200053              0.0103466979            0.000698768796           
       1.202694              0.0110893255            0.000687922587           
       1.205334             0.00937069101            0.000681499375           
       1.207975             0.00938125687            0.000650877009           
       1.210615             0.00839378393            0.000679187552           
       1.213255             0.00998317373            0.000663284067           
       1.215896               0.010874463            0.000704802926           
       1.218536              0.0103945295            0.000662574667           
       1.221176              0.0094308726            0.000686151245           
       1.223817             0.00887779842            0.000624929786           
       1.226457              0.0107108311            0.000700249202           
       1.229098             0.00983417096            0.000670947833           
       1.231738             0.00992942201            0.000677507426           
       1.234378             0.00994120219            0.000636997582           
       1.237019              0.0098740982            0.000654200781           
       1.239659              0.0121030122            0.000717975056           
       1.242299              0.0091099705            0.000614989901           
       1.244940              0.0102467041            0.000634335774           
       1.247580              0.0107537429            0.000669714015           
       1.250221              0.0105365872            0.000658827152           
       1.252861             0.00932676037            0.000590100601           
       1.255501              0.0112761398            0.000704521507           
       1.258142              0.0090100814            0.000591777025           
       1.260782              0.0104175384            0.000650089304           
       1.263423              0.0106579577            0.000631829257           
       1.266063              0.0117526911            0.000680053557           
       1.268703              0.0100427343            0.000623421258           
       1.271344              0.0107849622            0.000667943264           
       1.273984              0.0111461325            0.000655814161           
       1.276624             0.00968743868            0.000599910788           
       1.279265              0.0100607122            0.000621511918           
       1.281905                0.01187785            0.000678308434           
       1.284546              0.0119731074            0.000658270425           
       1.287186              0.0104398891            0.000603065978           
       1.289826             0.00956740714            0.000608444381           
       1.292467              0.0102176409            0.000614931106           
       1.295107              0.0106599991            0.000621862048           
       1.297747              0.0111884062            0.000609640521           
       1.300388              0.0102487526             0.00063606575           
       1.303028             0.00995906253            0.000598583127           
       1.305669              0.0104439511             0.00062757757           
       1.308309               0.011182555             0.00064299492           
       1.310949              0.0105400602             0.00062362267           
       1.313590              0.0101556837            0.000593010889           
       1.316230              0.0101623346            0.000633032148           
       1.318871              0.0108768831            0.000641403384           
       1.321511              0.0110437621             0.00063432559           
       1.324151              0.0116186277            0.000631336917           
       1.326792             0.00989398273            0.000586200329           
       1.329432              0.0100338284             0.00058616276           
       1.332072              0.0107825155            0.000598582346           
       1.334713             0.00959601756            0.000582815153           
       1.337353              0.0116043785            0.000614644359           
       1.339994              0.0108090161            0.000622511324           
       1.342634              0.0124875473            0.000641627417           
       1.345274              0.0112164383            0.000629321749           
       1.347915              0.0113771673            0.000616312014           
       1.350555              0.0106055939            0.000605468265           
       1.353195              0.0121721045            0.000651830293           
       1.355836              0.0107529417            0.000603100915           
       1.358476              0.0113249385            0.000601078784           
       1.361117              0.0115497173            0.000607847821           
       1.363757              0.0118380133            0.000634177975           
       1.366397              0.0112756312            0.000600201314           
       1.369038              0.0119884182            0.000625043774           
       1.371678              0.0106495584            0.000583914888           
       1.374319              0.0114436964            0.000600082652           
       1.376959               0.011779027            0.000602688642           
       1.379599              0.0113894971            0.000635130047           
       1.382240              0.0119283756            0.000610885098           
       1.384880              0.0118542132            0.000645051482           
       1.387520              0.0117891699            0.000610942268           
       1.390161              0.0117511967             0.00057931314           
       1.392801              0.0106157884            0.000573688013           
       1.395442              0.0105182876            0.000578846612           
       1.398082              0.0104773972            0.000541009951           
       1.400722             0.00985802338            0.000549690187           
       1.403363               0.012280831            0.000645816556           
       1.406003              0.0113857615            0.000581955615           
       1.408644              0.0102074673            0.000577229885           
       1.411284              0.0112453789             0.00057370171           
       1.413924             0.00978359579            0.000533132691           
       1.416565              0.0118411101            0.000584215338           
       1.419205              0.0107217111            0.000579908589           
       1.421845              0.0109889988            0.000586747799           
       1.424486              0.0119262194            0.000587558425           
       1.427126              0.0107701739            0.000580023681           
       1.429767              0.0116016204            0.000566405174           
       1.432407              0.0104374705            0.000562230556           
       1.435047              0.0118244575            0.000562017421           
       1.437688              0.0119190036            0.000572696512           
       1.440328              0.0108782753             0.00055839994           
       1.442968               0.011303653            0.000581966455           
       1.445609              0.0106925929            0.000548062162           
       1.448249              0.0104245028            0.000554849403           
       1.450890              0.0101629892            0.000544269835           
       1.453530              0.0110890598             0.00059479332           
       1.456170              0.0102640786            0.000555372972           
       1.458811               0.011430299            0.000560417836           
       1.461451              0.0104288088            0.000536708257           
       1.464092              0.0113584195            0.000563780401           
       1.466732              0.0108081709            0.000545229056           
       1.469372              0.0111474385             0.00054076153           
       1.472013              0.0108315903            0.000574900326           
       1.474653              0.0122537531            0.000602045409           
       1.477293              0.0103038306            0.000563705657           
       1.479934              0.0109740065            0.000555110077           
       1.482574              0.0105360438            0.000526157933           
       1.485215              0.0108213241            0.000543165242           
       1.487855              0.0113621549            0.000563915099           
       1.490495               0.010792033            0.000547561091           
       1.493136              0.0118027257            0.000564778439           
       1.495776              0.0115825199            0.000556937519           
       1.498416              0.0115542955            0.000574457728           
       1.501057              0.0113311999            0.000556347374           
       1.503697              0.0112489871            0.000541941525           
       1.506338              0.0110812737            0.000547715463           
       1.508978              0.0106343815            0.000531280844           
       1.511618              0.0104733586            0.000561511487           
       1.514259                0.01159098            0.000570304691           
       1.516899             0.00967199043             0.00050724283           
       1.519540              0.0101392396            0.000527725569           
       1.522180             0.00974489629            0.000521906192           
       1.524820              0.0111265325            0.000554549479           
       1.527461              0.0102998945            0.000536190798           
       1.530101              0.0108353483            0.000544451414           
       1.532741              0.0111108968            0.000548131212           
       1.535382              0.0101909902            0.000533401332           
       1.538022              0.0109314422            0.000520427149           
       1.540663              0.0109076897            0.000559143074           
       1.543303              0.0101348938            0.000500444249           
       1.545943              0.0108941577            0.000549165816           
       1.548584               0.010897576            0.000559111382           
       1.551224              0.0106126669              0.0005101489           
       1.553864              0.0106616064            0.000540309143           
       1.556505              0.0117236739            0.000547332989           
       1.559145              0.0103910821            0.000521600372           
       1.561786              0.0116958212            0.000553805431           
       1.564426              0.0104325756            0.000506774468           
       1.567066              0.0104600722            0.000531701646           
       1.569707              0.0100981983            0.000513039023           
       1.572347             0.00956295175            0.000515782717           
       1.574988              0.0106265184            0.000517519545           
       1.577628             0.00974499035            0.000516777493           
       1.580268              0.0100471942            0.000508406768           
       1.582909             0.00985142694            0.000533615048           
       1.585549             0.00986311021            0.000518430298           
       1.588189              0.0107159602             0.00052858565           
       1.590830              0.0103467078            0.000518746865           
       1.593470             0.00892652923            0.000500910644           
       1.596111             0.00982927949            0.000513177747           
       1.598751             0.00923155597            0.000481895846           
       1.601391             0.00938037831            0.000496481955           
       1.604032             0.00996031451            0.000522294219           
       1.606672              0.0104477061            0.000519725959           
       1.609312             0.00945770356            0.000516188862           
       1.611953             0.00927434539            0.000500202559           
       1.614593             0.00970942577            0.000502036155           
       1.617234              0.0090160513            0.000501376605           
       1.619874             0.00964607652            0.000516549872           
       1.622514             0.00941410184            0.000503339666           
       1.625155             0.00964271007             0.00051242382           
       1.627795             0.00890441754             0.00048035132           
       1.630436             0.00992282502            0.000504429195           
       1.633076             0.00958390978            0.000502241763           
       1.635716              0.0098008059            0.000499990769           
       1.638357             0.00949420832            0.000493405172           
       1.640997              0.0100697527            0.000523533001           
       1.643637             0.00948740565            0.000494505971           
       1.646278             0.00906429287            0.000498540402           
       1.648918             0.00915385427            0.000502363997           
       1.651559              0.0090028498            0.000502069993           
       1.654199             0.00888077757            0.000484985322           
       1.656839              0.0100200475            0.000515334906           
       1.659480             0.00853650215            0.000493519667           
       1.662120             0.00925926041             0.00048409164           
       1.664761             0.00923893711            0.000502294106           
       1.667401             0.00891048181            0.000471474581           
       1.670041             0.00902259719            0.000481665462           
       1.672682             0.00892616601             0.00047711547           
       1.675322             0.00879062499            0.000470434489           
       1.677962             0.00920741834             0.00047614669           
       1.680603             0.00832942044            0.000454269527           
       1.683243              0.0089531837            0.000491371302           
       1.685884             0.00787329394            0.000464188736           
       1.688524              0.0096052266            0.000502797375           
       1.691164             0.00936247421            0.000496515801           
       1.693805             0.00875058841            0.000485289916           
       1.696445             0.00886409041            0.000491260298           
       1.699085             0.00914496079            0.000482262745           
       1.701726             0.00832067777            0.000443144301           
       1.704366             0.00822851753              0.0004642478           
       1.707007             0.00866198393            0.000465701159           
       1.709647             0.00836266225            0.000462751621           
       1.712287             0.00875432662            0.000477585235           
       1.714928             0.00884452444            0.000483909626           
       1.717568             0.00838320917            0.000443797551           
       1.720209             0.00916932569            0.000486153843           
       1.722849              0.0090372434            0.000480158368           
       1.725489             0.00874099375            0.000472619283           
       1.728130             0.00813764022            0.000484617436           
       1.730770             0.00852405842            0.000471057289           
       1.733410             0.00835130336            0.000458930306           
       1.736051             0.00827486692            0.000460004979           
       1.738691             0.00987465742            0.000492321582           
       1.741332             0.00748518147            0.000441169983           
       1.743972             0.00924052494            0.000506191205           
       1.746612             0.00844647816            0.000464719238           
       1.749253             0.00811316264            0.000464452108           
       1.751893             0.00818012913            0.000462941772           
       1.754533             0.00896218505            0.000484113813           
       1.757174             0.00956217958            0.000495373604           
       1.759814             0.00795946778            0.000445105502           
       1.762455             0.00885220617            0.000478023164           
       1.765095             0.00814454754            0.000438628491           
       1.767735             0.00818665091            0.000453327391           
       1.770376             0.00869970384            0.000468548413           
       1.773016             0.00886125475            0.000469711335           
       1.775657             0.00893361104              0.0004648391           
       1.778297             0.00807075989            0.000438016527           
       1.780937             0.00889798032            0.000485441714           
       1.783578             0.00845488556             0.00046136853           
       1.786218             0.00893586122            0.000494994409           
       1.788858             0.00928373269            0.000479188829           
       1.791499             0.00923174906            0.000472478707           
       1.794139              0.0083722243             0.00044629579           
       1.796780             0.00919561067            0.000465472357           
       1.799420             0.00816618494            0.000436215921           
       1.802060             0.00941571411            0.000472185203           
       1.804701             0.00933602522            0.000451208822           
       1.807341             0.00882617835            0.000460994508           
       1.809981             0.00969741685             0.00048482274           
       1.812622             0.00865987741            0.000449905058           
       1.815262             0.00840507042            0.000452652035           
       1.817903              0.0086620022            0.000452709814           
       1.820543              0.0079996368            0.000441835903           
       1.823183             0.00850378134            0.000455295222           
       1.825824             0.00830300692            0.000429805109           
       1.828464             0.00855998446            0.000454971754           
       1.831105             0.00841490713             0.00043862783           
       1.833745             0.00825079262            0.000443605489           
       1.836385             0.00784011534            0.000444765233           
       1.839026             0.00807003896            0.000449814155           
       1.841666             0.00878448253            0.000467638953           
       1.844306             0.00770229119            0.000425939532           
       1.846947             0.00742421575            0.000421845671           
       1.849587             0.00830167439            0.000492578644           
       1.852228             0.00879229091            0.000458385869           
       1.854868             0.00842362302            0.000473956364           
       1.857508             0.00751776826            0.000443356238           
       1.860149             0.00851519173            0.000480424624           
       1.862789             0.00800350669            0.000449572336           
       1.865429             0.00747851958            0.000453632423           
       1.868070             0.00766047781            0.000452998638           
       1.870710             0.00870186111            0.000471677696           
       1.873351             0.00808723535            0.000460336343           
       1.875991             0.00766033652            0.000455333609           
       1.878631              0.0080543571             0.00045795504           
       1.881272             0.00869576821            0.000472652209           
       1.883912             0.00803894868            0.000472951617           
       1.886553             0.00782981316            0.000461540718           
       1.889193             0.00742928925            0.000448812824           
       1.891833             0.00782178449             0.00047826363           
       1.894474             0.00804704598            0.000480876817           
       1.897114             0.00825847106            0.000471407836           
       1.899754             0.00847635405             0.00047958418           
       1.902395             0.00815573392            0.000461229152           
       1.905035             0.00773393828            0.000475718745           
       1.907676             0.00782443247            0.000450981838           
       1.910316             0.00884370225            0.000492187426           
       1.912956             0.00820437304             0.00046363366           
       1.915597             0.00826134457            0.000467840788           
       1.918237             0.00702793965            0.000445640588           
       1.920878             0.00856544953            0.000489964157           
       1.923518             0.00883480784            0.000497819626           
       1.926158             0.00813460974            0.000471486565           
       1.928799             0.00848093393            0.000475845976           
       1.931439             0.00836917469            0.000485098745           
       1.934079             0.00799397198            0.000494237802           
       1.936720             0.00731169542            0.000437948189           
       1.939360             0.00814717521            0.000493202052           
       1.942001              0.0075675483            0.000435668033           
       1.944641             0.00802082442            0.000457360931           
       1.947281             0.00791224631            0.000450067637           
       1.949922             0.00837783483            0.000478362266           
       1.952562             0.00842049125            0.000494611217           
       1.955202             0.00746925525            0.000465269073           
       1.957843             0.00876239029            0.000490869124           
       1.960483             0.00752726419            0.000475659832           
       1.963124             0.00691867086            0.000446670052           
       1.965764             0.00768627852            0.000443974629           
       1.968404             0.00837294208            0.000459003764           
       1.971045             0.00768868123             0.00044844869           
       1.973685             0.00820599583            0.000485956124           
       1.976326             0.00791012209            0.000470557591           
       1.978966              0.0079531289            0.000475975806           
       1.981606             0.00812455435            0.000491111355           
       1.984247             0.00782250376            0.000478727515           
       1.986887             0.00785790814            0.000474062083           
       1.989527              0.0081757886            0.000478348176           
       1.992168             0.00757887987            0.000477865181           
       1.994808             0.00770370426             0.00047971913           
       1.997449             0.00753367595            0.000464653217           
       2.000089             0.00719788291            0.000452379183           
       2.002729              0.0079189849            0.000474783126           
       2.005370             0.00744968673            0.000455545044           
       2.008010             0.00752356185            0.000477778031           
       2.010650             0.00877145897            0.000519731392           
       2.013291             0.00825189032            0.000483659453           
       2.015931             0.00845174383            0.000486021225           
       2.018572             0.00770084434            0.000496215623           
       2.021212             0.00757498414            0.000483301706           
       2.023852             0.00836998098            0.000480826841           
       2.026493             0.00683576878            0.000453944296           
       2.029133             0.00742878432            0.000463701885           
       2.031774             0.00739998543            0.000485700628           
       2.034414             0.00779957528            0.000458819757           
       2.037054               0.007309968            0.000455444137           
       2.039695             0.00804845877            0.000474287036           
       2.042335             0.00736580101            0.000471522243           
       2.044975             0.00700496988            0.000454251458           
       2.047616             0.00735711336            0.000464372786           
       2.050256             0.00775640198            0.000481319922           
       2.052897             0.00696300058            0.000464446252           
       2.055537             0.00708897928             0.00045291205           
       2.058177             0.00776830068            0.000464287862           
       2.060818               0.007267393             0.00047043517           
       2.063458              0.0083836145            0.000526544678           
       2.066098             0.00720762683            0.000460555174           
       2.068739             0.00697044002            0.000459953953           
       2.071379             0.00750731629            0.000489787812           
       2.074020             0.00708718233            0.000465543128           
       2.076660             0.00723622445            0.000474215596           
       2.079300             0.00736491006            0.000490135723           
       2.081941             0.00865273088            0.000486431417           
       2.084581             0.00715306271            0.000466824122           
       2.087222             0.00750532803            0.000461159655           
       2.089862             0.00778940881            0.000511690604           
       2.092502             0.00666220371             0.00045872035           
       2.095143             0.00758386741            0.000505402498           
       2.097783             0.00810849427            0.000505956282           
       2.100423             0.00673725907            0.000444403752           
       2.103064             0.00703662533            0.000471262259           
       2.105704             0.00693092599            0.000465392693           
       2.108345             0.00795968418            0.000479153181           
       2.110985              0.0077388094            0.000504619711           
       2.113625             0.00689927051            0.000480620323           
       2.116266             0.00751858753            0.000508846731           
       2.118906             0.00744802052            0.000471985977           
       2.121546             0.00742028714            0.000462111545           
       2.124187             0.00795517969            0.000502253531           
       2.126827               0.007167041            0.000482045626           
       2.129468              0.0079600615            0.000509312498           
       2.132108             0.00743527671            0.000478909621           
       2.134748             0.00721858026             0.00047004847           
       2.137389             0.00803324646            0.000517308981           
       2.140029             0.00733052477            0.000442406692           
       2.142670             0.00801598489            0.000494421292           
       2.145310             0.00782941046            0.000475595753           
       2.147950             0.00683100575            0.000457242022           
       2.150591             0.00798858376            0.000489471458           
       2.153231             0.00668534344            0.000460908903           
       2.155871             0.00768228707            0.000477315487           
       2.158512             0.00720363419            0.000482279748           
       2.161152             0.00790904175            0.000489505495           
       2.163793              0.0075150522            0.000475009259           
       2.166433             0.00760823247            0.000490799208           
       2.169073              0.0077588703            0.000484599639           
       2.171714             0.00736565798            0.000468630835           
       2.174354             0.00709938642             0.00048074347           
       2.176995             0.00769099199            0.000498267894           
       2.179635             0.00831336883            0.000547416893           
       2.182275             0.00822190532            0.000513997369           
       2.184916             0.00825924645            0.000497580787           
       2.187556             0.00831996971            0.000494401106           
       2.190196             0.00693722052            0.000471760965           
       2.192837             0.00736135053            0.000483324303           
       2.195477              0.0072612861            0.000457649776           
       2.198118             0.00750123453            0.000477068598           
       2.200758             0.00747847871             0.00048870047           
       2.203398             0.00675172348            0.000467318458           
       2.206039             0.00680507594            0.000444021369           
       2.208679             0.00688493185            0.000457013078           
       2.211319             0.00680383079            0.000456932978           
       2.213960             0.00770611289            0.000492803313           
       2.216600             0.00773139199            0.000510629516           
       2.219241             0.00751939868            0.000481286573           
       2.221881             0.00792170364            0.000495009465           
       2.224521              0.0069402385            0.000469008638           
       2.227162             0.00721604828            0.000468661779           
       2.229802             0.00722781098             0.00048372653           
       2.232443             0.00670521084            0.000458561985           
       2.235083              0.0067814614            0.000474764978           
       2.237723             0.00728527645            0.000472226912           
       2.240364             0.00674882962             0.00046570559           
       2.243004             0.00768504536            0.000492991881           
       2.245644             0.00742631014            0.000489472751           
       2.248285              0.0064812251             0.00044810728           
       2.250925              0.0073483098            0.000480039927           
       2.253566             0.00704768476            0.000502592116           
       2.256206             0.00789240551            0.000521225185           
       2.258846             0.00700741974            0.000467204034           
       2.261487             0.00734823255            0.000502157313           
       2.264127             0.00734367468            0.000484825155           
       2.266767             0.00782706447            0.000513862855           
       2.269408             0.00736459755            0.000500491947           
       2.272048             0.00776994771             0.00051101248           
       2.274689             0.00769095386            0.000515107171           
       2.277329             0.00672620293            0.000453568125           
       2.279969             0.00790723942            0.000523470593           
       2.282610             0.00736819259            0.000491258707           
       2.285250             0.00705661784            0.000460152384           
       2.287891             0.00708970462            0.000494508087           
       2.290531             0.00716185327            0.000503699165           
       2.293171             0.00712735597            0.000489465427           
       2.295812             0.00637033125            0.000460881812           
       2.298452             0.00648817636             0.00048639737           
       2.301092             0.00679469221             0.00046247466           
       2.303733             0.00742756268            0.000503043339           
       2.306373              0.0075993599            0.000516840976           
       2.309014             0.00725278996            0.000495068336           
       2.311654             0.00703822671              0.0005089281           
       2.314294             0.00766240439            0.000489226698           
       2.316935             0.00739870674            0.000482720874           
       2.319575             0.00692023439            0.000489152111           
       2.322215             0.00788768653            0.000544247479           
       2.324856             0.00677294621            0.000463674449           
       2.327496             0.00688978521            0.000497265961           
       2.330137             0.00710290474            0.000483149876           
       2.332777             0.00810292135            0.000532093877           
       2.335417             0.00681615226            0.000473451792           
       2.338058             0.00652249086            0.000476975632           
       2.340698             0.00786533227             0.00051966282           
       2.343339             0.00663086781            0.000487642681           
       2.345979             0.00708759839            0.000476972923           
       2.348619             0.00720945458            0.000498640025           
       2.351260             0.00697229429            0.000487512864           
       2.353900             0.00762317298            0.000508145606           
       2.356540              0.0081418589            0.000524402971           
       2.359181             0.00726209933            0.000488318049           
       2.361821              0.0073912725            0.000475878886           
       2.364462             0.00721723352            0.000491815192           
       2.367102             0.00754098219            0.000516630397           
       2.369742             0.00658930493             0.00050831907           
       2.372383             0.00614427073            0.000444466511           
       2.375023              0.0068911189            0.000494812876           
       2.377663             0.00663060666            0.000464084801           
       2.380304             0.00644328093            0.000465110215           
       2.382944             0.00811601791            0.000497192302           
       2.385585             0.00694862688            0.000490648269           
       2.388225             0.00737701903            0.000503171097           
       2.390865             0.00736870276            0.000497721624           
       2.393506              0.0066298587            0.000463203014           
       2.396146             0.00734677312            0.000527219804           
       2.398787             0.00758728579             0.00049376299           
       2.401427             0.00711627972            0.000461565005           
       2.404067             0.00783188075             0.00049501703           
       2.406708             0.00681267302            0.000456148766           
       2.409348             0.00669675451            0.000479701082           
       2.411988             0.00673003078            0.000471167216           
       2.414629             0.00747385909            0.000511986187           
       2.417269             0.00807547357            0.000538407283           
       2.419910             0.00674862966            0.000493334306           
       2.422550             0.00650516505            0.000463399816           
       2.425190              0.0063928468            0.000484236455           
       2.427831             0.00783051385            0.000532914155           
       2.430471             0.00712924599             0.00048443663           
       2.433112             0.00681379031             0.00046117124           
       2.435752             0.00691820395            0.000491788444           
       2.438392             0.00738678642             0.00049048833           
       2.441033             0.00642601363            0.000484836416           
       2.443673             0.00784913977            0.000536252329           
       2.446313              0.0068582158            0.000501702747           
       2.448954             0.00684881139            0.000477363514           
       2.451594             0.00687166408            0.000514132947           
       2.454235              0.0080313087            0.000521505231           
       2.456875             0.00691651071            0.000506395116           
       2.459515             0.00808784389            0.000561774514           
       2.462156             0.00765505709            0.000516007402           
       2.464796             0.00762957513            0.000508501591           
       2.467436             0.00713267073            0.000508438107           
       2.470077             0.00728906732            0.000487161731           
       2.472717             0.00696588394            0.000478302345           
       2.475358             0.00816406605            0.000523205882           
       2.477998             0.00816717281            0.000514483241           
       2.480638             0.00693170938            0.000482397205           
       2.483279             0.00815021329            0.000546703221           
       2.485919             0.00772701216            0.000513012216           
       2.488560             0.00742145284            0.000501361742           
       2.491200             0.00697978173            0.000500672138           
       2.493840             0.00680480327            0.000523093965           
       2.496481             0.00749889113            0.000540141557           
       2.499121             0.00640097874            0.000485392639           
       2.501761             0.00702177508            0.000515121705           
       2.504402             0.00719338031            0.000513760935           
       2.507042             0.00694572782            0.000501099826           
       2.509683             0.00672152176            0.000485411868           
       2.512323              0.0076918781            0.000545361941           
       2.514963             0.00704612514            0.000515519277           
       2.517604             0.00723410854            0.000542019262           
       2.520244             0.00774729722            0.000525859159           
       2.522884              0.0081122437            0.000545797646           
       2.525525              0.0100723546            0.000615075219           
       2.528165             0.00801024756            0.000539961421           
       2.530806             0.00893853127            0.000580333291           
       2.533446             0.00720846023            0.000510029823           
       2.536086             0.00765505867            0.000520887551           
       2.538727             0.00803751031            0.000512043269           
       2.541367             0.00767623418            0.000505332315           
       2.544008             0.00740391837            0.000512544358           
       2.546648             0.00726209774            0.000516318685           
       2.549288             0.00625986376            0.000489135746           
       2.551929             0.00732460455             0.00052066761           
       2.554569             0.00665325615            0.000478078907           
       2.557209             0.00734645839            0.000506981057           
       2.559850             0.00724273589            0.000505005865           
       2.562490             0.00668928369            0.000501612036           
       2.565131             0.00732382935             0.00054420321           
       2.567771             0.00827318089              0.0005576644           
       2.570411             0.00757704026            0.000527912377           
       2.573052             0.00769292688             0.00053863309           
       2.575692             0.00745023421            0.000526858907           
       2.578332             0.00657113614            0.000496846017           
       2.580973             0.00679785968            0.000500536468           
       2.583613             0.00758470792             0.00051612274           
       2.586254             0.00746447128            0.000511303898           
       2.588894             0.00699127216            0.000513859301           
       2.591534             0.00680221749            0.000524699264           
       2.594175             0.00610332321            0.000487634806           
       2.596815             0.00803992174            0.000562976946           
       2.599456             0.00683788746            0.000492344735           
       2.602096             0.00603726845            0.000466145155           
       2.604736             0.00719830919             0.00052106758           
       2.607377             0.00653220438            0.000483292547           
       2.610017             0.00658408166            0.000476716888           
       2.612657              0.0067519338            0.000513483019           
       2.615298             0.00625331452            0.000482455113           
       2.617938             0.00793426204            0.000581346531           
       2.620579              0.0067126917            0.000513330204           
       2.623219              0.0073229608            0.000535392527           
       2.625859             0.00766385938            0.000532530255           
       2.628500             0.00656448716            0.000489626511           
       2.631140             0.00665212115            0.000500478363           
       2.633780             0.00730323772             0.00052394445           
       2.636421             0.00721797097            0.000533686252           
       2.639061              0.0069591204            0.000493313416           
       2.641702             0.00631794624            0.000480920495           
       2.644342             0.00741893499            0.000523362607           
       2.646982             0.00658447011            0.000485680537           
       2.649623             0.00661109938            0.000510001872           
       2.652263             0.00596983482            0.000479773153           
       2.654904             0.00734642155            0.000532757291           
       2.657544             0.00653988646            0.000473456041           
       2.660184              0.0064415653            0.000497273654           
       2.662825              0.0069117485            0.000527052854           
       2.665465             0.00646068741            0.000492833262           
       2.668105             0.00857588144            0.000598489365           
       2.670746             0.00637713268            0.000476761863           
       2.673386             0.00823143265            0.000558223708           
       2.676027             0.00877023943            0.000566956361           
       2.678667              0.0105515244            0.000606792324           
       2.681307              0.0114448595            0.000620933951           
       2.683948              0.0136400551            0.000696482924           
       2.686588              0.0119127559            0.000640097279           
       2.689229              0.0102959956            0.000581485801           
       2.691869             0.00971068471            0.000596848348           
       2.694509             0.00826366565            0.000550888887           
       2.697150             0.00786288119            0.000528645722           
       2.699790             0.00706364414            0.000525287659           
       2.702430             0.00713254135            0.000504554659           
       2.705071             0.00756902578            0.000537077837           
       2.707711             0.00783366342            0.000530308718           
       2.710352             0.00647979568            0.000509621705           
       2.712992             0.00673652791            0.000529227127           
       2.715632              0.0073070447            0.000511387421           
       2.718273             0.00691386144            0.000515528176           
       2.720913             0.00664426909            0.000503939275           
       2.723553             0.00713502337            0.000525722388           
       2.726194             0.00777969524            0.000573843307           
       2.728834             0.00725173306            0.000554289488           
       2.731475             0.00742503036            0.000517636982           
       2.734115             0.00719668571            0.000525431417           
       2.736755             0.00764424446            0.000545980351           
       2.739396             0.00731454458            0.000530982028           
       2.742036             0.00657617212            0.000526912308           
       2.744677             0.00726917207            0.000537513495           
       2.747317              0.0070022611              0.0005237911           
       2.749957              0.0066222149            0.000512953218           
       2.752598             0.00779424552             0.00056253685           
       2.755238             0.00743993484            0.000559523811           
       2.757878             0.00765357362            0.000562538565           
       2.760519             0.00890771759            0.000600445889           
       2.763159             0.00946764651            0.000612843851           
       2.765800             0.00796298517            0.000535614791           
       2.768440             0.00767857489            0.000529837376           
       2.771080             0.00925073543             0.00058640878           
       2.773721             0.00758385882            0.000544651301           
       2.776361             0.00711098373            0.000534673718           
       2.779001              0.0077396671             0.00057766723           
       2.781642             0.00653121946            0.000526746114           
       2.784282             0.00757589281            0.000576639708           
       2.786923             0.00643344594            0.000536063944           
       2.789563             0.00682235397            0.000531668764           
       2.792203             0.00679463674            0.000506862728           
       2.794844             0.00684848522            0.000557710188           
       2.797484             0.00653616312            0.000514200499           
       2.800125             0.00657319015            0.000542211311           
       2.802765             0.00655389556             0.00053210077           
       2.805405              0.0067793833             0.00054300854           
       2.808046             0.00578966769             0.00051063049           
       2.810686             0.00676064838            0.000507031161           
       2.813326             0.00718373779            0.000542895054           
       2.815967             0.00772429111            0.000578956482           
       2.818607             0.00731877629            0.000537785384           
       2.821248             0.00695703593            0.000513441077           
       2.823888             0.00787251852            0.000566948083           
       2.826528              0.0064993651            0.000498883776           
       2.829169             0.00791770879            0.000576759117           
       2.831809             0.00735052389            0.000563276183           
       2.834449             0.00663648661            0.000538601216           
       2.837090             0.00631911896            0.000507612493           
       2.839730             0.00789025895            0.000564448152           
       2.842371             0.00756607954            0.000553528798           
       2.845011             0.00620897876            0.000505432179           
       2.847651             0.00702188166            0.000538161478           
       2.850292             0.00736975502            0.000556741795           
       2.852932             0.00697438831            0.000553405448           
       2.855573             0.00594451677            0.000495601949           
       2.858213             0.00674621845            0.000554427017           
       2.860853             0.00704265938            0.000526954049           
       2.863494             0.00662025648            0.000528972864           
       2.866134             0.00783464575            0.000598106292           
       2.868774             0.00576522171            0.000504242727           
       2.871415             0.00641087839            0.000540011526           
       2.874055             0.00640271294            0.000515855038           
       2.876696             0.00850619915            0.000610666965           
       2.879336             0.00743628517            0.000550307055           
       2.881976              0.0065476106            0.000532609232           
       2.884617             0.00743331261            0.000559155872           
       2.887257             0.00845739345            0.000599509171           
       2.889897             0.00737076487            0.000548153729           
       2.892538             0.00675331937            0.000574802392           
       2.895178             0.00739717183            0.000543486677           
       2.897819              0.0072271996            0.000548001733           
       2.900459             0.00686845619            0.000523835368           
       2.903099             0.00625565186            0.000494803921           
       2.905740             0.00712563506             0.00054175372           
       2.908380             0.00707310514            0.000545885979           
       2.911021             0.00810143094            0.000593720291           
       2.913661             0.00703445936            0.000553077837           
       2.916301             0.00746068466              0.0005701304           
       2.918942             0.00632654506            0.000502185651           
       2.921582             0.00729145799              0.0005640784           
       2.924222             0.00725454445             0.00054509842           
       2.926863             0.00809814243            0.000599887701           
       2.929503             0.00750101617            0.000584187603           
       2.932144             0.00818241672            0.000585701921           
       2.934784             0.00750587815             0.00055176785           
       2.937424             0.00666633039            0.000525333549           
       2.940065             0.00660225968             0.00049870461           
       2.942705             0.00729329355            0.000523496432           
       2.945346             0.00728899816            0.000555398578           
       2.947986             0.00672665945            0.000544030645           
       2.950626             0.00670370883             0.00054004391           
       2.953267             0.00766964955            0.000568309502           
       2.955907             0.00652770402            0.000543886098           
       2.958547             0.00734197317             0.00054453992           
       2.961188             0.00716778694            0.000561327635           
       2.963828              0.0075297674            0.000562776037           
       2.966469             0.00750095014            0.000551023893           
       2.969109               0.006667436            0.000527204673           
       2.971749             0.00625680157            0.000507525947           
       2.974390             0.00748554839            0.000545515773           
       2.977030             0.00639904747            0.000515646426           
       2.979670             0.00966599437            0.000616443394           
       2.982311             0.00940968718            0.000630384825           
       2.984951             0.00719163022            0.000524146298           
       2.987592             0.00749063954            0.000545645893           
       2.990232             0.00637163051            0.000523366083           
       2.992872             0.00697306846            0.000515723705           
       2.995513             0.00794946962            0.000538715165           
       2.998153              0.0109369683            0.000642502294           
       3.000794              0.0118863779            0.000648778817           
       3.003434              0.0110254747            0.000625785907           
       3.006074              0.0455286929             0.00125383279           
       3.008715               0.117315448             0.00194286688           
       3.011355               0.183197823             0.00234125187           
       3.013995              0.0931208827             0.00167375361           
       3.016636              0.0611271293             0.00132792262           
       3.019276               0.125411432             0.00186968679           
       3.021917               0.471333068             0.00348526209           
       3.024557                1.63947641             0.00639078271           
       3.027197                1.15726121             0.00523477876           
       3.029838               0.508979112             0.00352086694           
       3.032478               0.264204077             0.00253928091           
       3.035118              0.0716558772             0.00134015393           
       3.037759              0.0977036175             0.00156287197           
       3.040399               0.132913205             0.00188032059           
       3.043040               0.520051117              0.0037649724           
       3.045680                0.39707517             0.00309527544           
       3.048320              0.0882486757             0.00149095385           
       3.050961                0.10728496             0.00167288181           
       3.053601               0.082746019             0.00141498016           
       3.056242              0.0568701388             0.00124720831           
       3.058882              0.0469645522             0.00121579812           
       3.061522              0.0343621806             0.00102032497           
       3.064163              0.0424078298             0.00111922563           
       3.066803                0.10264039             0.00183313024           
       3.069443               0.101109632             0.00190356834           
       3.072084              0.0540980256             0.00135582253           
       3.074724              0.0405182189             0.00131039338           
       3.077365              0.0845783518             0.00195983591           
       3.080005              0.0184406215            0.000920305163           
       3.082645              0.0109425989             0.00074474919           
       3.085286              0.0123476202            0.000797359949           
       3.087926             0.00917220972            0.000681929742           
       3.090566              0.0107810905            0.000724393469           
       3.093207              0.0110067972            0.000761656124           
       3.095847             0.00987335356            0.000691426419           
       3.098488             0.00958984274            0.000755585969           
       3.101128             0.00966005567            0.000763223962           
       3.103768             0.00975126887            0.000752392214           
       3.106409             0.00953386784            0.000791771194           
       3.109049             0.00975714308            0.000768669332           
       3.111690             0.00683750438            0.000632421779           
       3.114330             0.00771252625            0.000685959241           
       3.116970             0.00818725817            0.000712181403           
       3.119611               0.011438977            0.000896053072           
       3.122251              0.0192460326             0.00121578385           
       3.124891              0.0337596354             0.00162521657           
       3.127532              0.0245316235              0.0013553255           
       3.130172              0.0148133128             0.00107138808           
       3.132813             0.00899408277            0.000821863433           
       3.135453             0.00801814241            0.000769601522           
       3.138093             0.00666505871            0.000760280974           
       3.140734              0.0069433609            0.000715911963           
       3.143374             0.00716821335            0.000769269557           
       3.146014              0.0080325143            0.000876660157           
       3.148655             0.00868250727            0.000847267893           
       3.151295             0.00758443924            0.000843872961           
       3.153936             0.00665645682            0.000763660735           
       3.156576             0.00596470734            0.000713059283           
       3.159216             0.00611471647            0.000725581279           
       3.161857              0.0065547073            0.000748175476           
       3.164497             0.00658566375            0.000787970986           
       3.167138             0.00824617897            0.000911044824           
       3.169778             0.00659157398            0.000801098883           
       3.172418             0.00628496419            0.000774288602           
       3.175059             0.00590400448            0.000665310351           
       3.177699             0.00586710594            0.000702318417           
       3.180339             0.00665866045            0.000801634264           
       3.182980             0.00566227459            0.000764286447           
       3.185620             0.00599022482            0.000800584153           
       3.188261             0.00575430296            0.000798663058           
       3.190901             0.00711732123            0.000816913963           
       3.193541             0.00638654193            0.000813118736           
       3.196182             0.00595013408             0.00081792214           
       3.198822             0.00447619944            0.000709657574           
       3.201463             0.00618835735             0.00082003867           
       3.204103             0.00504334774            0.000735793127           
       3.206743             0.00623302729            0.000817909061           
       3.209384             0.00475458386            0.000771795446           
       3.212024             0.00588116924            0.000800276069           
       3.214664             0.00719647034             0.00100665961           
       3.217305             0.00506662663            0.000802908403           
       3.219945             0.00646507229            0.000933506923           
       3.222586             0.00525156875            0.000801369459           
       3.225226             0.00481855944            0.000851555974           
       3.227866             0.00564732057            0.000842591807           
       3.230507              0.0056687257            0.000875092164           
       3.233147               0.007562384             0.00101890389           
       3.235787             0.00630449793            0.000952059156           
       3.238428             0.00584282337             0.00098905954           
       3.241068             0.00598550573            0.000936043805           
       3.243709             0.00436868375            0.000826205664           
       3.246349             0.00438660876            0.000754707055           
       3.248989             0.00507438939            0.000958459695           
       3.251630             0.00469892649            0.000888168304           
       3.254270             0.00536022095            0.000847799319           
       3.256911             0.00588745424            0.000969470088           
       3.259551             0.00743755808             0.00117310217           
       3.262191             0.00540175014             0.00102118643           
       3.264832             0.00502251383             0.00102885076           
       3.267472             0.00554456425             0.00101409383           
       3.270112             0.00588464459             0.00115456107           
       3.272753             0.00568476716              0.0010386947           
       3.275393             0.00473476168            0.000967228565           
       3.278034             0.00373590552            0.000859651519           
       3.280674              0.0079113779             0.00135748759           
       3.283314             0.00653386233             0.00110332741           
       3.285955             0.00514721754             0.00101039914           
       3.288595             0.00515510004             0.00112496728           
       3.291235             0.00518095334             0.00115935298           
       3.293876             0.00480773465             0.00113286315           
       3.296516             0.00639547251             0.00125436781           
       3.299157             0.00600785035             0.00120048459           
       3.301797             0.00779997413             0.00156030419           
       3.304437             0.00586647709             0.00117235803           
       3.307078             0.00592173206             0.00129749215           
       3.309718             0.00392634704             0.00109051088           
       3.312359             0.00392763109             0.00109094827           
       3.314999             0.00498661619             0.00121030161           
       3.317639             0.00726711762              0.0013973362           
       3.320280             0.00788016381             0.00154705234           
       3.322920              0.0034409758              0.0010395059           
       3.325560             0.00532103996              0.0012935385           
       3.328201              0.0053508617             0.00116824735           
       3.330841             0.00790540553             0.00172821554           
       3.333482             0.00506643429             0.00130774882           
       3.336122             0.00572157779             0.00139037075           
       3.338762             0.00630537825             0.00168604246           
       3.341403             0.00572229869             0.00153478333           
       3.344043             0.00646426599             0.00156613777           
       3.346683             0.00352093214             0.00118002239           
       3.349324             0.00399574015             0.00141336216           
       3.351964             0.00445099646             0.00157742428           
       3.354605             0.00808960041             0.00243207881           
       3.357245             0.00532672593             0.00178033629           
       3.359885             0.00456138984             0.00131857864           
       3.362526             0.00472360234             0.00167800147           
       3.365166             0.00315794999             0.00129407405           
       3.367807             0.00342535106             0.00172484492           
       3.370447             0.00238286252             0.00119335766           
       3.373087             0.00477962665             0.00180736295           
       3.375728             0.00259514307             0.00150303215           
       3.378368             0.00760406941             0.00381839236           
       3.381008             0.00634682888             0.00260084246           
       3.383649             0.00338199964              0.0015230245           
       3.386289             0.00956962503             0.00303213207           
       3.388930             0.00233988689             0.00237159977           
       3.391570             0.00479493543             0.00240158431           
       3.394210             0.00580937045             0.00334534537           
       3.396851           -2.57553143e-05                         0           
       3.399491             0.00239264124             0.00240221074           
       3.402131           -2.57913466e-05                         0           
       3.404772              0.0094246946             0.00954162232           
       3.407412                       nan                       nan           
       3.410053             0.00903891769             0.00935580093           
       3.412693                       nan                       nan           
       3.415333              0.0352031513              0.0184811119           
