################################################################################
# EDF_DataBlockID                     0.Image.Psd
# EDF_BinarySize                      2105344
# EDF_HeaderSize                      2560
# ByteOrder                           LowByteFirst
# DataType                            FloatValue
# Dim_1                               512
# Dim_2                               1028
# Image                               0
# HeaderID                            EH:000000:000000:000000
# Size                                2105344
# Center_1                            304.9000
# Center_2                            588.7000
# Comment                             Xenocs_Cell_Window - 20251028_20perc_iodine_1.23mg
# DDummy                              0.6
# Date                                2025-11-02T23:20:16
# Delta                               21.910000
# Dummy                               -1.5
# ExposureTime                        360
# Gamma                               15.360000
# Intensity1                          8.90203e-10
# PSize_1                             7.5e-05
# PSize_2                             7.5e-05
# Pressure                            0.0327787
# SampleDistance                      0.115750
# SampleEnvKind                       large
# SampleEnvPN                         ElectroChemical cell
# SampleEnvSN                         1141
# Thickness                           0
# Wavelength                          1.541891e-10
# Wavelength                          1.54189e-10
# aux                                 0
# aux_dial                            0.002375
# beamx                               588.434
# beamx_dial                          588.434
# beamz                               657.808
# beamz_dial                          657.808
# det0x                               0
# det0x_dial                          6.36945
# det0xvd                             0
# det0xvd_dial                        0
# det0y                               450.002
# det0y_dial                          481.635
# det0z                               0
# det0z_dial                          1.23302
# det0zvd                             0
# det0zvd_dial                        0
# mag                                 1.818
# mag_dial                            1.818
# om                                  0.2499
# om_dial                             -0.610199
# phi                                 -0.0120535
# phi_dial                            0
# ry                                  0.599993
# ry_dial                             0.599993
# s1bot                               0.8
# s1bot_dial                          -1.66094
# s1hl                                0.8
# s1hl_dial                           -0.608437
# s1hr                                0.8
# s1hr_dial                           0.970938
# s1top                               0.8
# s1top_dial                          -0.461562
# s2bot                               0.45
# s2bot_dial                          1.36109
# s2hl                                0.45
# s2hl_dial                           -0.83375
# s2hr                                0.45
# s2hr_dial                           -0.118594
# s2top                               0.45
# s2top_dial                          1.44734
# w2theta                             32
# w2theta_dial                        32
# waxsch                              19.2605
# waxsch_dial                         -32.7355
# waxsh                               137.085
# waxsh_dial                          -43.5338
# waxsth                              26.0607
# waxsth_dial                         -19.4086
# waxsz                               67.0407
# waxsz_dial                          -23.7954
# wind                                65.9854
# wind_dial                           66.0041
# wpsi                                124
# wpsi_dial                           124
# wstod                               115
# wstod_dial                          115
# x                                   0
# x_dial                              1.00969
# z                                   0
# z_dial                              13.3172
# CountCutoff                         6807993
# DetectorModel                       Dectris EIGER2 Si 500K, S/N E-01-0554
# ThresholdSetting                    4023.88989258
# Saturation                          0
# FlatField                           Corrected
# BackgroundReductionExtra            0.02
# BackgroundCorrectionConstant        0.0026712
# Detector                            0
# Monitor                             0
# Pil_Roi0                            0
# SumForIntensity1                    3.20473e+08
# TransmittedFlux                     890203
# det                                 0
# mon                                 0
# pilai0                              3.20473e+08
# pilai1                              801315
# pilct0                              5.52805e+08
# pilct1                              801315
# pilroi0                             0
# pilroi1                             0
# sec                                 1
# title                               20251028_20perc_iodine_1.23mg_1_01172.edf
# usaxs0                              0
# Operation                           Azimuthal average I(q)
# Error_model                         ErrorModel.poisson
# Geometrical_correction              True
# Transmission_correction             True
# Thickness_correction                False
# Binning mode                        Uniform
# Binning factor                      1.0
# Psi                                 0.0
# Omega                               0.2499
# MaskInvalidPixels                   True
# DetectorEdge                        3
# MaskFiles                           ['WAXS_corrected.edf']
################################################################################
    q(A⁻¹)                Intensity(a.u.)            Sigma_I(a.u.)            
       0.693100             0.00396320424             0.00411332257           
       0.695741               0.013358732             0.00616254182           
       0.698381             0.00822779502             0.00592422916           
       0.701021             0.00846757354             0.00849614256           
       0.703662              0.0054494022             0.00393419785           
       0.706302             0.00812062104             0.00371820681           
       0.708942             0.00275717178             0.00279635231           
       0.711583             0.00212354787              0.0021250874           
       0.714223             0.00559577197             0.00398268256           
       0.716864             0.00839600578             0.00319192616           
       0.719504             0.00844536484             0.00345456633           
       0.722144              0.0048501386             0.00242442202           
       0.724785             0.00761169413             0.00242271994           
       0.727425             0.00567091572             0.00282897555           
       0.730065             0.00347296484             0.00156600811           
       0.732706             0.00888596999             0.00210351193           
       0.735346             0.00503759372             0.00206456347           
       0.737987              0.0087834765             0.00192640219           
       0.740627             0.00181694228             0.00130728654           
       0.743267             0.00796841078             0.00183369982           
       0.745908             0.00947530334             0.00216944013           
       0.748548              0.0054746488              0.0015200003           
       0.751189             0.00611934813             0.00216538264           
       0.753829             0.00714893783             0.00215143355           
       0.756469             0.00630271842              0.0016289377           
       0.759110             0.00606292157             0.00168365085           
       0.761750              0.0069502042             0.00159393462           
       0.764390             0.00557298545             0.00149389868           
       0.767031             0.00811085013             0.00156066445           
       0.769671             0.00843312568             0.00198511319           
       0.772312             0.00702385514              0.0013792091           
       0.774952             0.00593710657             0.00171233793           
       0.777592             0.00731739568             0.00138464205           
       0.780233             0.00609546543             0.00152470721           
       0.782873             0.00796220467             0.00166664198           
       0.785513             0.00597918847             0.00154401155           
       0.788154             0.00775529124              0.0014709989           
       0.790794             0.00995110613             0.00199208566           
       0.793435             0.00866871268             0.00167032065           
       0.796075             0.00743844674             0.00149049265           
       0.798715             0.00582036799             0.00155803309           
       0.801356             0.00705870832             0.00147672622           
       0.803996             0.00636223862              0.0014293384           
       0.806637             0.00689734781             0.00118435901           
       0.809277             0.00596511712              0.0011921561           
       0.811917              0.0083082981             0.00131527729           
       0.814558             0.00713312567             0.00126663383           
       0.817198             0.00529459153              0.0010367461           
       0.819838              0.0085031843             0.00132971691           
       0.822479             0.00486947694             0.00118162223           
       0.825119             0.00642032726             0.00115480804           
       0.827760             0.00660262946             0.00118626718           
       0.830400             0.00751638569             0.00119125239           
       0.833040             0.00681668846             0.00118855598           
       0.835681             0.00586749193             0.00125358636           
       0.838321             0.00527084072             0.00099724455           
       0.840961             0.00781274847             0.00132284706           
       0.843602             0.00732877802             0.00117493051           
       0.846242             0.00842426928             0.00125949873           
       0.848883             0.00592158011             0.00108063043           
       0.851523             0.00863713956             0.00128888696           
       0.854163              0.0071714408             0.00124897068           
       0.856804             0.00651510431             0.00107037426           
       0.859444             0.00590578211            0.000998513918           
       0.862085              0.0073448547             0.00116059061           
       0.864725             0.00961488407             0.00135895014           
       0.867365             0.00660421596             0.00104437876           
       0.870006             0.00702287623             0.00102627273           
       0.872646             0.00808269766             0.00115454058           
       0.875286             0.00746452677             0.00106741962           
       0.877927              0.0076360171             0.00104177473           
       0.880567             0.00934520201             0.00119399632           
       0.883208             0.00506170615            0.000870454891           
       0.885848             0.00595577122             0.00098037007           
       0.888488             0.00750619728             0.00103229848           
       0.891129             0.00729174659             0.00104470403           
       0.893769             0.00849948971             0.00107943787           
       0.896410             0.00677516715            0.000898546168           
       0.899050             0.00460230331            0.000814429211           
       0.901690             0.00478804974            0.000904875428           
       0.904331             0.00740027516             0.00099733053           
       0.906971             0.00836348929             0.00112793305           
       0.909611             0.00730229316            0.000959430048           
       0.912252             0.00791244724             0.00103156183           
       0.914892             0.00978713304              0.0012537272           
       0.917533             0.00499367713            0.000847178626           
       0.920173             0.00742464688            0.000958426075           
       0.922813             0.00830003686             0.00106339975           
       0.925454             0.00662342347            0.000855398004           
       0.928094             0.00890094966             0.00105863764           
       0.930734             0.00921798703             0.00115986075           
       0.933375             0.00629278262            0.000948896091           
       0.936015             0.00777684836            0.000958047937           
       0.938656             0.00788723579             0.00103502755           
       0.941296             0.00736634458            0.000906516445           
       0.943936             0.00577810946             0.00078733363           
       0.946577             0.00674377376            0.000844961053           
       0.949217             0.00688043937            0.000784852146           
       0.951858             0.00756143175            0.000861282595           
       0.954498              0.0080194275             0.00102666725           
       0.957138             0.00731056889            0.000928645789           
       0.959779              0.0067571704            0.000880122894           
       0.962419             0.00801178657            0.000951978488           
       0.965059             0.00912915405             0.00106877289           
       0.967700              0.0078532202             0.00101526206           
       0.970340             0.00665505944            0.000827037002           
       0.972981             0.00894129102            0.000873400029           
       0.975621             0.00638299389            0.000785048685           
       0.978261             0.00722003137            0.000793337363           
       0.980902             0.00781108699            0.000987276274           
       0.983542             0.00881218885            0.000928635726           
       0.986182             0.00917026438            0.000930068057           
       0.988823             0.00809416555             0.00084845702           
       0.991463             0.00738424011            0.000864606828           
       0.994104             0.00749619717             0.00084980716           
       0.996744             0.00782872072            0.000885813006           
       0.999384               0.006970327            0.000747520699           
       1.002025             0.00730096087            0.000853890656           
       1.004665             0.00709870076            0.000769465383           
       1.007306              0.0072475161            0.000773509369           
       1.009946             0.00730319154            0.000791895597           
       1.012586             0.00731563613            0.000771916506           
       1.015227             0.00704763261            0.000813948198           
       1.017867             0.00781078137            0.000823525436           
       1.020507             0.00758726588            0.000786199907           
       1.023148             0.00786780163            0.000863872177           
       1.025788             0.00732493934             0.00076428756           
       1.028429             0.00701029539            0.000783330697           
       1.031069             0.00775910273            0.000775514821           
       1.033709             0.00770853257            0.000821683333           
       1.036350             0.00918441537            0.000805539475           
       1.038990             0.00857074538            0.000792462436           
       1.041630              0.0084573823            0.000821061875           
       1.044271             0.00795219036            0.000748761173           
       1.046911             0.00750344519            0.000765054145           
       1.049552             0.00878888578            0.000869915828           
       1.052192              0.0084055968            0.000776829431           
       1.054832             0.00848070012             0.00078739037           
       1.057473             0.00803715532            0.000755630255           
       1.060113             0.00874681748            0.000768792098           
       1.062754             0.00704063782            0.000704219624           
       1.065394              0.0062888709            0.000703670989           
       1.068034             0.00741900456            0.000695395815           
       1.070675             0.00752340653            0.000730469322           
       1.073315              0.0100053923            0.000854461745           
       1.075955             0.00909179765            0.000768951128           
       1.078596             0.00763181206            0.000748755275           
       1.081236             0.00666567385            0.000670064291           
       1.083877             0.00953592312            0.000794259357           
       1.086517             0.00917997729            0.000835632073           
       1.089157              0.0108307161            0.000941798257           
       1.091798             0.00865381569            0.000738061052           
       1.094438             0.00981371787            0.000783431936           
       1.097078             0.00863028829             0.00070463346           
       1.099719             0.00888105082            0.000773162362           
       1.102359             0.00779040955            0.000678159734           
       1.105000             0.00812586333            0.000774469128           
       1.107640             0.00950715382            0.000800988667           
       1.110280             0.00892662315            0.000708176129           
       1.112921              0.0079100894            0.000716110575           
       1.115561             0.00796968855             0.00068316236           
       1.118202              0.0078730987            0.000679649706           
       1.120842             0.00848216522            0.000741431512           
       1.123482             0.00776685227            0.000706381327           
       1.126123             0.00939845339             0.00074531414           
       1.128763             0.00838911937             0.00070898468           
       1.131403             0.00848729434            0.000687153272           
       1.134044             0.00878203549            0.000719255156           
       1.136684             0.00918977926            0.000784450909           
       1.139325             0.00988542121            0.000749487198           
       1.141965             0.00793972083             0.00067613103           
       1.144605             0.00852995178             0.00066822633           
       1.147246              0.0082077037            0.000670829685           
       1.149886             0.00914261996            0.000705492346           
       1.152527             0.00980836176            0.000741353329           
       1.155167              0.0101888723            0.000718687564           
       1.157807             0.00884667032            0.000718015718           
       1.160448             0.00923385142            0.000716339838           
       1.163088             0.00919324943            0.000681778913           
       1.165728             0.00936797374            0.000706615945           
       1.168369             0.00895616984            0.000697293486           
       1.171009             0.00914228583            0.000683699475           
       1.173650             0.00871728033            0.000685135751           
       1.176290             0.00899361499            0.000680060482           
       1.178930               0.010083763            0.000705761769           
       1.181571             0.00954628121            0.000700312474           
       1.184211             0.00874393051            0.000672612913           
       1.186851             0.00949938028            0.000685423045           
       1.189492              0.0107365487            0.000723788732           
       1.192132              0.0104879024            0.000707332238           
       1.194773              0.0100686023            0.000696076768           
       1.197413              0.0089740998            0.000629647785           
       1.200053              0.0080418147            0.000611189895           
       1.202694             0.00970949387            0.000638633674           
       1.205334             0.00906103525            0.000664867459           
       1.207975              0.0094997836            0.000649818077           
       1.210615             0.00983247983            0.000729304463           
       1.213255             0.00944594556            0.000640109813           
       1.215896              0.0101507776             0.00067558494           
       1.218536              0.0087751649            0.000603985574           
       1.221176             0.00893124568            0.000662470357           
       1.223817             0.00967199345            0.000647147231           
       1.226457             0.00954995785            0.000656006705           
       1.229098             0.00846840475            0.000617713647           
       1.231738             0.00977629096               0.000666969           
       1.234378             0.00913242332            0.000605728297           
       1.237019              0.0086922877                0.00060897           
       1.239659             0.00980050961            0.000640993262           
       1.242299             0.00928448886            0.000615963551           
       1.244940              0.0099746685            0.000620930306           
       1.247580              0.0107448213            0.000664164526           
       1.250221             0.00902608337            0.000604975367           
       1.252861               0.010314093            0.000615662475           
       1.255501             0.00961960851            0.000645593642           
       1.258142              0.0111562689             0.00065331066           
       1.260782              0.0105799446             0.00064997803           
       1.263423              0.0106464265            0.000626514576           
       1.266063              0.0111862563            0.000658238611           
       1.268703              0.0107211985            0.000639063192           
       1.271344             0.00963434168            0.000626336611           
       1.273984              0.0101789423            0.000621779688           
       1.276624             0.00982604861            0.000599429563           
       1.279265             0.00935762046            0.000594681361           
       1.281905             0.00920363124            0.000592385499           
       1.284546              0.0102533752            0.000604367141           
       1.287186              0.0102770162            0.000593631477           
       1.289826              0.0118198792             0.00067096025           
       1.292467              0.0104200558             0.00061610209           
       1.295107              0.0105920037            0.000614994236           
       1.297747             0.00996104508            0.000570701062           
       1.300388               0.010438098            0.000636859611           
       1.303028              0.0101318401            0.000598998756           
       1.305669              0.0101987522            0.000615283167           
       1.308309              0.0102246772            0.000609997898           
       1.310949              0.0102960946            0.000611509383           
       1.313590              0.0114370183            0.000624354158           
       1.316230              0.0114436071            0.000666464475           
       1.318871             0.00950849045            0.000594978564           
       1.321511              0.0100137095            0.000599263354           
       1.324151              0.0119822721            0.000636091909           
       1.326792              0.0106242666            0.000602665706           
       1.329432              0.0115686038            0.000624441671           
       1.332072              0.0113264629            0.000608663875           
       1.334713              0.0122355588             0.00065292566           
       1.337353                0.01084705            0.000589569888           
       1.339994              0.0110209884            0.000623635693           
       1.342634               0.011207279            0.000603060589           
       1.345274              0.0112472869            0.000625224025           
       1.347915              0.0112888271            0.000609080209           
       1.350555               0.011023528            0.000612421894           
       1.353195              0.0123167783            0.000650529177           
       1.355836              0.0111861622            0.000610286009           
       1.358476              0.0112686002            0.000594860283           
       1.361117              0.0119277677            0.000612851548           
       1.363757              0.0100200048            0.000578858245           
       1.366397              0.0114951402            0.000601243178           
       1.369038              0.0109129311            0.000591652511           
       1.371678              0.0113625613            0.000598395591           
       1.374319              0.0107377861            0.000576702452           
       1.376959              0.0114713944             0.00059008275           
       1.379599              0.0119826283            0.000646327959           
       1.382240              0.0107949493            0.000576561576           
       1.384880              0.0110499424            0.000617880563           
       1.387520              0.0102848948            0.000566141512           
       1.390161               0.011596113            0.000570946039           
       1.392801              0.0107935761            0.000573916675           
       1.395442               0.011384018            0.000597455106           
       1.398082               0.011810859            0.000569883139           
       1.400722              0.0115559814            0.000590463414           
       1.403363              0.0115585737            0.000621604193           
       1.406003              0.0112648578            0.000574299174           
       1.408644              0.0117184898            0.000613609603           
       1.411284               0.011289031            0.000570287622           
       1.413924              0.0113128062            0.000568771402           
       1.416565               0.011260638            0.000565229419           
       1.419205              0.0110135285            0.000583119072           
       1.421845               0.010315929            0.000564018169           
       1.424486              0.0103979184            0.000544301309           
       1.427126              0.0108060968            0.000576415047           
       1.429767              0.0112463342            0.000553273529           
       1.432407              0.0113153757            0.000580788244           
       1.435047              0.0103528527            0.000521741877           
       1.437688              0.0106004593            0.000535837888           
       1.440328              0.0119014518            0.000579471159           
       1.442968              0.0111721579            0.000574015463           
       1.445609             0.00999744231            0.000525774201           
       1.448249              0.0108083711            0.000560523837           
       1.450890              0.0104959022            0.000548756828           
       1.453530              0.0100950566             0.00056304047           
       1.456170              0.0102268244            0.000549998708           
       1.458811                0.01019704            0.000525154063           
       1.461451              0.0110328329            0.000547685141           
       1.464092              0.0111752221             0.00055481171           
       1.466732              0.0101824605            0.000525044088           
       1.469372               0.011218422            0.000538208618           
       1.472013              0.0124974114            0.000612664888           
       1.474653              0.0116475102            0.000582341515           
       1.477293              0.0111986683            0.000583045897           
       1.479934              0.0113300061            0.000559600495           
       1.482574              0.0105294924            0.000521852265           
       1.485215              0.0108807968            0.000540366768           
       1.487855              0.0114871503            0.000562543403           
       1.490495              0.0116115038            0.000563497117           
       1.493136              0.0108814647             0.00053801842           
       1.495776              0.0110465186            0.000539615205           
       1.498416              0.0116043695            0.000571167689           
       1.501057              0.0105887146            0.000533575927           
       1.503697              0.0104349778             0.00051785479           
       1.506338              0.0112816919             0.00054829438           
       1.508978              0.0109417608            0.000534660578           
       1.511618              0.0108669089            0.000567459913           
       1.514259              0.0117097413            0.000568704978           
       1.516899              0.0108483544            0.000532974505           
       1.519540              0.0105971755            0.000535262751           
       1.522180              0.0118448705            0.000570867754           
       1.524820              0.0109563853            0.000545959648           
       1.527461              0.0101571243            0.000528268683           
       1.530101              0.0102101379            0.000524348476           
       1.532741              0.0113011963            0.000548452096           
       1.535382             0.00963905078            0.000514670828           
       1.538022              0.0104246821            0.000504218919           
       1.540663               0.010798105            0.000551946331           
       1.543303              0.0112821646            0.000523852271           
       1.545943               0.010824219            0.000543089576           
       1.548584              0.0107069538            0.000549835603           
       1.551224              0.0105714056            0.000505146759           
       1.553864              0.0111874662            0.000549115088           
       1.556505               0.011315357            0.000533482779           
       1.559145             0.00948318121            0.000494368788           
       1.561786              0.0100111496            0.000508335383           
       1.564426              0.0105103307            0.000504653933           
       1.567066              0.0104259074            0.000526652453           
       1.569707             0.00984306185            0.000502527779           
       1.572347              0.0108938123            0.000546169272           
       1.574988              0.0102474298            0.000504202793           
       1.577628               0.011559693             0.00055840918           
       1.580268              0.0110571935            0.000529148898           
       1.582909              0.0100627358            0.000535060692           
       1.585549              0.0106194336            0.000533704205           
       1.588189             0.00943701901            0.000492134433           
       1.590830             0.00987094547            0.000502690045           
       1.593470             0.00993906994            0.000524394748           
       1.596111              0.0099705874            0.000512783286           
       1.598751             0.00987581974            0.000494502875           
       1.601391             0.00899251575            0.000482281286           
       1.604032             0.00948494661            0.000505664719           
       1.606672             0.00939939369            0.000489080525           
       1.609312             0.00950242477            0.000513333392           
       1.611953              0.0100446301            0.000516461279           
       1.614593             0.00911464068            0.000482585771           
       1.617234             0.00928497062            0.000504792229           
       1.619874             0.00904026354            0.000496128262           
       1.622514             0.00878742978            0.000482468717           
       1.625155             0.00913131909            0.000494724057           
       1.627795             0.00838136633            0.000462359896           
       1.630436             0.00879561149            0.000471174829           
       1.633076             0.00973156396            0.000502110496           
       1.635716              0.0105831024            0.000515470843           
       1.638357             0.00937024686            0.000486313527           
       1.640997             0.00921173607            0.000496788938           
       1.643637             0.00951120003            0.000491226715           
       1.646278               0.009439905            0.000504758594           
       1.648918              0.0095210417            0.000508306026           
       1.651559             0.00884606551            0.000493759943           
       1.654199              0.0087732504            0.000478244381           
       1.656839             0.00821019319             0.00046280482           
       1.659480             0.00876649303            0.000496185362           
       1.662120             0.00969112377            0.000491352329           
       1.664761             0.00965185469             0.00050935313           
       1.667401              0.0093547493            0.000479281075           
       1.670041               0.009234492             0.00048345131           
       1.672682             0.00893444017            0.000473577658           
       1.675322             0.00845131812             0.00045763372           
       1.677962             0.00933046122             0.00047554312           
       1.680603             0.00775656658            0.000434918108           
       1.683243             0.00913282035            0.000492368219           
       1.685884             0.00825888195            0.000471675707           
       1.688524             0.00860231113            0.000472077479           
       1.691164             0.00924674288            0.000489551812           
       1.693805             0.00925736349            0.000495213883           
       1.696445             0.00877713161            0.000484995154           
       1.699085              0.0084728831            0.000460548012           
       1.701726              0.0078934498            0.000428218827           
       1.704366             0.00967868633            0.000499532532           
       1.707007             0.00829863017            0.000452239354           
       1.709647               0.010054422            0.000503408726           
       1.712287             0.00807647583            0.000455110633           
       1.714928             0.00858108328            0.000472894857           
       1.717568             0.00917441333            0.000460612178           
       1.720209              0.0091640879            0.000482187737           
       1.722849             0.00925246836            0.000482016418           
       1.725489             0.00824666554            0.000455445838           
       1.728130              0.0089161849            0.000503275561           
       1.730770             0.00924247953            0.000486643899           
       1.733410             0.00867805519            0.000464138214           
       1.736051             0.00845254717            0.000461256331           
       1.738691             0.00893672485            0.000464668855           
       1.741332               0.008343101            0.000462099027           
       1.743972             0.00834919477            0.000477369958           
       1.746612             0.00901166275            0.000476235537           
       1.749253             0.00845207813            0.000470320721           
       1.751893             0.00921033061            0.000487360599           
       1.754533             0.00838196647             0.00046449388           
       1.757174             0.00823511639            0.000456095512           
       1.759814             0.00820128147            0.000448258281           
       1.762455             0.00822613194            0.000457180326           
       1.765095             0.00861718913            0.000447623299           
       1.767735             0.00975604548            0.000490978243           
       1.770376             0.00872800262            0.000465614167           
       1.773016             0.00864123654            0.000460190756           
       1.775657             0.00877676865            0.000457112368           
       1.778297             0.00868060281              0.0004506867           
       1.780937             0.00782140301            0.000451544149           
       1.783578             0.00854383248            0.000460136811           
       1.786218             0.00893268075            0.000491009062           
       1.788858             0.00986225198            0.000490004347           
       1.791499             0.00825115026            0.000443163525           
       1.794139             0.00844421043            0.000444680823           
       1.796780             0.00808980448            0.000433150813           
       1.799420              0.0081804207            0.000433157901           
       1.802060             0.00871605108            0.000450725511           
       1.804701             0.00912202918            0.000442495459           
       1.807341              0.0087808485            0.000456188317           
       1.809981             0.00976069097            0.000482571585           
       1.812622             0.00837184041            0.000438876158           
       1.815262             0.00944323138            0.000476014991           
       1.817903             0.00855133747            0.000446266516           
       1.820543             0.00823052582            0.000444637589           
       1.823183             0.00908548325            0.000466903986           
       1.825824             0.00877009895            0.000438250717           
       1.828464             0.00906726478            0.000464571551           
       1.831105             0.00910489992            0.000452663652           
       1.833745             0.00826365552            0.000440455151           
       1.836385             0.00785483662            0.000441676913           
       1.839026             0.00895836229            0.000470192966           
       1.841666             0.00856027406             0.00045799732           
       1.844306             0.00797774277            0.000430075311           
       1.846947             0.00834670931            0.000443764405           
       1.849587             0.00891761038            0.000506504715           
       1.852228             0.00849384971            0.000446991225           
       1.854868             0.00805577533            0.000459842477           
       1.857508             0.00913265027            0.000484811915           
       1.860149             0.00830321932            0.000470671404           
       1.862789             0.00799518815            0.000445800224           
       1.865429             0.00700092706            0.000435452273           
       1.868070             0.00774810787            0.000451994667           
       1.870710             0.00824837408            0.000455606547           
       1.873351             0.00826732377            0.000461768401           
       1.875991             0.00831452848            0.000470642466           
       1.878631             0.00818900965            0.000458130925           
       1.881272             0.00874804391            0.000470337609           
       1.883912             0.00812383182            0.000471698031           
       1.886553             0.00800770737            0.000463078837           
       1.889193             0.00771165378            0.000453661475           
       1.891833             0.00790596208            0.000477043861           
       1.894474             0.00831327275            0.000484917803           
       1.897114             0.00796128509            0.000459203379           
       1.899754             0.00782013377            0.000457018637           
       1.902395             0.00823422195            0.000459793708           
       1.905035             0.00844921301            0.000493315269           
       1.907676             0.00744321016            0.000436394516           
       1.910316             0.00814212726             0.00046854242           
       1.912956             0.00778018813            0.000447933788           
       1.915597             0.00815219931             0.00046108036           
       1.918237             0.00814915406            0.000476094875           
       1.920878             0.00901136872            0.000498598681           
       1.923518             0.00731512477            0.000449418394           
       1.926158             0.00802834503            0.000464708365           
       1.928799              0.0081127795            0.000461738313           
       1.931439             0.00806992714            0.000472596125           
       1.934079             0.00811896064            0.000494164316           
       1.936720             0.00759033613            0.000442701209           
       1.939360             0.00792867432            0.000482712062           
       1.942001             0.00776216364             0.00043775993           
       1.944641             0.00785214194            0.000448962579           
       1.947281             0.00792755051            0.000446955113           
       1.949922             0.00824651333            0.000470860994           
       1.952562              0.0075742923            0.000465406873           
       1.955202             0.00775552422            0.000470367849           
       1.957843             0.00803767776            0.000466429735           
       1.960483             0.00712269593            0.000459057002           
       1.963124             0.00817377972            0.000481674306           
       1.965764             0.00764158071            0.000439195833           
       1.968404             0.00816435332            0.000449681079           
       1.971045             0.00679232364            0.000418179301           
       1.973685             0.00767897301            0.000466390289           
       1.976326             0.00748898361            0.000454254403           
       1.978966             0.00747200309            0.000457721069           
       1.981606             0.00717740898             0.00045796318           
       1.984247             0.00630941489            0.000426556493           
       1.986887              0.0070575443            0.000445733287           
       1.989527             0.00815431694            0.000473957722           
       1.992168             0.00717144068            0.000461182263           
       1.994808             0.00731374506            0.000463739042           
       1.997449              0.0075840563            0.000462533049           
       2.000089             0.00742422595              0.0004558189           
       2.002729             0.00772708582             0.00046530198           
       2.005370             0.00750401999            0.000453602905           
       2.008010             0.00714125613            0.000461815227           
       2.010650             0.00714626489             0.00046542435           
       2.013291             0.00641771875            0.000423174814           
       2.015931             0.00815590638            0.000473679624           
       2.018572             0.00774091105            0.000493587116           
       2.021212             0.00770362525            0.000483550184           
       2.023852              0.0072573736            0.000444204264           
       2.026493             0.00676883208            0.000448159148           
       2.029133             0.00714853345            0.000451289239           
       2.031774             0.00689545807            0.000465158872           
       2.034414             0.00744080256            0.000444613903           
       2.037054             0.00765199782            0.000462307896           
       2.039695              0.0075078213            0.000454473297           
       2.042335             0.00753509762             0.00047315469           
       2.044975             0.00739724379            0.000463121213           
       2.047616             0.00752642694            0.000465987188           
       2.050256             0.00764785833            0.000474176597           
       2.052897             0.00657675233            0.000447826207           
       2.055537             0.00783044989            0.000472260795           
       2.058177             0.00846845993            0.000480942382           
       2.060818             0.00732923798            0.000468712339           
       2.063458             0.00770972568             0.00050096289           
       2.066098             0.00781406082            0.000475762741           
       2.068739             0.00800691385            0.000489083882           
       2.071379             0.00668976005            0.000458709149           
       2.074020             0.00809366688            0.000493585388           
       2.076660             0.00764421145            0.000483562572           
       2.079300             0.00869620178             0.00052840139           
       2.081941             0.00733722612            0.000444403515           
       2.084581             0.00730879841            0.000468162668           
       2.087222             0.00753297656             0.00045837011           
       2.089862             0.00757290033            0.000500556182           
       2.092502              0.0072397743            0.000474425563           
       2.095143             0.00829118529            0.000524284289           
       2.097783              0.0072111077             0.00047338053           
       2.100423             0.00660625979            0.000436596683           
       2.103064             0.00714689611             0.00047120045           
       2.105704              0.0078665142            0.000491905422           
       2.108345             0.00808456078            0.000479094503           
       2.110985              0.0069361299            0.000473971534           
       2.113625             0.00728957564            0.000490137784           
       2.116266             0.00774020791             0.00051222608           
       2.118906             0.00674581936            0.000445648585           
       2.121546              0.0089785534            0.000504319967           
       2.124187             0.00794408483            0.000497950821           
       2.126827              0.0073408468            0.000484013859           
       2.129468             0.00714633356            0.000478778101           
       2.132108             0.00689655262            0.000457601602           
       2.134748             0.00736543087            0.000471066632           
       2.137389             0.00675635059            0.000470681443           
       2.140029             0.00707123822            0.000431090452           
       2.142670             0.00696904123            0.000457374294           
       2.145310             0.00713674466            0.000450495058           
       2.147950             0.00733018166            0.000469924075           
       2.150591             0.00730216056            0.000464285029           
       2.153231             0.00765067022              0.0004891809           
       2.155871             0.00680077116            0.000445559651           
       2.158512             0.00810137959            0.000507421899           
       2.161152             0.00739992992            0.000469759916           
       2.163793             0.00701076938            0.000455182367           
       2.166433             0.00820898913            0.000505793591           
       2.169073             0.00807949957            0.000490616993           
       2.171714             0.00642614495            0.000434277031           
       2.174354             0.00701603311            0.000474149521           
       2.176995             0.00688816801            0.000467832195           
       2.179635             0.00756979397            0.000518248693           
       2.182275             0.00739237675            0.000483540908           
       2.184916             0.00750566455            0.000470602771           
       2.187556             0.00688051943            0.000446062474           
       2.190196             0.00710732293             0.00047374953           
       2.192837             0.00719094287            0.000473935584           
       2.195477             0.00755776986            0.000463222692           
       2.198118             0.00761893668            0.000477010739           
       2.200758             0.00647587548            0.000451182125           
       2.203398             0.00655693525             0.00045690149           
       2.206039             0.00698250133            0.000446230665           
       2.208679             0.00782524906            0.000483386375           
       2.211319             0.00748708492            0.000475552694           
       2.213960             0.00631301199            0.000442528003           
       2.216600             0.00790006512            0.000512104886           
       2.219241             0.00771337979            0.000483616447           
       2.221881             0.00727982342            0.000470794245           
       2.224521             0.00802530584            0.000500369645           
       2.227162             0.00758846113            0.000476818606           
       2.229802              0.0067353961            0.000463281117           
       2.232443             0.00719924446            0.000471413272           
       2.235083              0.0072301859            0.000486360476           
       2.237723             0.00715180744            0.000464196795           
       2.240364             0.00753461632            0.000488196099           
       2.243004             0.00687350423            0.000462564358           
       2.245644             0.00747418034            0.000487180929           
       2.248285             0.00693092222             0.00045974337           
       2.250925             0.00766518147            0.000486419937           
       2.253566             0.00751438082            0.000514879442           
       2.256206             0.00664725643            0.000474578903           
       2.258846             0.00693424869            0.000461098531           
       2.261487             0.00700402975             0.00048639472           
       2.264127             0.00753817656            0.000487335555           
       2.266767             0.00777472756            0.000508108985           
       2.269408             0.00741394412            0.000498211506           
       2.272048             0.00668380286            0.000470219667           
       2.274689             0.00801582047             0.00052173263           
       2.277329              0.0076231405            0.000479061225           
       2.279969              0.0072128379            0.000496020294           
       2.282610             0.00789907463             0.00050464317           
       2.285250             0.00717426476            0.000460318673           
       2.287891             0.00717554773            0.000493575247           
       2.290531             0.00714377689            0.000499101618           
       2.293171             0.00739011874            0.000494481467           
       2.295812             0.00755271875            0.000497882352           
       2.298452             0.00631723387            0.000476167651           
       2.301092             0.00704105338            0.000467076891           
       2.303733             0.00770788331            0.000508412618           
       2.306373             0.00727805138             0.00050181369           
       2.309014             0.00727717845             0.00049199493           
       2.311654             0.00771987561            0.000528806118           
       2.314294             0.00612557111            0.000433977709           
       2.316935             0.00675919409            0.000457753998           
       2.319575             0.00729106975            0.000498133411           
       2.322215             0.00717694768            0.000515060221           
       2.324856             0.00669753883            0.000457455114           
       2.327496             0.00674033429                0.00048797           
       2.330137              0.0073089225            0.000486247152           
       2.332777             0.00766615669            0.000513479147           
       2.335417             0.00816827715            0.000514206865           
       2.338058             0.00683593624            0.000484456703           
       2.340698             0.00735903173            0.000498700681           
       2.343339             0.00737456698            0.000510212745           
       2.345979             0.00771333353            0.000493664327           
       2.348619             0.00845772306            0.000535832654           
       2.351260             0.00700936527            0.000484957954           
       2.353900             0.00711346508            0.000486998254           
       2.356540             0.00691453816            0.000479458985           
       2.359181             0.00671704938             0.00046593729           
       2.361821             0.00714836517             0.00046430858           
       2.364462              0.0072726812            0.000489813049           
       2.367102             0.00711118971            0.000497741262           
       2.369742             0.00773619797            0.000546445561           
       2.372383             0.00731024612            0.000480990376           
       2.375023             0.00668056413            0.000483358327           
       2.377663             0.00757393245            0.000492093854           
       2.380304             0.00645148311            0.000461741215           
       2.382944              0.0067147683            0.000448678158           
       2.385585             0.00691857744            0.000485730856           
       2.388225             0.00777766444             0.00051258554           
       2.390865             0.00724768851            0.000489730627           
       2.393506             0.00732534121            0.000483058451           
       2.396146             0.00722078181            0.000518563598           
       2.398787             0.00692099503            0.000467870967           
       2.401427             0.00744709163            0.000468453224           
       2.404067             0.00678243873             0.00045703195           
       2.406708             0.00734431918            0.000469883308           
       2.409348             0.00818132655            0.000526037721           
       2.411988             0.00691345533            0.000473784267           
       2.414629             0.00735355899            0.000503849807           
       2.417269             0.00664045697            0.000484386939           
       2.419910             0.00671873039            0.000488363998           
       2.422550             0.00682721639            0.000470993644           
       2.425190             0.00694684562            0.000500807325           
       2.427831             0.00656413321            0.000484080214           
       2.430471             0.00782349642            0.000503479895           
       2.433112             0.00676144364            0.000455778741           
       2.435752             0.00657517095            0.000475665528           
       2.438392             0.00733307898            0.000484853577           
       2.441033             0.00648230424            0.000483120684           
       2.443673             0.00714989294            0.000507778659           
       2.446313             0.00686777376            0.000498098702           
       2.448954             0.00706329258             0.00048096307           
       2.451594              0.0063889661            0.000491842759           
       2.454235             0.00779805294            0.000509829679           
       2.456875             0.00830632478            0.000550575587           
       2.459515             0.00686818048            0.000513609463           
       2.462156             0.00666791954            0.000477796984           
       2.464796             0.00797722067            0.000515863092           
       2.467436             0.00837938971            0.000546744867           
       2.470077              0.0090436858            0.000538364521           
       2.472717             0.00749760392            0.000492313964           
       2.475358             0.00739054802            0.000493883139           
       2.477998             0.00734617491            0.000484097129           
       2.480638             0.00766463033            0.000503265003           
       2.483279             0.00762173807            0.000524518331           
       2.485919             0.00747612999            0.000500641499           
       2.488560              0.0068331264            0.000477290694           
       2.491200             0.00679686393            0.000490177425           
       2.493840             0.00625019566             0.00049737648           
       2.496481             0.00669104352             0.00050620043           
       2.499121              0.0077019201            0.000528245751           
       2.501761             0.00602263745             0.00047331064           
       2.504402             0.00761087409            0.000524298182           
       2.507042              0.0063357083            0.000474820513           
       2.509683             0.00641985202            0.000470658178           
       2.512323             0.00780553796            0.000545050277           
       2.514963             0.00790087779            0.000541594095           
       2.517604             0.00683532701            0.000522719105           
       2.520244             0.00818450221            0.000536237255           
       2.522884              0.0083104789            0.000548075898           
       2.525525              0.0108004576            0.000631902859           
       2.528165             0.00831165316            0.000545695011           
       2.530806             0.00882758441            0.000572178924           
       2.533446             0.00651861067            0.000481191951           
       2.536086             0.00784704272            0.000523225908           
       2.538727             0.00700166187            0.000474146961           
       2.541367             0.00769085033            0.000501830044           
       2.544008             0.00725391173            0.000503330554           
       2.546648             0.00664955591            0.000490173279           
       2.549288             0.00664853046            0.000500122402           
       2.551929             0.00735646518            0.000517689763           
       2.554569              0.0070949618            0.000489805894           
       2.557209             0.00793416514            0.000522720887           
       2.559850             0.00769043169            0.000516281986           
       2.562490             0.00632345896            0.000483862549           
       2.565131             0.00728603507            0.000538522849           
       2.567771             0.00762300068            0.000531087592           
       2.570411             0.00662168413            0.000489624106           
       2.573052             0.00696906908             0.00050862901           
       2.575692             0.00714788838            0.000511993868           
       2.578332             0.00658249603            0.000493359389           
       2.580973             0.00704485531            0.000505536108           
       2.583613             0.00749697611             0.00050908833           
       2.586254             0.00609502948              0.0004583888           
       2.588894             0.00635219119            0.000485953162           
       2.591534             0.00736845589            0.000541801194           
       2.594175             0.00697099948            0.000517041678           
       2.596815             0.00647808538            0.000501365619           
       2.599456             0.00722713127            0.000502178147           
       2.602096             0.00643362181            0.000477414065           
       2.604736              0.0074887365            0.000527290072           
       2.607377             0.00731918553            0.000507549154           
       2.610017             0.00723890085            0.000495924726           
       2.612657             0.00730453645            0.000529876726           
       2.615298             0.00636723152            0.000482996088           
       2.617938              0.0068321996            0.000535215403           
       2.620579             0.00656406451            0.000503618184           
       2.623219             0.00693858813            0.000517048187           
       2.625859             0.00750301585            0.000522763154           
       2.628500             0.00678238435              0.0004937672           
       2.631140             0.00722210269             0.00051737278           
       2.633780             0.00685067961            0.000503455245           
       2.636421              0.0074215829            0.000536899793           
       2.639061             0.00737225697             0.00050374703           
       2.641702             0.00766113916            0.000525410215           
       2.644342             0.00694703741            0.000502456237           
       2.646982             0.00723401907            0.000505064244           
       2.649623             0.00662698637            0.000506593346           
       2.652263             0.00682555788            0.000508967881           
       2.654904             0.00741762488            0.000531117275           
       2.657544             0.00721169542            0.000493264387           
       2.660184             0.00604300288            0.000477851176           
       2.662825             0.00734357743            0.000538989817           
       2.665465             0.00744747648            0.000524966671           
       2.668105             0.00718389749            0.000543455054           
       2.670746             0.00764602094             0.00051793235           
       2.673386             0.00777865731            0.000538380593           
       2.676027             0.00797964624            0.000536540168           
       2.678667             0.00997570575            0.000585356983           
       2.681307              0.0111353174            0.000607656276           
       2.683948              0.0143039685            0.000707615274           
       2.686588              0.0110882552            0.000612686034           
       2.689229              0.0100415856            0.000569734609           
       2.691869              0.0087354727            0.000561628049           
       2.694509             0.00886153242            0.000565976727           
       2.697150             0.00780428325            0.000522524781           
       2.699790             0.00668983979            0.000507174215           
       2.702430             0.00702332237            0.000496734001           
       2.705071             0.00729989797            0.000523289655           
       2.707711             0.00686292623            0.000492456068           
       2.710352             0.00697389855            0.000524531517           
       2.712992             0.00728587134            0.000546048608           
       2.715632             0.00739907551            0.000510545443           
       2.718273              0.0066937672            0.000503261708           
       2.720913             0.00740338645            0.000527759823           
       2.723553             0.00709678945            0.000520183111           
       2.726194             0.00624640317              0.0005101449           
       2.728834              0.0066244959            0.000525604011           
       2.731475             0.00741004594            0.000513042265           
       2.734115             0.00745483073            0.000530560821           
       2.736755              0.0072171681            0.000526331855           
       2.739396             0.00715829202            0.000521143586           
       2.742036             0.00693860013            0.000536975168           
       2.744677             0.00684217687            0.000517381101           
       2.747317              0.0075215772            0.000538592049           
       2.749957              0.0077412848            0.000550236203           
       2.752598             0.00802632962            0.000566355271           
       2.755238             0.00706682252            0.000541019121           
       2.757878             0.00769152439            0.000559490729           
       2.760519             0.00752593442             0.00054756715           
       2.763159             0.00932616477            0.000603457755           
       2.765800             0.00716139452            0.000503941266           
       2.768440             0.00863598842             0.00055747426           
       2.771080             0.00834193788            0.000552474611           
       2.773721             0.00652999777            0.000501414002           
       2.776361             0.00862887004            0.000584342499           
       2.779001             0.00788028986            0.000578301345           
       2.781642             0.00765676449            0.000565839631           
       2.784282             0.00685043585            0.000544017977           
       2.786923             0.00721470642            0.000563210335           
       2.789563             0.00726028408            0.000544148384           
       2.792203             0.00709238043            0.000513771206           
       2.794844             0.00829696498             0.00060902828           
       2.797484             0.00755986186            0.000548648881           
       2.800125             0.00765436889            0.000580499279           
       2.802765             0.00743106562            0.000562129261           
       2.805405             0.00633645305            0.000520836235           
       2.808046             0.00682419891            0.000550012143           
       2.810686             0.00695853496             0.00051034739           
       2.813326              0.0056455248             0.00047748455           
       2.815967             0.00771985516            0.000574232402           
       2.818607             0.00590652677            0.000479316481           
       2.821248             0.00738766116            0.000524926486           
       2.823888              0.0077025955            0.000556379995           
       2.826528             0.00647604448            0.000494066423           
       2.829169             0.00711171714            0.000542311056           
       2.831809             0.00674451068            0.000535308303           
       2.834449              0.0064900988            0.000528433556           
       2.837090             0.00734080051            0.000542803029           
       2.839730             0.00671192924            0.000516497979           
       2.842371             0.00657916994             0.00051210243           
       2.845011             0.00582698892            0.000485781993           
       2.847651             0.00691328095            0.000529778675           
       2.850292             0.00682932752            0.000531719742           
       2.852932             0.00617665471            0.000516694151           
       2.855573             0.00629837641            0.000506122387           
       2.858213             0.00672955373            0.000549381249           
       2.860853             0.00806782541            0.000559563225           
       2.863494             0.00556985387            0.000481375964           
       2.866134             0.00790846781            0.000596185459           
       2.868774             0.00641993111             0.00052791419           
       2.871415             0.00685192496            0.000553881774           
       2.874055             0.00712309963            0.000539817159           
       2.876696             0.00669565107            0.000537526123           
       2.879336              0.0066321171            0.000515608027           
       2.881976             0.00720291988            0.000554227505           
       2.884617              0.0075285932            0.000558296778           
       2.887257               0.006978789            0.000540298936           
       2.889897             0.00673486939            0.000519848983           
       2.892538             0.00732192797            0.000593798592           
       2.895178             0.00724697398            0.000533704561           
       2.897819             0.00686574218            0.000529916164           
       2.900459               0.006883401            0.000520275411           
       2.903099             0.00685380961             0.00051384174           
       2.905740             0.00651793624             0.00051405748           
       2.908380             0.00667919976            0.000526290601           
       2.911021             0.00629244962            0.000519131537           
       2.913661             0.00825665489            0.000594483047           
       2.916301             0.00646868915            0.000526695384           
       2.918942             0.00702557511            0.000525035238           
       2.921582             0.00696063608            0.000546793395           
       2.924222             0.00705172724            0.000533192606           
       2.926863             0.00712933075            0.000558429238           
       2.929503             0.00783840369            0.000592478526           
       2.932144             0.00676719028            0.000528453235           
       2.934784             0.00655948995            0.000511749217           
       2.937424             0.00668681266            0.000521996767           
       2.940065             0.00672328702            0.000499291787           
       2.942705             0.00725713848            0.000518085097           
       2.945346             0.00771104068            0.000566753036           
       2.947986              0.0069363525            0.000548094869           
       2.950626             0.00612418218            0.000512108597           
       2.953267             0.00774835933            0.000566720012           
       2.955907             0.00651087023            0.000538906926           
       2.958547             0.00743297123            0.000543589511           
       2.961188             0.00731892396            0.000562748068           
       2.963828             0.00803029857            0.000576603372           
       2.966469             0.00698332488            0.000527484776           
       2.969109             0.00657426152            0.000519385506           
       2.971749             0.00668129396            0.000520329997           
       2.974390             0.00739887711            0.000538077613           
       2.977030             0.00609116129            0.000499126825           
       2.979670             0.00909109213            0.000593122608           
       2.982311             0.00935031537            0.000623444505           
       2.984951             0.00692049006            0.000510121688           
       2.987592             0.00700216086            0.000523400337           
       2.990232             0.00774218883            0.000572372391           
       2.992872             0.00718323019              0.0005193158           
       2.995513             0.00855191766            0.000554355543           
       2.998153              0.0102577172            0.000617330994           
       3.000794              0.0112910406            0.000627343488           
       3.003434              0.0115939135            0.000636661625           
       3.006074              0.0427398988             0.00120525874           
       3.008715               0.115447463             0.00191215967           
       3.011355               0.178942625             0.00229568026           
       3.013995              0.0953912282             0.00168069428           
       3.016636              0.0596967941             0.00130196044           
       3.019276               0.118448732             0.00180273553           
       3.021917                0.45050387             0.00338054923           
       3.024557                1.60210078             0.00626776775           
       3.027197                1.19048305             0.00526757536           
       3.029838               0.511414729             0.00350148898           
       3.032478               0.275011436             0.00257029448           
       3.035118              0.0692634534             0.00130721602           
       3.037759              0.0968587081             0.00154384584           
       3.040399               0.126349117             0.00181886495           
       3.043040               0.501194716             0.00366697996           
       3.045680               0.421922403             0.00316552498           
       3.048320               0.085968696              0.0014599796           
       3.050961                0.10191965             0.00161767514           
       3.053601                0.09089518             0.00147134236           
       3.056242              0.0564886692             0.00123322988           
       3.058882              0.0492319034             0.00123499785           
       3.061522              0.0353239711             0.00102635932           
       3.064163              0.0430715928             0.00111906832           
       3.066803               0.100468837             0.00179935303           
       3.069443              0.0994632905             0.00187313956           
       3.072084              0.0559546159             0.00136803313           
       3.074724              0.0410389211              0.0013084014           
       3.077365              0.0844853633             0.00194333358           
       3.080005              0.0186041071             0.00091709645           
       3.082645              0.0101247972            0.000710737911           
       3.085286              0.0133048939            0.000821173657           
       3.087926             0.00916695949            0.000676366074           
       3.090566              0.0112367868            0.000733720691           
       3.093207              0.0100590609            0.000722393265           
       3.095847              0.0073792025            0.000593041184           
       3.098488                0.00890762            0.000722479448           
       3.101128              0.0115706269            0.000828718705           
       3.103768              0.0099937894            0.000755692894           
       3.106409             0.00983637447            0.000797901306           
       3.109049             0.00851527314            0.000712432994           
       3.111690             0.00778165942            0.000669361352           
       3.114330             0.00693754157            0.000645459946           
       3.116970             0.00811329262             0.00070337426           
       3.119611              0.0127909806            0.000940066496           
       3.122251              0.0196936875             0.00122015724           
       3.124891              0.0384329668             0.00172040556           
       3.127532              0.0237204554             0.00132223452           
       3.130172              0.0151981957             0.00107667156           
       3.132813             0.00832302511            0.000784383294           
       3.135453              0.0063128874            0.000677500425           
       3.138093             0.00613900783            0.000723915277           
       3.140734              0.0056576338            0.000641148576           
       3.143374             0.00698702506            0.000753504326           
       3.146014             0.00696289407            0.000809779772           
       3.148655              0.0070707197            0.000758571456           
       3.151295             0.00634822926            0.000765963632           
       3.153936             0.00577365876            0.000705620148           
       3.156576             0.00670480243            0.000750050622           
       3.159216              0.0054971791            0.000682549834           
       3.161857             0.00468509969            0.000627556382           
       3.164497             0.00834490177            0.000880009944           
       3.167138             0.00753237272             0.00086386481           
       3.169778              0.0060213434            0.000759634663           
       3.172418             0.00637940815            0.000773941566           
       3.175059             0.00596290137              0.0006633554           
       3.177699             0.00677651675             0.00074884488           
       3.180339             0.00607916238            0.000759925861           
       3.182980             0.00578388155            0.000766367193           
       3.185620             0.00579622454            0.000781312089           
       3.188261             0.00512761372            0.000747982437           
       3.190901             0.00700122364             0.00080384354           
       3.193541             0.00561580742            0.000756473471           
       3.196182             0.00609460201             0.00082127344           
       3.198822             0.00596790309            0.000812964392           
       3.201463             0.00587358447            0.000792619522           
       3.204103             0.00497254383            0.000724856595           
       3.206743             0.00463449378            0.000699718202           
       3.209384             0.00527447591            0.000806495832           
       3.212024             0.00524970342            0.000750139252           
       3.214664             0.00497624722            0.000830501388           
       3.217305             0.00498195202            0.000789901316           
       3.219945             0.00677364838            0.000948000769           
       3.222586               0.005893697            0.000842264849           
       3.225226             0.00472679135            0.000836766569           
       3.227866             0.00543984319            0.000820456796           
       3.230507              0.0059742788            0.000891292663           
       3.233147             0.00676707959            0.000956249042           
       3.235787             0.00464562678            0.000810825417           
       3.238428             0.00458674396             0.00086942039           
       3.241068             0.00514853846            0.000861299595           
       3.243709             0.00660552588             0.00100793628           
       3.246349             0.00602488388            0.000877515535           
       3.248989             0.00499689394            0.000943623048           
       3.251630             0.00595898739            0.000992313028           
       3.254270             0.00526940678             0.00083396744           
       3.256911              0.0061202368            0.000980666341           
       3.259551             0.00381126144            0.000833146818           
       3.262191              0.0049146301            0.000966383985           
       3.264832              0.0059928029             0.00111499604           
       3.267472             0.00565009948             0.00101563812           
       3.270112             0.00754203156             0.00129678351           
       3.272753             0.00617245996             0.00107380948           
       3.275393             0.00485553854            0.000971773988           
       3.278034             0.00623799773             0.00110208125           
       3.280674               0.008478318             0.00139421956           
       3.283314               0.005863857             0.00103699728           
       3.285955             0.00566721671             0.00105186046           
       3.288595             0.00460933375             0.00105537532           
       3.291235             0.00609209699             0.00124727082           
       3.293876             0.00601879734              0.0012575596           
       3.296516             0.00677635647             0.00128101206           
       3.299157             0.00590280152             0.00118057244           
       3.301797             0.00546911702             0.00129624715           
       3.304437             0.00668230672             0.00124137013           
       3.307078             0.00472902438             0.00115035703           
       3.309718             0.00682259899             0.00142618905           
       3.312359             0.00447588156             0.00115543262           
       3.314999             0.00375351766             0.00104178089           
       3.317639             0.00424057319             0.00105900646           
       3.320280             0.00536144588             0.00126603252           
       3.322920             0.00618568907             0.00138275968           
       3.325560              0.0052253031             0.00127175472           
       3.328201             0.00625221167             0.00125287082           
       3.330841             0.00668690167              0.0015769387           
       3.333482             0.00497145363             0.00128523144           
       3.336122             0.00462343193             0.00123999938           
       3.338762             0.00305365308             0.00116409735           
       3.341403             0.00484723666               0.001401443           
       3.344043              0.0059863935             0.00149526958           
       3.346683             0.00311206466             0.00110065761           
       3.349324             0.00494378939             0.00155973686           
       3.351964             0.00601458187             0.00181923638           
       3.354605             0.00359536772             0.00160861562           
       3.357245              0.0052608716             0.00175536419           
       3.359885             0.00794162666             0.00172615062           
       3.362526             0.00876144437              0.0022673055           
       3.365166             0.00365227908             0.00138071804           
       3.367807             0.00600607161             0.00226599672           
       3.370447             0.00584310159             0.00185399845           
       3.373087             0.00401482397             0.00164341845           
       3.375728             0.00422930967             0.00190365777           
       3.378368              0.0133471492             0.00501901263           
       3.381008             0.00418563975             0.00209547793           
       3.383649             0.00398137981             0.00163946984           
       3.386289             0.00375119835             0.00188344171           
       3.388930             0.00230318007             0.00233439546           
       3.391570             0.00703884826             0.00288684704           
       3.394210              0.0038197679             0.00269129576           
       3.396851             0.00227881004             0.00232525613           
       3.399491             0.00702915968             0.00408498562           
       3.402131             0.00469271036              0.0047222306           
       3.404772             0.00927684533             0.00939193876           
       3.407412                       nan                       nan           
       3.410053           -2.54615573e-05                         0           
       3.412693                       nan                       nan           
       3.415333             0.00864359367             0.00908554557           
