################################################################################
# EDF_DataBlockID                     0.Image.Psd
# EDF_BinarySize                      2105344
# EDF_HeaderSize                      2560
# ByteOrder                           LowByteFirst
# DataType                            FloatValue
# Dim_1                               512
# Dim_2                               1028
# Image                               0
# HeaderID                            EH:000000:000000:000000
# Size                                2105344
# Center_1                            304.9000
# Center_2                            588.7000
# Comment                             Xenocs_Cell_Window - 20251028_20perc_iodine_1.23mg
# DDummy                              0.6
# Date                                2025-10-30T04:58:29
# Delta                               21.910000
# Dummy                               -1.5
# ExposureTime                        360
# Gamma                               15.360000
# Intensity1                          8.47311e-10
# PSize_1                             7.5e-05
# PSize_2                             7.5e-05
# Pressure                            0.0324659
# SampleDistance                      0.115750
# SampleEnvKind                       large
# SampleEnvPN                         ElectroChemical cell
# SampleEnvSN                         1141
# Thickness                           0
# Wavelength                          1.541891e-10
# Wavelength                          1.54189e-10
# aux                                 0
# aux_dial                            0.002375
# beamx                               588.434
# beamx_dial                          588.434
# beamz                               657.808
# beamz_dial                          657.808
# det0x                               0
# det0x_dial                          6.36945
# det0xvd                             0
# det0xvd_dial                        0
# det0y                               450.002
# det0y_dial                          481.635
# det0z                               0
# det0z_dial                          1.23302
# det0zvd                             0
# det0zvd_dial                        0
# mag                                 1.818
# mag_dial                            1.818
# om                                  0.2499
# om_dial                             -0.610199
# phi                                 -0.0120535
# phi_dial                            0
# ry                                  0.599993
# ry_dial                             0.599993
# s1bot                               0.8
# s1bot_dial                          -1.66094
# s1hl                                0.8
# s1hl_dial                           -0.608437
# s1hr                                0.8
# s1hr_dial                           0.970938
# s1top                               0.8
# s1top_dial                          -0.461562
# s2bot                               0.45
# s2bot_dial                          1.36109
# s2hl                                0.45
# s2hl_dial                           -0.83375
# s2hr                                0.45
# s2hr_dial                           -0.118594
# s2top                               0.45
# s2top_dial                          1.44734
# w2theta                             32
# w2theta_dial                        32
# waxsch                              19.2605
# waxsch_dial                         -32.7355
# waxsh                               137.085
# waxsh_dial                          -43.5338
# waxsth                              26.0607
# waxsth_dial                         -19.4086
# waxsz                               67.0407
# waxsz_dial                          -23.7954
# wind                                65.9854
# wind_dial                           66.0041
# wpsi                                124
# wpsi_dial                           124
# wstod                               115
# wstod_dial                          115
# x                                   0
# x_dial                              1.00969
# z                                   0
# z_dial                              13.3172
# CountCutoff                         6807993
# DetectorModel                       Dectris EIGER2 Si 500K, S/N E-01-0554
# ThresholdSetting                    4023.88989258
# Saturation                          0
# FlatField                           Corrected
# BackgroundReductionExtra            0.02
# BackgroundCorrectionConstant        0.0026712
# Detector                            0
# Monitor                             0
# Pil_Roi0                            0
# SumForIntensity1                    3.05032e+08
# TransmittedFlux                     847311
# det                                 0
# mon                                 0
# pilai0                              3.05032e+08
# pilai1                              766292
# pilct0                              5.28796e+08
# pilct1                              766292
# pilroi0                             0
# pilroi1                             0
# sec                                 1
# title                               20251028_20perc_iodine_1.23mg_1_00351.edf
# usaxs0                              0
# Operation                           Azimuthal average I(q)
# Error_model                         ErrorModel.poisson
# Geometrical_correction              True
# Transmission_correction             True
# Thickness_correction                False
# Binning mode                        Uniform
# Binning factor                      1.0
# Psi                                 0.0
# Omega                               0.2499
# MaskInvalidPixels                   True
# DetectorEdge                        3
# MaskFiles                           ['WAXS_corrected.edf']
################################################################################
    q(A⁻¹)                Intensity(a.u.)            Sigma_I(a.u.)            
       0.693100           -2.39619252e-05                         0           
       0.695741             0.00849918038             0.00503835644           
       0.698381             0.00864429686             0.00622412146           
       0.701021           -2.39241895e-05                         0           
       0.703662              0.0114595049             0.00584773654           
       0.706302             0.00682490117             0.00349389788           
       0.708942              0.0057683042             0.00414578864           
       0.711583              0.0133407509             0.00545957718           
       0.714223               0.002948524             0.00296326933           
       0.716864              0.0127105985             0.00402552545           
       0.719504              0.0059443356             0.00297070203           
       0.722144             0.00759992312             0.00311070516           
       0.724785              0.0063673927             0.00227125801           
       0.727425             0.00737062484             0.00330580974           
       0.730065             0.00665454864             0.00222190876           
       0.732706             0.00776411465             0.00201540175           
       0.735346             0.00614448177              0.0023371275           
       0.737987             0.00800165143             0.00188463243           
       0.740627             0.00883119077             0.00295415285           
       0.743267             0.00574055056             0.00159529962           
       0.745908             0.00682087712             0.00188666297           
       0.748548             0.00707193622              0.0017707523           
       0.751189             0.00484545937             0.00197502525           
       0.753829             0.00609861542             0.00203678836           
       0.756469             0.00524600314             0.00152327355           
       0.759110             0.00783667461             0.00196200482           
       0.761750             0.00229442064            0.000938709789           
       0.764390             0.00711256886             0.00172987027           
       0.767031             0.00817094781             0.00160559376           
       0.769671             0.00640667296             0.00177349664           
       0.772312             0.00594852991             0.00130097895           
       0.774952             0.00620660358             0.00179453595           
       0.777592             0.00687007961             0.00137519168           
       0.780233             0.00514009205             0.00143513108           
       0.782873             0.00804075238             0.00171671063           
       0.785513             0.00587168454             0.00156831713           
       0.788154             0.00670191809              0.0014016383           
       0.790794             0.00837743676             0.00187348842           
       0.793435             0.00642439067             0.00147387829           
       0.796075             0.00751815901             0.00153591636           
       0.798715             0.00612238784             0.00163789093           
       0.801356             0.00710489543             0.00151858574           
       0.803996              0.0070618725             0.00154352307           
       0.806637             0.00787650878             0.00129727572           
       0.809277             0.00751269134             0.00137133802           
       0.811917              0.0092034771               0.001418928           
       0.814558             0.00679166537             0.00126684181           
       0.817198             0.00680208024             0.00120448158           
       0.819838             0.00827411884             0.00134447391           
       0.822479             0.00905818623             0.00165189037           
       0.825119              0.0100475799              0.0014807613           
       0.827760             0.00736939668             0.00128458583           
       0.830400             0.00906110689             0.00134064252           
       0.833040             0.00803570895             0.00132272062           
       0.835681             0.00591906156             0.00129055804           
       0.838321              0.0051376599             0.00100917738           
       0.840961             0.00962417665             0.00150491723           
       0.843602             0.00550088532             0.00104336388           
       0.846242             0.00650414687             0.00113435735           
       0.848883              0.0051898176             0.00103694935           
       0.851523             0.00827437556             0.00129306567           
       0.854163             0.00870567616             0.00141050098           
       0.856804             0.00628275736             0.00107739069           
       0.859444             0.00601524823             0.00103291669           
       0.862085             0.00886201951             0.00130670304           
       0.864725             0.00850928279             0.00131039154           
       0.867365             0.00589463911             0.00101134449           
       0.870006             0.00832583009             0.00114536038           
       0.872646             0.00799544612             0.00117699736           
       0.875286             0.00751448372             0.00109775827           
       0.877927             0.00832125625              0.0011146998           
       0.880567             0.00739943962             0.00108900823           
       0.883208              0.0077140671             0.00110144449           
       0.885848             0.00710226327             0.00109734333           
       0.888488               0.006991845             0.00102120822           
       0.891129             0.00641723418             0.00100455688           
       0.893769             0.00762070031              0.0010476634           
       0.896410             0.00747331235             0.00096729749           
       0.899050             0.00620681253            0.000969444926           
       0.901690             0.00627154357              0.0010614995           
       0.904331             0.00906091477              0.0011311607           
       0.906971             0.00541185333            0.000930005854           
       0.909611             0.00715564725            0.000973489451           
       0.912252             0.00861140375             0.00110306202           
       0.914892             0.00640792801             0.00103981773           
       0.917533             0.00599163325            0.000951175107           
       0.920173             0.00700136323            0.000953970902           
       0.922813             0.00658236483            0.000970667797           
       0.925454             0.00717850811            0.000912782223           
       0.928094             0.00699471466            0.000961916254           
       0.930734              0.0070509471             0.00103976367           
       0.933375             0.00733509228             0.00105008194           
       0.936015             0.00717317759             0.00094311428           
       0.938656             0.00629966878              0.0009481378           
       0.941296             0.00750904787            0.000938134728           
       0.943936             0.00596492354            0.000819957731           
       0.946577             0.00878802005            0.000988675608           
       0.949217             0.00706201778            0.000815018133           
       0.951858              0.0085469662            0.000938583144           
       0.954498             0.00690762298            0.000976664594           
       0.957138             0.00681637779            0.000919124701           
       0.959779             0.00685639086            0.000908723524           
       0.962419             0.00889996462             0.00102844174           
       0.965059             0.00984430268             0.00113758994           
       0.967700              0.0071520589            0.000993099847           
       0.970340             0.00862766427            0.000965203069           
       0.972981             0.00750267764            0.000820057557           
       0.975621             0.00660148942            0.000818329951           
       0.978261             0.00795156024            0.000853370542           
       0.980902             0.00705049663            0.000961426131           
       0.983542              0.0059582918            0.000782685843           
       0.986182             0.00992474243            0.000991759862           
       0.988823             0.00720252611             0.00082036917           
       0.991463             0.00722203517            0.000876432876           
       0.994104              0.0105250802             0.00103213308           
       0.996744              0.0076802365            0.000899305094           
       0.999384             0.00707987393            0.000772204829           
       1.002025             0.00871623053            0.000956312228           
       1.004665             0.00842797034            0.000859378047           
       1.007306             0.00772409879            0.000818498708           
       1.009946             0.00695512391            0.000792112967           
       1.012586             0.00787229866            0.000820763746           
       1.015227             0.00711852508            0.000838481051           
       1.017867             0.00822429523            0.000866168183           
       1.020507             0.00778923572             0.00081650879           
       1.023148             0.00916089986            0.000955465386           
       1.025788             0.00912607389            0.000874419571           
       1.028429             0.00736181863            0.000822796903           
       1.031069             0.00856053005            0.000834944837           
       1.033709             0.00917942745            0.000919071975           
       1.036350             0.00741934013            0.000742107489           
       1.038990             0.00730539257            0.000749918854           
       1.041630             0.00847029808            0.000842229321           
       1.044271             0.00867187387            0.000801455683           
       1.046911             0.00820010763             0.00081977505           
       1.049552             0.00752616992            0.000825126313           
       1.052192             0.00739248967            0.000746723573           
       1.054832             0.00821319322            0.000794242953           
       1.057473             0.00671325985            0.000707861009           
       1.060113             0.00904233458            0.000801211676           
       1.062754             0.00791578391            0.000765371331           
       1.065394             0.00968127267            0.000894896145           
       1.068034             0.00890396362            0.000780861564           
       1.070675             0.00776220627            0.000760519599           
       1.073315             0.00935809175            0.000847017371           
       1.075955             0.00771627096            0.000726107123           
       1.078596             0.00709170231            0.000739817184           
       1.081236             0.00905568937            0.000800531282           
       1.083877             0.00806489744            0.000748692526           
       1.086517             0.00807231411            0.000803186551           
       1.089157             0.00791703035            0.000825341258           
       1.091798             0.00891766725             0.00076795753           
       1.094438             0.00931427718            0.000782315924           
       1.097078             0.00803957184            0.000697092123           
       1.099719             0.00927837439            0.000810023423           
       1.102359             0.00844316762            0.000723648498           
       1.105000             0.00992866794            0.000877481465           
       1.107640             0.00757535424            0.000732867881           
       1.110280              0.0091369829            0.000734382288           
       1.112921             0.00822436294            0.000748451441           
       1.115561             0.00961158197            0.000768995498           
       1.118202             0.00956301909            0.000767773116           
       1.120842             0.00872305873            0.000770681936           
       1.123482             0.00889913324            0.000775021316           
       1.126123             0.00868690049            0.000734457538           
       1.128763               0.009314707            0.000765748875           
       1.131403             0.00859094174            0.000708618487           
       1.134044             0.00693291057            0.000655037696           
       1.136684              0.0085126402            0.000773870825           
       1.139325             0.00991112647            0.000769221197           
       1.141965             0.00870220764            0.000725547879           
       1.144605             0.00839838447            0.000679628021           
       1.147246             0.00964347784            0.000745317615           
       1.149886             0.00972477291            0.000745795591           
       1.152527             0.00899753184            0.000727799587           
       1.155167             0.00840271885            0.000668975313           
       1.157807             0.00844607318            0.000719108718           
       1.160448             0.00853565475            0.000705942272           
       1.163088             0.00986911303             0.00072405442           
       1.165728              0.0101409388            0.000753568587           
       1.168369              0.0110535518             0.00079401458           
       1.171009             0.00943811426            0.000712038651           
       1.173650             0.00926453456            0.000723970768           
       1.176290             0.00880389316            0.000689669276           
       1.178930             0.00885552366            0.000677917808           
       1.181571             0.00938627271            0.000711777801           
       1.184211             0.00868512199            0.000687104698           
       1.186851             0.00987876653            0.000716449412           
       1.189492             0.00846808957            0.000658863265           
       1.192132             0.00924943624            0.000680863212           
       1.194773             0.00935560211            0.000687751461           
       1.197413             0.00919406226            0.000653249457           
       1.200053             0.00894800951            0.000660823468           
       1.202694              0.0100977184            0.000667556839           
       1.205334             0.00967961517            0.000704365892           
       1.207975             0.00854003173            0.000631520975           
       1.210615             0.00959639279             0.00073850672           
       1.213255              0.0100634835            0.000677218852           
       1.215896              0.0102970546             0.00069744492           
       1.218536             0.00950500031            0.000644314782           
       1.221176             0.00872587432            0.000671178464           
       1.223817             0.00930996516             0.00065079204           
       1.226457               0.010213838            0.000695384711           
       1.229098              0.0102188666            0.000695521985           
       1.231738              0.0108984436             0.00072181173           
       1.234378             0.00803759097             0.00058246643           
       1.237019              0.0105833158             0.00068875194           
       1.239659             0.00946229785            0.000645580712           
       1.242299             0.00899492296            0.000621438052           
       1.244940              0.0101518825            0.000642081294           
       1.247580             0.00999917472            0.000656721539           
       1.250221              0.0104249143            0.000666419004           
       1.252861             0.00998353196            0.000620858131           
       1.255501             0.00901636248            0.000640647789           
       1.258142              0.0107971052            0.000658774878           
       1.260782              0.0103956722            0.000660398949           
       1.263423              0.0103027075            0.000631724965           
       1.266063              0.0106545548            0.000658463534           
       1.268703             0.00982301463            0.000627000137           
       1.271344              0.0111981393             0.00069213819           
       1.273984              0.0112102242            0.000668829557           
       1.276624              0.0100885002            0.000622565587           
       1.279265             0.00955060515            0.000615800679           
       1.281905              0.0107960935            0.000657629425           
       1.284546              0.0107793879            0.000635166486           
       1.287186             0.00954803919            0.000586494037           
       1.289826              0.0101771988            0.000638156954           
       1.292467              0.0107163395            0.000640418686           
       1.295107             0.00989318445            0.000609218581           
       1.297747              0.0105508216            0.000602036014           
       1.300388              0.0107539159            0.000662581712           
       1.303028              0.0110416343            0.000640946147           
       1.305669             0.00966511535            0.000613943122           
       1.308309             0.00973256513            0.000610014697           
       1.310949              0.0115337108            0.000663398517           
       1.313590              0.0115167635            0.000642189098           
       1.316230              0.0109931269            0.000669544211           
       1.318871              0.0110164508            0.000656431609           
       1.321511              0.0101379522            0.000618042657           
       1.324151              0.0106298527            0.000614097049           
       1.326792              0.0097651371            0.000592228462           
       1.329432              0.0109965994            0.000624027471           
       1.332072               0.011005447            0.000614974801           
       1.334713              0.0110281091            0.000635368184           
       1.337353               0.011558421             0.00062380928           
       1.339994              0.0123679342            0.000677161686           
       1.342634              0.0115191011            0.000626676277           
       1.345274              0.0121068914            0.000664892139           
       1.347915              0.0110722232            0.000618287686           
       1.350555              0.0105832952            0.000615069175           
       1.353195               0.011381532            0.000640975874           
       1.355836              0.0120720942            0.000649841242           
       1.358476              0.0111047333            0.000605281165           
       1.361117              0.0106122427            0.000592519153           
       1.363757              0.0111176241            0.000624981778           
       1.366397              0.0117157395            0.000622158419           
       1.369038              0.0101782534            0.000585673725           
       1.371678              0.0108860571            0.000600355749           
       1.374319              0.0111125072            0.000601344793           
       1.376959              0.0122801521            0.000625791689           
       1.379599              0.0114887568            0.000648688983           
       1.382240              0.0112848226            0.000604234983           
       1.384880              0.0109036133            0.000629119071           
       1.387520              0.0110137825            0.000600504721           
       1.390161              0.0109509057            0.000568704899           
       1.392801              0.0122728858            0.000627281696           
       1.395442              0.0103525984            0.000583989824           
       1.398082              0.0106912803             0.00055575455           
       1.400722              0.0116876471            0.000608662052           
       1.403363              0.0117203314            0.000641585976           
       1.406003              0.0116204804             0.00059787512           
       1.408644              0.0108173224            0.000604281523           
       1.411284              0.0125090186            0.000615319015           
       1.413924              0.0115841754            0.000589940545           
       1.416565              0.0123371661            0.000606420773           
       1.419205              0.0119674664            0.000623043284           
       1.421845              0.0112984364            0.000605022044           
       1.424486              0.0118470986            0.000595518534           
       1.427126              0.0112664714            0.000603278635           
       1.429767              0.0100209423            0.000535317925           
       1.432407              0.0116085853            0.000602970523           
       1.435047              0.0103478786            0.000534656002           
       1.437688              0.0112991493            0.000567044387           
       1.440328              0.0112714141            0.000578021725           
       1.442968              0.0110999646            0.000586460763           
       1.445609              0.0103599216            0.000548600448           
       1.448249              0.0106555668            0.000570460193           
       1.450890              0.0112738037            0.000582946081           
       1.453530               0.011157791            0.000606732767           
       1.456170             0.00968398743            0.000548581912           
       1.458811              0.0114583399            0.000570602437           
       1.461451              0.0110611339            0.000562095835           
       1.464092              0.0102917569            0.000545739516           
       1.466732              0.0118135651            0.000579672905           
       1.469372              0.0104088016            0.000531383703           
       1.472013              0.0106871358            0.000580719924           
       1.474653              0.0105656659            0.000568502978           
       1.477293              0.0117659691             0.00061257111           
       1.479934               0.010684662            0.000557014523           
       1.482574              0.0106770677            0.000538632999           
       1.485215              0.0105995991            0.000546671089           
       1.487855              0.0104424043            0.000549760129           
       1.490495              0.0110206328            0.000562696007           
       1.493136              0.0108090472            0.000549629808           
       1.495776              0.0110664954            0.000553604515           
       1.498416              0.0119812144            0.000594875909           
       1.501057              0.0119991429            0.000582200835           
       1.503697              0.0114408797            0.000555795527           
       1.506338              0.0109880223            0.000554637905           
       1.508978              0.0113561358            0.000558306839           
       1.511618              0.0105424924              0.0005728975           
       1.514259              0.0106751222            0.000556573997           
       1.516899              0.0104561762            0.000536332425           
       1.519540              0.0116502036            0.000575256877           
       1.522180              0.0107462135            0.000557341253           
       1.524820              0.0104756119            0.000547191952           
       1.527461              0.0107992644            0.000558328341           
       1.530101              0.0113147753              0.0005657835           
       1.532741              0.0110530975            0.000555957505           
       1.535382              0.0109761407            0.000562937729           
       1.538022               0.011157308            0.000534675818           
       1.540663              0.0111083356             0.00057381339           
       1.543303               0.010673287            0.000522257656           
       1.545943             0.00973594063            0.000527940824           
       1.548584              0.0109439503            0.000569783744           
       1.551224              0.0105227538            0.000516581692           
       1.553864             0.00936044619            0.000514835978           
       1.556505              0.0098734283            0.000510791155           
       1.559145              0.0109478356            0.000544454081           
       1.561786              0.0105745595            0.000535503868           
       1.564426              0.0106991632            0.000521895414           
       1.567066              0.0117447562            0.000572944147           
       1.569707             0.00898373375             0.00049209223           
       1.572347              0.0100319379            0.000537220825           
       1.574988              0.0101323555            0.000513897003           
       1.577628             0.00997085711            0.000531580143           
       1.580268               0.010248995            0.000522178739           
       1.582909              0.0106355188            0.000563829062           
       1.585549               0.010562323            0.000545572881           
       1.588189              0.0104065645             0.00052971605           
       1.590830             0.00931845536             0.00050062897           
       1.593470             0.00997208914            0.000538395771           
       1.596111             0.00900060256            0.000499381427           
       1.598751             0.00924932532            0.000490524129           
       1.601391             0.00986845529            0.000517854197           
       1.604032              0.0094294339            0.000516786455           
       1.606672             0.00971608961            0.000509682017           
       1.609312             0.00852854585             0.00049847444           
       1.611953             0.00799905526             0.00047240365           
       1.614593              0.0104046308             0.00052849536           
       1.617234             0.00836519802            0.000491115466           
       1.619874             0.00932696982            0.000516531501           
       1.622514              0.0103953656            0.000537874821           
       1.625155             0.00963632859            0.000520924969           
       1.627795             0.00988512604            0.000514679601           
       1.630436             0.00964245274             0.00050566853           
       1.633076             0.00951232145            0.000508831914           
       1.635716             0.00984752433            0.000509664333           
       1.638357             0.00922371287            0.000494557538           
       1.640997             0.00809622566            0.000477381495           
       1.643637             0.00893010422            0.000487883003           
       1.646278             0.00962193605            0.000522341158           
       1.648918             0.00944475148             0.00051892118           
       1.651559             0.00938528136            0.000521299768           
       1.654199             0.00967677967            0.000514823242           
       1.656839             0.00964626387            0.000514190274           
       1.659480             0.00820404241            0.000492003345           
       1.662120             0.00968881273              0.0005035752           
       1.664761             0.00984489921            0.000527281257           
       1.667401             0.00931736768            0.000490279715           
       1.670041              0.0091983793            0.000494566844           
       1.672682             0.00986072803            0.000509958844           
       1.675322             0.00911222902            0.000487069808           
       1.677962             0.00891633201            0.000476490852           
       1.680603             0.00935537008            0.000489582987           
       1.683243             0.00847735078            0.000486228865           
       1.685884             0.00941480776            0.000516192527           
       1.688524             0.00900661891            0.000495119131           
       1.691164             0.00917696781            0.000499892913           
       1.693805             0.00863725998            0.000490298149           
       1.696445             0.00889622124            0.000500480298           
       1.699085             0.00788908835            0.000455507801           
       1.701726             0.00898406609            0.000468265223           
       1.704366             0.00907603336            0.000495823054           
       1.707007             0.00900979323            0.000482998369           
       1.709647             0.00812906388             0.00046396536           
       1.712287              0.0083048275            0.000473036275           
       1.714928             0.00917612116             0.00050124056           
       1.717568               0.009034307            0.000468507764           
       1.720209             0.00827663132             0.00046970096           
       1.722849             0.00930286005            0.000495409551           
       1.725489             0.00868801046             0.00047916029           
       1.728130             0.00943676965            0.000530702447           
       1.730770             0.00914488715            0.000496168643           
       1.733410             0.00831764241            0.000465756956           
       1.736051              0.0084864069            0.000473732923           
       1.738691             0.00847354862            0.000463777994           
       1.741332             0.00806480163            0.000465683931           
       1.743972             0.00891642198            0.000505651383           
       1.746612             0.00782860242            0.000454971883           
       1.749253             0.00910251972            0.000500283616           
       1.751893             0.00802415655            0.000466267995           
       1.754533             0.00940595129            0.000504349394           
       1.757174             0.00892231831            0.000486612084           
       1.759814             0.00835917155            0.000463865621           
       1.762455             0.00871891222            0.000482440717           
       1.765095             0.00788283619            0.000438827895           
       1.767735             0.00945603426            0.000495453571           
       1.770376             0.00878615458            0.000478840942           
       1.773016             0.00942131125            0.000492525504           
       1.775657             0.00896044566            0.000473416681           
       1.778297             0.00901458812            0.000470755983           
       1.780937             0.00986165077            0.000519703691           
       1.783578              0.0076484414            0.000446241742           
       1.786218             0.00841634532            0.000488521271           
       1.788858             0.00838459247            0.000463101268           
       1.791499             0.00755791356            0.000434741225           
       1.794139             0.00759971748            0.000432404999           
       1.796780             0.00916422038            0.000472542624           
       1.799420             0.00877506742            0.000459840011           
       1.802060             0.00846592387             0.00045531561           
       1.804701             0.00908927474            0.000452742025           
       1.807341             0.00878884703            0.000467805124           
       1.809981             0.00958037867            0.000490044937           
       1.812622             0.00911099929            0.000469286033           
       1.815262             0.00942400131            0.000487417466           
       1.817903             0.00866739771            0.000460516024           
       1.820543             0.00787010364            0.000445662112           
       1.823183             0.00973470799            0.000495379618           
       1.825824             0.00859786792            0.000444773473           
       1.828464             0.00891926021            0.000472282642           
       1.831105             0.00899896268            0.000461272288           
       1.833745             0.00838121517            0.000454665698           
       1.836385              0.0083622723             0.00046711238           
       1.839026             0.00878756217            0.000477330435           
       1.841666             0.00895810156            0.000480231007           
       1.844306             0.00873708886            0.000461329236           
       1.846947             0.00784717328            0.000441036512           
       1.849587             0.00809804045            0.000494734642           
       1.852228             0.00948747164            0.000484222607           
       1.854868             0.00807759255            0.000471975536           
       1.857508             0.00888531609            0.000490156106           
       1.860149             0.00890556996            0.000499630018           
       1.862789             0.00832498439            0.000466273525           
       1.865429              0.0088921547            0.000503024798           
       1.868070             0.00844936753            0.000483805373           
       1.870710              0.0085888727            0.000476537376           
       1.873351             0.00803619736            0.000466648785           
       1.875991             0.00943520318            0.000513891023           
       1.878631             0.00833625714            0.000473786381           
       1.881272             0.00899562255            0.000488869504           
       1.883912             0.00880476017            0.000503344667           
       1.886553             0.00906071019             0.00050489964           
       1.889193             0.00793943292            0.000471819608           
       1.891833             0.00811892185            0.000495510924           
       1.894474             0.00793621551            0.000485637198           
       1.897114             0.00806423802            0.000473716226           
       1.899754             0.00791256541            0.000471203579           
       1.902395             0.00886224362            0.000488930001           
       1.905035             0.00794236851            0.000490246554           
       1.907676             0.00868060037             0.00048305561           
       1.910316             0.00826794485            0.000483951525           
       1.912956             0.00768987546            0.000456458745           
       1.915597             0.00840222477            0.000479799158           
       1.918237             0.00730707235            0.000462095831           
       1.920878             0.00801437936            0.000481963109           
       1.923518             0.00806039301            0.000483549778           
       1.926158             0.00799369972            0.000475296368           
       1.928799              0.0074998846            0.000455052465           
       1.931439             0.00827334749            0.000490477497           
       1.934079             0.00837903687            0.000514566275           
       1.936720             0.00848712176            0.000479825721           
       1.939360             0.00837058907             0.00050838061           
       1.942001             0.00849087176             0.00046929276           
       1.944641             0.00817739982            0.000469620226           
       1.947281             0.00780566512            0.000454592706           
       1.949922             0.00758833612            0.000462971137           
       1.952562             0.00813805074            0.000494475824           
       1.955202             0.00778389287            0.000483007171           
       1.957843             0.00750244505            0.000461897328           
       1.960483             0.00731844205            0.000476954375           
       1.963124             0.00744231265            0.000471106477           
       1.965764             0.00768264784            0.000451382977           
       1.968404              0.0074758903            0.000441060619           
       1.971045             0.00846910526            0.000478624821           
       1.973685             0.00825406557            0.000495627038           
       1.976326             0.00778457337            0.000474709823           
       1.978966             0.00884501472            0.000510451832           
       1.981606             0.00730682149            0.000473624401           
       1.984247              0.0078493348            0.000487664953           
       1.986887             0.00767909073            0.000476569523           
       1.989527             0.00720543132             0.00045666624           
       1.992168             0.00805797961            0.000501078279           
       1.994808             0.00797461191            0.000496342695           
       1.997449             0.00859311255            0.000504650084           
       2.000089             0.00823592288             0.00049209163           
       2.002729             0.00766396202            0.000474981625           
       2.005370             0.00786079846            0.000475866652           
       2.008010             0.00819034015            0.000506938198           
       2.010650             0.00824936889            0.000512557996           
       2.013291             0.00805302614            0.000485883477           
       2.015931             0.00816831232            0.000485889887           
       2.018572             0.00765591164            0.000503140569           
       2.021212             0.00745745536            0.000487654701           
       2.023852             0.00847848237            0.000492124683           
       2.026493             0.00647831279            0.000449396263           
       2.029133             0.00795779159            0.000488051763           
       2.031774             0.00774874084            0.000505426979           
       2.034414             0.00826224182            0.000480225485           
       2.037054             0.00789803013            0.000481422507           
       2.039695              0.0078922487            0.000477611629           
       2.042335             0.00701449743            0.000467929141           
       2.044975               0.007614563            0.000481620878           
       2.047616             0.00825093634            0.000500097028           
       2.050256             0.00740388876            0.000478215056           
       2.052897             0.00791339396            0.000503510185           
       2.055537             0.00807260141            0.000491494198           
       2.058177             0.00702805022            0.000449087911           
       2.060818             0.00735100996             0.00048114235           
       2.063458             0.00741092562            0.000503437341           
       2.066098             0.00730014479            0.000471347139           
       2.068739             0.00828914736            0.000510068857           
       2.071379             0.00749600518            0.000497702904           
       2.074020             0.00717155734            0.000476232987           
       2.076660             0.00792849733            0.000504783185           
       2.079300              0.0067958253            0.000478788108           
       2.081941             0.00766017919             0.00046542971           
       2.084581             0.00796542255            0.000500957983           
       2.087222             0.00793937468            0.000482335509           
       2.089862             0.00703617647            0.000494553381           
       2.092502             0.00718239952            0.000484354626           
       2.095143             0.00734913755            0.000505940943           
       2.097783             0.00851472858            0.000527251604           
       2.100423             0.00760587192            0.000480175742           
       2.103064             0.00740087531            0.000491486519           
       2.105704             0.00814391445            0.000513015102           
       2.108345             0.00780859085            0.000482616772           
       2.110985             0.00616223772            0.000457916169           
       2.113625             0.00738715049            0.000505741552           
       2.116266             0.00666227535            0.000487101837           
       2.118906             0.00729622416              0.0004750588           
       2.121546             0.00740106611            0.000469324498           
       2.124187             0.00743395855             0.00049373929           
       2.126827             0.00781623472            0.000511925329           
       2.129468              0.0074886343            0.000502362314           
       2.132108             0.00755591895            0.000490951124           
       2.134748             0.00752767796            0.000488131555           
       2.137389             0.00709339276            0.000494334699           
       2.140029             0.00749273528            0.000454845569           
       2.142670             0.00794324325            0.000500503675           
       2.145310             0.00708073885            0.000459941233           
       2.147950             0.00756489354            0.000489322112           
       2.150591             0.00714496766             0.00047074122           
       2.153231             0.00729846677            0.000489732215           
       2.155871             0.00690188456            0.000460080392           
       2.158512             0.00751056225            0.000500782385           
       2.161152             0.00830963939            0.000510242166           
       2.163793             0.00704836768            0.000467810504           
       2.166433             0.00785997914            0.000507296987           
       2.169073             0.00738914313             0.00048091741           
       2.171714             0.00727813483             0.00047372331           
       2.174354             0.00700652567            0.000485673005           
       2.176995             0.00710801544            0.000487119511           
       2.179635             0.00680161342            0.000503529898           
       2.182275             0.00746663598             0.00049811173           
       2.184916             0.00742288335            0.000479699568           
       2.187556              0.0078628528            0.000488762922           
       2.190196              0.0079629229            0.000513990542           
       2.192837             0.00722210977            0.000486834722           
       2.195477             0.00760898112            0.000476408337           
       2.198118             0.00835700319            0.000512070035           
       2.200758             0.00733263211            0.000492102638           
       2.203398             0.00713432533            0.000488508007           
       2.206039              0.0075778059             0.00047648446           
       2.208679             0.00745958581             0.00048375535           
       2.211319              0.0070690976            0.000473638896           
       2.213960             0.00688849959            0.000473813983           
       2.216600             0.00798890809            0.000527849847           
       2.219241             0.00679178377             0.00046515076           
       2.221881              0.0070025893            0.000473285452           
       2.224521             0.00667211551             0.00046764365           
       2.227162              0.0070762092            0.000471954111           
       2.229802             0.00731141571            0.000494751218           
       2.232443             0.00723350566            0.000484346161           
       2.235083             0.00784716074            0.000519353331           
       2.237723             0.00746495697            0.000486106009           
       2.240364             0.00704536423            0.000483880993           
       2.243004              0.0073248912            0.000489448225           
       2.245644             0.00731668872            0.000494070458           
       2.248285             0.00699292096            0.000473339095           
       2.250925             0.00812334991            0.000513264033           
       2.253566             0.00767138738            0.000533235448           
       2.256206              0.0073359468            0.000511020594           
       2.258846             0.00732215656            0.000485664816           
       2.261487             0.00703179631            0.000499540962           
       2.264127             0.00845662286            0.000529074135           
       2.266767             0.00770513204            0.000518474536           
       2.269408             0.00714763298            0.000501410386           
       2.272048             0.00733995449             0.00050507836           
       2.274689             0.00742120777            0.000514558086           
       2.277329             0.00699637377            0.000470417711           
       2.279969             0.00728140333            0.000510830722           
       2.282610             0.00772571152            0.000511550649           
       2.285250             0.00704309249            0.000467492548           
       2.287891              0.0066023649            0.000485287057           
       2.290531             0.00691895908            0.000503464116           
       2.293171             0.00731329217            0.000504201203           
       2.295812             0.00680333313            0.000484349716           
       2.298452             0.00761563734            0.000535886284           
       2.301092             0.00729529778            0.000487319936           
       2.303733             0.00746581298             0.00051287368           
       2.306373              0.0076011608            0.000525651625           
       2.309014             0.00764811344            0.000516986711           
       2.311654             0.00765224747            0.000539645956           
       2.314294             0.00692191909            0.000472857731           
       2.316935             0.00710887436            0.000481180713           
       2.319575             0.00683547306            0.000494376066           
       2.322215             0.00749102223            0.000539363765           
       2.324856             0.00784809877            0.000507570299           
       2.327496             0.00701538705            0.000510271518           
       2.330137             0.00652004774            0.000470737595           
       2.332777             0.00656432808            0.000487026069           
       2.335417             0.00721572437            0.000495376853           
       2.338058             0.00743282061             0.00051779267           
       2.340698             0.00705984512            0.000500668553           
       2.343339             0.00861149018            0.000565126016           
       2.345979             0.00740346104            0.000495736838           
       2.348619             0.00756516652             0.00051943929           
       2.351260              0.0075419489            0.000515619861           
       2.353900             0.00763980686            0.000517310265           
       2.356540             0.00709229133            0.000497721339           
       2.359181             0.00675917255            0.000479080033           
       2.361821             0.00677809071            0.000463425724           
       2.364462             0.00680266229            0.000485563056           
       2.367102             0.00823392445            0.000548983202           
       2.369742              0.0069483193            0.000530818565           
       2.372383             0.00679095268            0.000475180756           
       2.375023             0.00742999341            0.000522492372           
       2.377663             0.00719246183            0.000491528965           
       2.380304             0.00725813423            0.000502000861           
       2.382944             0.00680506859            0.000462976311           
       2.385585             0.00661765497            0.000486925428           
       2.388225             0.00781210443            0.000526561224           
       2.390865             0.00734109099            0.000505197175           
       2.393506              0.0066964697            0.000473403881           
       2.396146             0.00729220795            0.000534149152           
       2.398787             0.00688419634            0.000478290282           
       2.401427             0.00730616123            0.000475598651           
       2.404067             0.00614332301            0.000445839355           
       2.406708             0.00778257987            0.000495791577           
       2.409348             0.00657899592            0.000483512757           
       2.411988             0.00702964881             0.00048969196           
       2.414629             0.00664541957            0.000490949265           
       2.417269             0.00736221349            0.000522782148           
       2.419910             0.00798902632            0.000545845914           
       2.422550             0.00631130202            0.000464168643           
       2.425190             0.00694972734            0.000513433067           
       2.427831             0.00711191689            0.000516469977           
       2.430471             0.00750135221            0.000505329407           
       2.433112             0.00645571352            0.000456488223           
       2.435752             0.00639098905            0.000480679162           
       2.438392             0.00723404873            0.000493606923           
       2.441033              0.0074171482            0.000529703093           
       2.443673             0.00710649472            0.000518890235           
       2.446313             0.00822424052            0.000558699685           
       2.448954             0.00728414765            0.000500634308           
       2.451594             0.00746687784            0.000545008929           
       2.454235             0.00637505376            0.000472494823           
       2.456875             0.00727567542            0.000528168211           
       2.459515             0.00721771038            0.000539678352           
       2.462156             0.00719160678            0.000508609304           
       2.464796             0.00765152789            0.000517852219           
       2.467436             0.00722033769            0.000520212016           
       2.470077             0.00789615402            0.000515625763           
       2.472717             0.00735250306            0.000499714117           
       2.475358             0.00708933361            0.000495805899           
       2.477998              0.0083721386            0.000529716114           
       2.480638             0.00822256719            0.000534291105           
       2.483279             0.00757449652             0.00053596157           
       2.485919             0.00717173392            0.000502601306           
       2.488560              0.0073147936            0.000506171143           
       2.491200             0.00747250676            0.000526811541           
       2.493840              0.0067043135            0.000528005807           
       2.496481             0.00691751438            0.000527562263           
       2.499121             0.00737874598             0.00052996952           
       2.501761              0.0067565949             0.00051385425           
       2.504402              0.0080846804            0.000553879913           
       2.507042             0.00676807812            0.000503022802           
       2.509683             0.00717899707            0.000510150238           
       2.512323             0.00787797258            0.000561261796           
       2.514963             0.00756747549            0.000543293944           
       2.517604             0.00697241535            0.000541132296           
       2.520244             0.00615346287            0.000476588704           
       2.522884             0.00754572588            0.000535304994           
       2.525525              0.0128629406            0.000706842214           
       2.528165             0.00920788846            0.000588720836           
       2.530806             0.00759276348            0.000543918659           
       2.533446             0.00884180527            0.000574426424           
       2.536086             0.00824902387            0.000549870747           
       2.538727             0.00735928791            0.000498256997           
       2.541367             0.00807792607            0.000527160086           
       2.544008             0.00636400267            0.000483231729           
       2.546648             0.00668412918             0.00050373118           
       2.549288             0.00742976432            0.000541906175           
       2.551929             0.00703648089            0.000518962344           
       2.554569              0.0063523155            0.000475048674           
       2.557209             0.00734261592             0.00051542769           
       2.559850             0.00650425706            0.000486668869           
       2.562490             0.00816745807            0.000563652215           
       2.565131             0.00690112434            0.000537206844           
       2.567771             0.00695907317            0.000520118117           
       2.570411              0.0070723068            0.000518659351           
       2.573052              0.0068653892            0.000517451235           
       2.575692             0.00727340813            0.000529380527           
       2.578332             0.00699767231            0.000521396366           
       2.580973             0.00713928867            0.000521634993           
       2.583613             0.00686676594            0.000499400882           
       2.586254             0.00612260121            0.000470909209           
       2.588894             0.00648201736            0.000503165472           
       2.591534             0.00610492257            0.000505492711           
       2.594175             0.00700815008            0.000531377093           
       2.596815             0.00676418686            0.000525124302           
       2.599456             0.00603948881            0.000470541609           
       2.602096             0.00796739354            0.000544563695           
       2.604736             0.00682917274             0.00051612212           
       2.607377             0.00805937944             0.00054590948           
       2.610017              0.0069866616              0.0004993872           
       2.612657              0.0073541918            0.000544965606           
       2.615298              0.0069680482            0.000517901263           
       2.617938             0.00788423761            0.000589320145           
       2.620579             0.00790937148            0.000566642407           
       2.623219             0.00631869836            0.000505745913           
       2.625859             0.00699590345            0.000517406697           
       2.628500             0.00779569648            0.000542602267           
       2.631140             0.00723969282            0.000530951584           
       2.633780             0.00629756504            0.000494770134           
       2.636421             0.00713632181            0.000539641428           
       2.639061             0.00730067841             0.00051382707           
       2.641702             0.00798560317            0.000549830471           
       2.644342             0.00683243215            0.000510750959           
       2.646982              0.0072555857            0.000518461058           
       2.649623             0.00756002233            0.000554607944           
       2.652263             0.00700544611            0.000528521066           
       2.654904             0.00771149194            0.000555073256           
       2.657544             0.00697507856             0.00049723161           
       2.660184             0.00650633005            0.000508226619           
       2.662825             0.00636222192            0.000514226238           
       2.665465             0.00707341908            0.000524402751           
       2.668105             0.00634815961             0.00052363732           
       2.670746             0.00817195003            0.000548834309           
       2.673386             0.00866516164             0.00058243641           
       2.676027             0.00826257255            0.000559617348           
       2.678667             0.00951114132            0.000585852666           
       2.681307              0.0103530826             0.00060057138           
       2.683948              0.0151919581            0.000747478849           
       2.686588              0.0138226113            0.000701171939           
       2.689229              0.0106791833            0.000602231655           
       2.691869             0.00951343697            0.000600755024           
       2.694509              0.0104534644            0.000630082453           
       2.697150             0.00760921635            0.000528851147           
       2.699790             0.00806859003            0.000570914714           
       2.702430             0.00883012532            0.000570898793           
       2.705071             0.00760080541            0.000547314137           
       2.707711             0.00754278517            0.000529178026           
       2.710352             0.00754428693            0.000559198476           
       2.712992             0.00684156908            0.000542364828           
       2.715632             0.00647964449            0.000489716084           
       2.718273             0.00695602084            0.000525850302           
       2.720913             0.00694309348            0.000523866619           
       2.723553             0.00661953405             0.00051494649           
       2.726194             0.00704125806            0.000555171008           
       2.728834             0.00796744301            0.000590833131           
       2.731475             0.00752621509            0.000529973448           
       2.734115             0.00809131682            0.000566564021           
       2.736755             0.00766623111            0.000556019858           
       2.739396             0.00680447138            0.000520802418           
       2.742036             0.00666862988            0.000539584771           
       2.744677             0.00595210241            0.000494620046           
       2.747317             0.00680025764             0.00052491776           
       2.749957             0.00719117094            0.000543582603           
       2.752598             0.00729721484            0.000553518476           
       2.755238             0.00734503668            0.000565354185           
       2.757878             0.00633134588            0.000520304771           
       2.760519             0.00758035393             0.00056328089           
       2.763159             0.00897794246            0.000606885615           
       2.765800             0.00786346338            0.000541266516           
       2.768440             0.00785538086            0.000544973672           
       2.771080             0.00770706022            0.000544310021           
       2.773721             0.00650755126            0.000513064356           
       2.776361             0.00635142733            0.000513865287           
       2.779001             0.00748090065            0.000577541443           
       2.781642             0.00659208737            0.000538152422           
       2.784282             0.00747793659            0.000582596864           
       2.786923             0.00756840989             0.00059127118           
       2.789563             0.00710196876            0.000551636533           
       2.792203              0.0067201438            0.000512608894           
       2.794844             0.00684679012            0.000567080147           
       2.797484             0.00651509812            0.000522060882           
       2.800125             0.00595418687            0.000524784894           
       2.802765             0.00755656134            0.000581026385           
       2.805405             0.00656167829            0.000543261154           
       2.808046             0.00791370141            0.000607098799           
       2.810686             0.00663690311            0.000510872864           
       2.813326             0.00657161684            0.000528039469           
       2.815967             0.00663085378            0.000545495219           
       2.818607              0.0061676847            0.000502042473           
       2.821248             0.00676974606            0.000515055817           
       2.823888             0.00810434362            0.000584971878           
       2.826528             0.00680748326            0.000519214514           
       2.829169             0.00643023723            0.000528564296           
       2.831809             0.00701029629             0.00055939689           
       2.834449             0.00709306157            0.000566245421           
       2.837090             0.00644514627            0.000521326792           
       2.839730             0.00693694881            0.000538210655           
       2.842371             0.00732188293            0.000553739851           
       2.845011             0.00760929046            0.000569002929           
       2.847651             0.00709053701            0.000549939656           
       2.850292              0.0067854598            0.000543258538           
       2.852932             0.00707687859            0.000566892695           
       2.855573             0.00626974842            0.000517594203           
       2.858213             0.00698134828             0.00057355287           
       2.860853             0.00614532841            0.000500572021           
       2.863494             0.00689108998             0.00054881954           
       2.866134             0.00644604625            0.000551702583           
       2.868774             0.00678966072            0.000556474532           
       2.871415             0.00667777728             0.00056046674           
       2.874055             0.00656771901            0.000531303359           
       2.876696             0.00721458018            0.000571915419           
       2.879336              0.0074665956            0.000560761252           
       2.881976             0.00698342999            0.000559359836           
       2.884617             0.00764530557            0.000576671827           
       2.887257             0.00743131027            0.000571478479           
       2.889897             0.00703700175            0.000544665094           
       2.892538             0.00688445242            0.000590179667           
       2.895178             0.00702978142            0.000538786343           
       2.897819             0.00587316463            0.000502368747           
       2.900459             0.00644678377            0.000516091163           
       2.903099             0.00723776347            0.000541238472           
       2.905740             0.00792994985            0.000581185745           
       2.908380             0.00691483157            0.000548879872           
       2.911021              0.0074745057            0.000579938422           
       2.913661             0.00615929561            0.000526291113           
       2.916301             0.00694444997            0.000559362571           
       2.918942             0.00675747242            0.000527791944           
       2.921582             0.00658481908            0.000545122143           
       2.924222             0.00707655521            0.000547482724           
       2.926863             0.00689021883            0.000562708376           
       2.929503             0.00715809561            0.000580337524           
       2.932144             0.00641380221            0.000527330939           
       2.934784             0.00665756115            0.000528448705           
       2.937424              0.0069008661             0.00054354204           
       2.940065             0.00619320197            0.000491184126           
       2.942705             0.00671975533            0.000510996857           
       2.945346             0.00775341581            0.000582514849           
       2.947986             0.00683896173            0.000557838327           
       2.950626             0.00728969947            0.000572685165           
       2.953267             0.00771238781            0.000579537051           
       2.955907             0.00641729562            0.000548394857           
       2.958547             0.00823195032            0.000586359974           
       2.961188             0.00691768963            0.000560781962           
       2.963828             0.00665463096            0.000538017527           
       2.966469             0.00745522091             0.00055864018           
       2.969109             0.00636953961            0.000524014692           
       2.971749             0.00663387072            0.000531441152           
       2.974390             0.00703968501            0.000537974554           
       2.977030             0.00787674423            0.000581778058           
       2.979670             0.00873663221            0.000595979855           
       2.982311             0.00841448652            0.000606207892           
       2.984951              0.0069885778            0.000525439685           
       2.987592             0.00662323176            0.000521766314           
       2.990232             0.00657551359            0.000540673074           
       2.992872             0.00735837812             0.00053874816           
       2.995513             0.00969894719            0.000605120744           
       2.998153              0.0120943658            0.000687080106           
       3.000794              0.0118657598            0.000659187994           
       3.003434              0.0103157926            0.000615556683           
       3.006074              0.0305883968             0.00104511723           
       3.008715               0.100362848             0.00182743337           
       3.011355               0.229681242             0.00266587859           
       3.013995               0.140567912             0.00209122471           
       3.016636              0.0801693183             0.00154649843           
       3.019276               0.142772895              0.0020286765           
       3.021917               0.493958601             0.00362832668           
       3.024557                1.36739366             0.00593523427           
       3.027197                1.15725955             0.00532338211           
       3.029838               0.589047938             0.00385180748           
       3.032478               0.270049073             0.00261066986           
       3.035118               0.071188263             0.00135838411           
       3.037759              0.0784549494              0.0014241898           
       3.040399               0.107062825             0.00171615616           
       3.043040               0.418964919             0.00343650697           
       3.045680               0.402864989              0.0031705333           
       3.048320               0.116250114             0.00174018899           
       3.050961                0.11386664             0.00175260364           
       3.053601              0.0946938635             0.00153931441           
       3.056242              0.0734485461             0.00144137861           
       3.058882              0.0641382714             0.00144485618           
       3.061522               0.048669705             0.00123485832           
       3.064163              0.0635417189             0.00139320082           
       3.066803               0.125326811             0.00205989835           
       3.069443               0.115008864             0.00206455989           
       3.072084              0.0393544275             0.00117597627           
       3.074724               0.041040098             0.00134112832           
       3.077365              0.0714942044             0.00183237831           
       3.080005              0.0135635506            0.000802639256           
       3.082645              0.0127512318            0.000817552194           
       3.085286              0.0148553224            0.000889392468           
       3.087926              0.0105944635            0.000745301077           
       3.090566              0.0113153784            0.000754687819           
       3.093207              0.0111699225            0.000780266848           
       3.095847             0.00865442085            0.000658297567           
       3.098488             0.00940378838            0.000760885284           
       3.101128              0.0102330261            0.000798829038           
       3.103768             0.00875844676            0.000725131704           
       3.106409             0.00923052637             0.00079226047           
       3.109049             0.00888337012            0.000745858967           
       3.111690             0.00978659382            0.000769419892           
       3.114330             0.00698444984             0.00066382821           
       3.116970             0.00776073178            0.000705118879           
       3.119611              0.0109901437            0.000893164482           
       3.122251              0.0189336106             0.00122628694           
       3.124891               0.034786696             0.00167767788           
       3.127532              0.0237456781             0.00135600838           
       3.130172              0.0161012891             0.00113590145           
       3.132813             0.00952339693            0.000860016494           
       3.135453             0.00945568167            0.000849894612           
       3.138093             0.00725331915            0.000806547865           
       3.140734             0.00580265557            0.000665545522           
       3.143374             0.00579565092            0.000703418544           
       3.146014             0.00611378334            0.000777768154           
       3.148655              0.0085392991            0.000854474101           
       3.151295             0.00747863431            0.000852150104           
       3.153936             0.00577545536            0.000723371904           
       3.156576             0.00474970052            0.000647073778           
       3.159216             0.00605192344            0.000734064529           
       3.161857             0.00678547232            0.000774116774           
       3.164497             0.00768096192            0.000865382036           
       3.167138              0.0104022757             0.00104056009           
       3.169778             0.00673717589            0.000823607179           
       3.172418             0.00492432496            0.000696970561           
       3.175059              0.0069921113            0.000736282921           
       3.177699             0.00588713389            0.000715424268           
       3.180339             0.00618122657            0.000785434164           
       3.182980             0.00725477478             0.00087975609           
       3.185620             0.00486742862            0.000733879647           
       3.188261             0.00596162433            0.000826683286           
       3.190901             0.00609432124            0.000768723798           
       3.193541             0.00535575915            0.000757218512           
       3.196182             0.00616092974            0.000846372093           
       3.198822             0.00639764379            0.000862767496           
       3.201463             0.00606183348              0.0008253502           
       3.204103              0.0065596729            0.000853349584           
       3.206743             0.00388038655            0.000656270102           
       3.209384             0.00596519557            0.000879119511           
       3.212024             0.00483665355            0.000738023347           
       3.214664             0.00626889719            0.000955450226           
       3.217305             0.00604595544            0.000891925627           
       3.219945             0.00710756567            0.000995361664           
       3.222586             0.00580994284            0.000857163774           
       3.225226             0.00466504568            0.000852063888           
       3.227866             0.00518898819            0.000821347561           
       3.230507             0.00515198896            0.000848375572           
       3.233147             0.00582968205            0.000909737109           
       3.235787             0.00532391526            0.000889700567           
       3.238428              0.0083040482             0.00119907295           
       3.241068             0.00663034585             0.00100185174           
       3.243709             0.00628920406             0.00100809237           
       3.246349             0.00511297446            0.000828591339           
       3.248989             0.00560357265             0.00102424554           
       3.251630             0.00590368516              0.0010123884           
       3.254270             0.00690871535            0.000978791044           
       3.256911             0.00559786112              0.0009613274           
       3.259551             0.00611973693             0.00108212306           
       3.262191             0.00435410008            0.000932344931           
       3.264832             0.00501216627             0.00104518741           
       3.267472             0.00631560966             0.00110063087           
       3.270112             0.00466651735              0.0010455453           
       3.272753             0.00748619564             0.00121213721           
       3.275393             0.00568911414              0.0010781818           
       3.278034             0.00529417048             0.00104067009           
       3.280674             0.00602558103             0.00120475542           
       3.283314             0.00577180949             0.00105454479           
       3.285955              0.0034740355            0.000844137997           
       3.288595             0.00534790987             0.00116520677           
       3.291235             0.00507221224             0.00116653875           
       3.293876             0.00497524647             0.00117193661           
       3.296516             0.00406487013             0.00101695454           
       3.299157             0.00370343503            0.000958493166           
       3.301797             0.00514803274              0.0012890595           
       3.304437             0.00652522359             0.00125735783           
       3.307078             0.00441018495             0.00113867132           
       3.309718             0.00684236625              0.0014639574           
       3.312359             0.00468384674             0.00121151772           
       3.314999             0.00483466694             0.00121189094           
       3.317639             0.00528685882             0.00121201583           
       3.320280             0.00468929978             0.00121361519           
       3.322920             0.00548998054             0.00133524565           
       3.325560             0.00383226975             0.00111634583           
       3.328201             0.00737572265             0.00139480935           
       3.330841             0.00428025748             0.00129318422           
       3.333482             0.00450098872             0.00125347799           
       3.336122             0.00451451317             0.00125593684           
       3.338762             0.00650164567             0.00174106187           
       3.341403             0.00765900543             0.00180566683           
       3.344043             0.00352158445              0.0011755173           
       3.346683             0.00367064924             0.00122524371           
       3.349324             0.00516362625             0.00163388641           
       3.351964             0.00515357943             0.00172609226           
       3.354605             0.00605407811             0.00213957611           
       3.357245             0.00612198991              0.0019409207           
       3.359885             0.00629625032             0.00157538989           
       3.362526             0.00608936891             0.00193745416           
       3.365166             0.00603620841              0.0018194002           
       3.367807             0.00716129872             0.00253619722           
       3.370447             0.00740556877                0.00213939           
       3.373087             0.00698942632             0.00222258702           
       3.375728             0.00711462197             0.00253077276           
       3.378368             0.00398085833             0.00280954179           
       3.381008             0.00218148974             0.00155060743           
       3.383649             0.00697851224             0.00222480091           
       3.386289             0.00399809301             0.00199304323           
       3.388930              0.0025078874             0.00249682213           
       3.391570             0.00614673659             0.00276514798           
       3.394210             0.00401075343             0.00282669549           
       3.396851             0.00244378568             0.00246814914           
       3.399491             0.00232669054             0.00240896918           
       3.402131              0.0243912656              0.0110350826           
       3.404772             0.00974645147             0.00986737108           
       3.407412                       nan                       nan           
       3.410053             0.00934750424             0.00967520579           
       3.412693                       nan                       nan           
       3.415333              0.0181890883              0.0135092864           
