################################################################################
# EDF_DataBlockID                     0.Image.Psd
# EDF_BinarySize                      4366944
# EDF_HeaderSize                      2560
# ByteOrder                           LowByteFirst
# DataType                            FloatValue
# Dim_1                               1028
# Dim_2                               1062
# Image                               0
# HeaderID                            EH:000000:000000:000000
# Size                                4366944
# Center_1                            607.5200
# Center_2                            651.5500
# Comment                             Xenocs_Cell_Window - 20251028_20perc_iodine_1.23mg
# DDummy                              0.6
# Date                                2025-10-31T01:45:52
# Delta                               0
# Dummy                               -1.5
# ExposureTime                        360
# Gamma                               0
# Intensity1                          8.55387e-10
# PSize_1                             7.5e-05
# PSize_2                             7.5e-05
# Pressure                            0.0327997
# SampleDistance                      0.450002
# SampleEnvKind                       large
# SampleEnvPN                         ElectroChemical cell
# SampleEnvSN                         1141
# Thickness                           0
# Wavelength                          1.541891e-10
# Wavelength                          1.54189e-10
# aux                                 0
# aux_dial                            0.002375
# beamx                               588.434
# beamx_dial                          588.434
# beamz                               657.808
# beamz_dial                          657.808
# det0x                               0
# det0x_dial                          6.36945
# det0xvd                             0
# det0xvd_dial                        0
# det0y                               450.002
# det0y_dial                          481.635
# det0z                               0
# det0z_dial                          1.23302
# det0zvd                             0
# det0zvd_dial                        0
# mag                                 1.818
# mag_dial                            1.818
# om                                  0.2499
# om_dial                             -0.610199
# phi                                 -0.0120535
# phi_dial                            0
# ry                                  0.599993
# ry_dial                             0.599993
# s1bot                               0.8
# s1bot_dial                          -1.66094
# s1hl                                0.8
# s1hl_dial                           -0.608437
# s1hr                                0.8
# s1hr_dial                           0.970938
# s1top                               0.8
# s1top_dial                          -0.461562
# s2bot                               0.45
# s2bot_dial                          1.36109
# s2hl                                0.45
# s2hl_dial                           -0.83375
# s2hr                                0.45
# s2hr_dial                           -0.118594
# s2top                               0.45
# s2top_dial                          1.44734
# w2theta                             32
# w2theta_dial                        32
# waxsch                              19.2605
# waxsch_dial                         -32.7355
# waxsh                               137.085
# waxsh_dial                          -43.5338
# waxsth                              26.0607
# waxsth_dial                         -19.4086
# waxsz                               67.0407
# waxsz_dial                          -23.7954
# wind                                65.9854
# wind_dial                           66.0041
# wpsi                                124
# wpsi_dial                           124
# wstod                               115
# wstod_dial                          115
# x                                   0
# x_dial                              1.00969
# z                                   0
# z_dial                              13.3172
# CountCutoff                         15302352
# DetectorModel                       Dectris EIGER2 Si 1M, S/N E-02-0362
# ThresholdSetting                    4023.88989258
# Saturation                          0
# FlatField                           Corrected
# BackgroundReductionExtra            0.02
# BackgroundCorrectionConstant        0.0026712
# Detector                            0
# Monitor                             0
# Pil_Roi0                            0
# SumForIntensity1                    3.07939e+08
# TransmittedFlux                     855387
# det                                 0
# mon                                 0
# pilai0                              3.07939e+08
# pilai1                              773552
# pilct0                              5.33338e+08
# pilct1                              773552
# pilroi0                             0
# pilroi1                             0
# sec                                 1
# title                               20251028_20perc_iodine_1.23mg_0_00540.edf
# usaxs0                              0
# Operation                           Azimuthal average I(q)
# Error_model                         ErrorModel.poisson
# Geometrical_correction              True
# Transmission_correction             True
# Thickness_correction                False
# Binning mode                        Uniform
# Binning factor                      1.0
# Psi                                 0.0
# Omega                               0.2499
# MaskInvalidPixels                   True
# DetectorEdge                        3
# MaskFiles                           ['20251028_20perc_iodine_1.23mg_0_00012_mask.edf']
################################################################################
    q(A⁻¹)                Intensity(a.u.)            Sigma_I(a.u.)            
       0.000340                372887.518                120.544919           
       0.001019                359656.829                72.4969589           
       0.001698                349749.221                50.5520823           
       0.002377                330863.508                43.9774608           
       0.003056                308097.136                35.8662193           
       0.003735                253358.495                28.6838445           
       0.004415                204799.288                25.7889671           
       0.005094                153175.859                19.3150415           
       0.005773                101249.432                14.5386317           
       0.006452                59002.4163                10.6338713           
       0.007131                32394.1681                  7.633054           
       0.007810                16244.7519                5.36421729           
       0.008490                8131.28996                3.36404725           
       0.009169                3917.46787                2.30768084           
       0.009848                1203.04512                1.23643005           
       0.010527                465.287539               0.768934886           
       0.011206                117.451085               0.368715063           
       0.011885                54.0437623               0.232382392           
       0.012564                24.9213859               0.162012415           
       0.013244                17.0320446               0.125214772           
       0.013923                12.2227477               0.107784487           
       0.014602                9.42580186              0.0877841107           
       0.015281                7.53309762              0.0798863231           
       0.015960                 6.0431522              0.0710384259           
       0.016639                5.00736967              0.0610634041           
       0.017319                4.17749646              0.0549069103           
       0.017998                3.45252824              0.0477539108           
       0.018677                2.93352958              0.0455911671           
       0.019356                2.49348748              0.0415325096           
       0.020035                2.13942782              0.0360933053           
       0.020714                1.84284378              0.0338527795           
       0.021394                1.63235405              0.0301458202           
       0.022073                1.39330055              0.0289768843           
       0.022752                1.23291364              0.0260752895           
       0.023431                1.14730724              0.0244163067           
       0.024110                1.00235095              0.0237934116           
       0.024789               0.903157662              0.0209753298           
       0.025469                0.82017378              0.0205983305           
       0.026148               0.725052029              0.0181969501           
       0.026827               0.678191066              0.0178807162           
       0.027506               0.602618032              0.0170981045           
       0.028185               0.568405424              0.0158358845           
       0.028864               0.516129787              0.0150054488           
       0.029544               0.454302396              0.0136517335           
       0.030223               0.425400277              0.0133997756           
       0.030902               0.400895628              0.0131271524           
       0.031581               0.371768047              0.0120169132           
       0.032260               0.356053227              0.0119605724           
       0.032939               0.322152898              0.0109698507           
       0.033619               0.310833787              0.0109337734           
       0.034298               0.287119819              0.0102263989           
       0.034977               0.238587213             0.00913892139           
       0.035656               0.240968971             0.00942749835           
       0.036335               0.220536601             0.00874725652           
       0.037014               0.200927675             0.00837423067           
       0.037693               0.184571483             0.00772105181           
       0.038373               0.197832906             0.00807206338           
       0.039052               0.174820706             0.00762036201           
       0.039731                0.15406576             0.00698701083           
       0.040410               0.158155787             0.00703168405           
       0.041089               0.155753074              0.0068687603           
       0.041768               0.140193454             0.00655068911           
       0.042448                0.13939156             0.00648124286           
       0.043127               0.134687262             0.00622046878           
       0.043806               0.138198351             0.00634800801           
       0.044485               0.121438787             0.00582840832           
       0.045164               0.124508667             0.00601793293           
       0.045843              0.0984879507             0.00513348892           
       0.046523               0.105605919             0.00533411416           
       0.047202              0.0995106848             0.00521407483           
       0.047881              0.0972470011             0.00505502891           
       0.048560              0.0887974448             0.00487445794           
       0.049239              0.0972299793             0.00489755198           
       0.049918               0.087248095             0.00473004217           
       0.050598              0.0818058006             0.00451142685           
       0.051277               0.082804024             0.00452446572           
       0.051956               0.085913235             0.00457968708           
       0.052635              0.0780250048             0.00427175989           
       0.053314              0.0788907828              0.0044209791           
       0.053993              0.0770992636             0.00425062292           
       0.054673                0.07844554              0.0041920657           
       0.055352              0.0714085352             0.00405837121           
       0.056031              0.0752941746             0.00407976387           
       0.056710              0.0723678547             0.00409771022           
       0.057389              0.0655283833             0.00376010748           
       0.058068              0.0649349569              0.0037816275           
       0.058748              0.0636718263             0.00379137773           
       0.059427              0.0633922769             0.00371899524           
       0.060106              0.0626524776             0.00373222384           
       0.060785              0.0628523866             0.00362616899           
       0.061464              0.0626692422             0.00370815869           
       0.062143               0.060770965             0.00361447264           
       0.062822              0.0498134578             0.00323402769           
       0.063502              0.0569097491             0.00345054037           
       0.064181              0.0556817674             0.00337706831           
       0.064860              0.0512857845             0.00329038506           
       0.065539              0.0490167046              0.0031853169           
       0.066218              0.0513011482             0.00318892356           
       0.066897              0.0463907901             0.00305587919           
       0.067577              0.0434648034             0.00298635615           
       0.068256              0.0444132693              0.0030929182           
       0.068935              0.0428439118             0.00298866287           
       0.069614              0.0493129129              0.0032382818           
       0.070293              0.0468372759              0.0031850514           
       0.070972              0.0489819684             0.00323330899           
       0.071652              0.0401699084             0.00293342761           
       0.072331              0.0459165304             0.00308034621           
       0.073010              0.0387229736             0.00289341599           
       0.073689              0.0397593758             0.00291576968           
       0.074368              0.0420501087             0.00299313592           
       0.075047              0.0434110918             0.00300849971           
       0.075727              0.0408166811             0.00289919721           
       0.076406              0.0428811172             0.00303090155           
       0.077085              0.0464513359             0.00309559911           
       0.077764              0.0408374602             0.00289234782           
       0.078443              0.0420810276             0.00295423418           
       0.079122              0.0394455919             0.00283275295           
       0.079802              0.0428214072             0.00298278364           
       0.080481              0.0330132609             0.00253065643           
       0.081160               0.036634531             0.00272054451           
       0.081839               0.034242322             0.00258811151           
       0.082518              0.0355176761             0.00263808788           
       0.083197               0.039675193             0.00274489368           
       0.083876              0.0338292586             0.00249249985           
       0.084556              0.0360910725             0.00264607474           
       0.085235              0.0332543265             0.00249088357           
       0.085914              0.0310459335             0.00243013384           
       0.086593              0.0328540304             0.00248380774           
       0.087272              0.0359679242              0.0025621153           
       0.087951              0.0311229085             0.00243714953           
       0.088631               0.032913082             0.00242089683           
       0.089310              0.0286223512             0.00230546994           
       0.089989              0.0305056956             0.00235228582           
       0.090668              0.0320917514             0.00243929261           
       0.091347              0.0334253481             0.00250339814           
       0.092026              0.0289482679             0.00222683304           
       0.092706              0.0290708542             0.00231254163           
       0.093385              0.0308701598             0.00234643866           
       0.094064              0.0335937175             0.00247624823           
       0.094743              0.0260833246             0.00214870804           
       0.095422              0.0318463675              0.0023477715           
       0.096101              0.0258194707             0.00215751142           
       0.096781              0.0292865181             0.00226490491           
       0.097460              0.0282175935             0.00216254199           
       0.098139              0.0298975951             0.00220885941           
       0.098818              0.0287033063             0.00213763934           
       0.099497              0.0278849511             0.00211127193           
       0.100176              0.0300064377              0.0021326324           
       0.100856              0.0283917706             0.00207313048           
       0.101535               0.028842627             0.00208549618           
       0.102214              0.0261799913             0.00198691564           
       0.102893              0.0307955302             0.00213040344           
       0.103572               0.025955318             0.00192693715           
       0.104251              0.0275572471             0.00199284589           
       0.104931              0.0270397387             0.00195607318           
       0.105610              0.0296246218             0.00205616935           
       0.106289              0.0259267512             0.00189155229           
       0.106968              0.0251684702             0.00186921687           
       0.107647              0.0238116846             0.00181922712           
       0.108326              0.0269302002             0.00190880913           
       0.109005               0.024001719             0.00179069984           
       0.109685              0.0275692419             0.00189764528           
       0.110364              0.0231504139             0.00175868027           
       0.111043              0.0232178181             0.00175425547           
       0.111722              0.0244902785             0.00177966401           
       0.112401              0.0247289512             0.00179328796           
       0.113080              0.0253978029             0.00179655173           
       0.113760              0.0256570979             0.00183585931           
       0.114439              0.0232709007             0.00172345297           
       0.115118              0.0235424322             0.00172040782           
       0.115797              0.0254986426             0.00180704554           
       0.116476              0.0222764027             0.00166373379           
       0.117155              0.0204636041             0.00160746332           
       0.117835              0.0218361381             0.00162748609           
       0.118514              0.0227625308             0.00168271921           
       0.119193              0.0252473322             0.00177219806           
       0.119872              0.0206305975             0.00158195719           
       0.120551              0.0210449502             0.00158712168           
       0.121230              0.0231094763             0.00164641284           
       0.121910              0.0242652627             0.00170338719           
       0.122589              0.0233659134             0.00167324505           
       0.123268              0.0219926596             0.00159188151           
       0.123947              0.0212278707             0.00157407266           
       0.124626              0.0200521055             0.00151115416           
       0.125305              0.0228892608             0.00162244755           
       0.125985              0.0221716058                0.00158442           
       0.126664              0.0198742555             0.00148580058           
       0.127343              0.0195537271             0.00149085343           
       0.128022              0.0190179968             0.00145901139           
       0.128701              0.0183928917              0.0014273585           
       0.129380              0.0182242327              0.0014030043           
       0.130059              0.0189517635             0.00143405763           
       0.130739              0.0221899507             0.00156265587           
       0.131418              0.0218448261             0.00154611522           
       0.132097              0.0214966795             0.00151407533           
       0.132776              0.0192982081             0.00142808858           
       0.133455               0.019504179             0.00144684348           
       0.134134              0.0216349934             0.00151897579           
       0.134814              0.0198115913             0.00143858022           
       0.135493              0.0229379783             0.00155419675           
       0.136172              0.0205907352             0.00146141442           
       0.136851              0.0219224941             0.00151670437           
       0.137530              0.0180801893              0.0013446671           
       0.138209              0.0190131597             0.00139511364           
       0.138889              0.0191476751             0.00140621147           
       0.139568               0.017800253             0.00135524545           
       0.140247              0.0198293891             0.00142853217           
       0.140926              0.0188848179             0.00135423187           
       0.141605              0.0172514403             0.00132722653           
       0.142284              0.0232418989             0.00151499544           
       0.142964              0.0215791235             0.00146538026           
       0.143643              0.0174366642             0.00131557668           
       0.144322              0.0179532621             0.00130698914           
       0.145001              0.0193634544             0.00138521074           
       0.145680              0.0185678536             0.00132436303           
       0.146359              0.0193326434              0.0013563056           
       0.147039              0.0189074038             0.00135234886           
       0.147718              0.0220212633             0.00143538275           
       0.148397                0.01998861             0.00138878386           
       0.149076              0.0201086284             0.00134973543           
       0.149755              0.0186135535             0.00131864108           
       0.150434              0.0201429616              0.0013723056           
       0.151114              0.0179064743             0.00128672407           
       0.151793              0.0173351491             0.00126604224           
       0.152472              0.0185918092              0.0012879685           
       0.153151              0.0180585788             0.00128163609           
       0.153830              0.0203774416             0.00135151853           
       0.154509              0.0179807702             0.00126425745           
       0.155188              0.0182371224             0.00127276722           
       0.155868              0.0173863236             0.00123388071           
       0.156547              0.0182392831             0.00127190291           
       0.157226               0.018413687             0.00124675561           
       0.157905               0.019148695             0.00128207431           
       0.158584              0.0181505209             0.00124594376           
       0.159263              0.0166456949             0.00119756721           
       0.159943              0.0160791802             0.00117788981           
       0.160622              0.0186771443             0.00124498684           
       0.161301              0.0195240531             0.00128992605           
       0.161980              0.0173033665             0.00119370868           
       0.162659              0.0169274618             0.00119375756           
       0.163338              0.0183940919             0.00123425566           
       0.164018              0.0170138538             0.00118081503           
       0.164697              0.0175886034             0.00121601013           
       0.165376              0.0162581433             0.00114357064           
       0.166055              0.0173487064             0.00118909308           
       0.166734               0.016078166             0.00113959556           
       0.167413               0.017123518             0.00117688209           
       0.168093              0.0194625324             0.00126655763           
       0.168772              0.0159686586             0.00111370245           
       0.169451              0.0160291041             0.00113633728           
       0.170130              0.0170891897             0.00115790812           
       0.170809              0.0159844382             0.00113322001           
       0.171488              0.0185378879             0.00120925654           
       0.172168              0.0158343757             0.00110686962           
       0.172847              0.0197589023              0.0012526944           
       0.173526              0.0164726153              0.0011219671           
       0.174205              0.0171111287             0.00114877171           
       0.174884              0.0150824865             0.00107290619           
       0.175563              0.0160671422             0.00111210278           
       0.176243               0.016919552             0.00115264274           
       0.176922              0.0179334242              0.0011557506           
       0.177601              0.0152700905             0.00107820189           
       0.178280               0.014773294             0.00104867956           
       0.178959              0.0165205701             0.00111788169           
       0.179638               0.016886982             0.00112695588           
       0.180317              0.0181388554             0.00115947244           
       0.180997              0.0182638649             0.00116977603           
       0.181676              0.0172839794             0.00112581237           
       0.182355              0.0160170166              0.0010902736           
       0.183034              0.0156192506             0.00105937119           
       0.183713              0.0176421072              0.0011395946           
       0.184392                0.01769248             0.00114087514           
       0.185072              0.0173997961               0.001118505           
       0.185751              0.0173991798             0.00112159677           
       0.186430              0.0164313095              0.0010823206           
       0.187109              0.0156289307             0.00106731932           
       0.187788               0.016850984             0.00110552953           
       0.188467              0.0177251479             0.00112042427           
       0.189147              0.0159493883             0.00107358277           
       0.189826              0.0179370845             0.00111838358           
       0.190505              0.0160410809             0.00107503486           
       0.191184              0.0158306586             0.00105256883           
       0.191863              0.0166137859             0.00108056097           
       0.192542              0.0166613739             0.00109231196           
       0.193222               0.016183854             0.00105241961           
       0.193901              0.0157674364              0.0010527153           
       0.194580              0.0154694586             0.00102448081           
       0.195259              0.0167592316             0.00107858081           
       0.195938              0.0150195334             0.00102350364           
       0.196617              0.0163600794             0.00105329257           
       0.197297              0.0152199773             0.00102007708           
       0.197976              0.0173889396              0.0010735934           
       0.198655              0.0169361233             0.00107109573           
       0.199334              0.0147774923            0.000991687306           
       0.200013              0.0166809274             0.00105303695           
       0.200692              0.0151500223             0.00100958897           
       0.201371              0.0157941763             0.00101921921           
       0.202051              0.0163018387             0.00103868978           
       0.202730               0.018543518             0.00109674115           
       0.203409              0.0154445404             0.00100763018           
       0.204088              0.0156226695             0.00101230333           
       0.204767              0.0147259324            0.000977655458           
       0.205446              0.0147898748            0.000981690305           
       0.206126              0.0166045728             0.00102604231           
       0.206805              0.0152585876             0.00100160891           
       0.207484              0.0149599839            0.000973930551           
       0.208163              0.0152098005            0.000987929809           
       0.208842               0.015836328             0.00100534036           
       0.209521              0.0139461102            0.000935595386           
       0.210201              0.0162976565             0.00102268916           
       0.210880              0.0154148208            0.000975087094           
       0.211559              0.0138314507            0.000937307515           
       0.212238              0.0167864834             0.00102733608           
       0.212917              0.0163518633             0.00101018219           
       0.213596              0.0144709809             0.00095592856           
       0.214276              0.0150160244            0.000953477545           
       0.214955              0.0152702616            0.000981735354           
       0.215634              0.0147395075            0.000957610524           
       0.216313               0.017207755             0.00103251559           
       0.216992              0.0158381567            0.000990325707           
       0.217671              0.0140267634            0.000925662658           
       0.218351              0.0159469901            0.000996644326           
       0.219030              0.0165545107            0.000999422471           
       0.219709              0.0159343644            0.000986640452           
       0.220388              0.0147915494            0.000949380035           
       0.221067              0.0166938558             0.00100938248           
       0.221746              0.0163084331            0.000996640344           
       0.222426              0.0156265711            0.000961002948           
       0.223105              0.0143766953            0.000934327378           
       0.223784              0.0142043601            0.000919498503           
       0.224463              0.0144904154            0.000936106975           
       0.225142               0.014252366            0.000913696539           
       0.225821              0.0140227476            0.000909957057           
       0.226500              0.0150359615            0.000948249446           
       0.227180              0.0146416317              0.0009213164           
       0.227859              0.0170519109            0.000998721837           
       0.228538              0.0145805245            0.000914242889           
       0.229217              0.0150044141            0.000934778397           
       0.229896              0.0160362236            0.000965919795           
       0.230575              0.0157391374            0.000941676556           
       0.231255              0.0149327809            0.000930969805           
       0.231934              0.0157170854            0.000948580054           
       0.232613              0.0155501095            0.000947008876           
       0.233292              0.0141587294            0.000894917448           
       0.233971              0.0140837556            0.000892128376           
       0.234650              0.0148840039            0.000927911458           
       0.235330              0.0156488054            0.000943144398           
       0.236009              0.0144020916            0.000902845086           
       0.236688              0.0154775758            0.000932598945           
       0.237367              0.0151741231            0.000924752621           
       0.238046              0.0147064346             0.00091680138           
       0.238725              0.0150692565            0.000913723998           
       0.239405              0.0153754904            0.000928684808           
       0.240084              0.0149637368            0.000910331609           
       0.240763              0.0149130064            0.000917489091           
       0.241442              0.0141445982            0.000880948832           
       0.242121              0.0148170827            0.000903349337           
       0.242800              0.0139596786            0.000880974372           
       0.243480              0.0137150538            0.000869132632           
       0.244159              0.0129654639            0.000845456794           
       0.244838              0.0135991751             0.00085162433           
       0.245517              0.0151327285            0.000911282517           
       0.246196              0.0143849482            0.000888910283           
       0.246875              0.0159591922            0.000923235856           
       0.247554              0.0155885272            0.000921724871           
       0.248234              0.0136288897            0.000848776415           
       0.248913              0.0146477789            0.000889801973           
       0.249592              0.0152620414            0.000899636815           
       0.250271              0.0138608851            0.000854857031           
       0.250950              0.0141823764            0.000870010275           
       0.251629              0.0129326535            0.000823733414           
       0.252309              0.0137335819            0.000850580278           
       0.252988              0.0127065633            0.000804065364           
       0.253667              0.0125405739            0.000808129248           
       0.254346              0.0146097815             0.00087207653           
       0.255025              0.0124191873            0.000802281799           
       0.255704               0.013278786             0.00082578286           
       0.256384              0.0158268525            0.000898418928           
       0.257063              0.0128265848            0.000813403826           
       0.257742               0.015145956            0.000877767335           
       0.258421              0.0146207615            0.000860754505           
       0.259100              0.0144122941            0.000856086302           
       0.259779              0.0140909217            0.000845770211           
       0.260459              0.0135377879            0.000830631814           
       0.261138              0.0132460733            0.000805577129           
       0.261817              0.0123676845             0.00079412166           
       0.262496              0.0139146055            0.000834061528           
       0.263175              0.0130227735            0.000808623192           
       0.263854               0.012606496            0.000791897998           
       0.264534              0.0134756132            0.000811747898           
       0.265213              0.0134979798            0.000825224092           
       0.265892              0.0119768743            0.000767377795           
       0.266571              0.0108367321            0.000728279196           
       0.267250              0.0129277757            0.000796785873           
       0.267929              0.0130604416            0.000800042588           
       0.268609              0.0126475307            0.000791604859           
       0.269288              0.0110788406            0.000728580499           
       0.269967              0.0123496965            0.000777522044           
       0.270646              0.0139260575            0.000822085941           
       0.271325              0.0116118456             0.00075193188           
       0.272004               0.013138379             0.00079185897           
       0.272683                0.01107098            0.000727790308           
       0.273363              0.0106296617            0.000717685278           
       0.274042              0.0127921845            0.000782666541           
       0.274721              0.0122426923            0.000765218249           
       0.275400              0.0119780295            0.000751890333           
       0.276079              0.0125863697            0.000775123854           
       0.276758              0.0121993827            0.000772744848           
       0.277438              0.0112503503            0.000733749152           
       0.278117              0.0125105322            0.000787822913           
       0.278796              0.0123972243            0.000776286774           
       0.279475              0.0112703839            0.000752393455           
       0.280154              0.0114339813            0.000746933632           
       0.280833               0.011759433             0.00076209575           
       0.281513              0.0117371333            0.000773317737           
       0.282192              0.0103270909            0.000713005393           
       0.282871              0.0116216558            0.000761661534           
       0.283550              0.0107728716            0.000737250225           
       0.284229              0.0105191754            0.000739217571           
       0.284908              0.0107567274            0.000755402363           
       0.285588              0.0102469277            0.000728650824           
       0.286267              0.0119016521            0.000797856857           
       0.286946              0.0102111888            0.000734219714           
       0.287625              0.0110754834            0.000777681185           
       0.288304              0.0116228366            0.000786003018           
       0.288983               0.010992117            0.000774058947           
       0.289663              0.0110151124            0.000779403371           
       0.290342              0.0115604962            0.000794214959           
       0.291021              0.0104982248            0.000760923915           
       0.291700             0.00960655966            0.000718383614           
       0.292379              0.0103042633            0.000761048705           
       0.293058              0.0112103891            0.000790807436           
       0.293738             0.00992753428            0.000737936086           
       0.294417                0.01012089            0.000753748023           
       0.295096              0.0108790314            0.000772878419           
       0.295775              0.0086241406            0.000698644697           
       0.296454             0.00921937773            0.000713009415           
       0.297133              0.0116354997            0.000804797799           
       0.297812              0.0103090217             0.00076133491           
       0.298492              0.0100099558            0.000751659906           
       0.299171             0.00951372915            0.000731405592           
       0.299850             0.00909965197            0.000710427041           
       0.300529             0.00926335178            0.000724862981           
       0.301208             0.00901524129            0.000716829775           
       0.301887                0.01064683            0.000778074404           
       0.302567             0.00951518648            0.000731878614           
       0.303246             0.00971140703            0.000744213755           
       0.303925             0.00862972708            0.000710552034           
       0.304604             0.00969004677            0.000736681737           
       0.305283             0.00907374779            0.000723442671           
       0.305962              0.0092335237            0.000725375542           
       0.306642             0.00921349954            0.000734429546           
       0.307321             0.00949461142             0.00074316872           
       0.308000             0.00910324664            0.000719065459           
       0.308679             0.00851663674            0.000710573252           
       0.309358             0.00843080135            0.000697419969           
       0.310037             0.00865464073             0.00070819202           
       0.310717             0.00898067504            0.000720713996           
       0.311396             0.00823281115             0.00069468109           
       0.312075             0.00742939307            0.000668283592           
       0.312754              0.0093402759            0.000734323798           
       0.313433             0.00989754739             0.00076248676           
       0.314112             0.00794796552            0.000683119681           
       0.314792             0.00782386441            0.000682551707           
       0.315471             0.00786318401             0.00067580264           
       0.316150             0.00965609174            0.000755826688           
       0.316829             0.00842582639             0.00071069989           
       0.317508             0.00859182532            0.000709613478           
       0.318187             0.00977015471            0.000766692916           
       0.318866             0.00915689942            0.000732242228           
       0.319546             0.00924471584            0.000746773629           
       0.320225             0.00986298076            0.000771355842           
       0.320904             0.00937800273            0.000740522585           
       0.321583             0.00743252206            0.000673778073           
       0.322262             0.00760749173            0.000671331431           
       0.322941              0.0077502327            0.000686281507           
       0.323621             0.00848772508            0.000713809068           
       0.324300             0.00749465951            0.000671278316           
       0.324979             0.00885799031            0.000731103242           
       0.325658             0.00674295734            0.000639033292           
       0.326337             0.00847935232            0.000717540005           
       0.327016             0.00723222859            0.000658468321           
       0.327696             0.00916719976            0.000749584538           
       0.328375             0.00756242814            0.000675075917           
       0.329054             0.00797359919            0.000696944682           
       0.329733             0.00752150387             0.00067937035           
       0.330412              0.0078697771            0.000689227173           
       0.331091             0.00812546596            0.000713037847           
       0.331771             0.00703721564            0.000646185461           
       0.332450             0.00804812799            0.000704458314           
       0.333129             0.00732632423            0.000670392015           
       0.333808             0.00742011089            0.000675561036           
       0.334487             0.00712245521            0.000665010528           
       0.335166             0.00709139464            0.000653847532           
       0.335846             0.00723228122            0.000671914437           
       0.336525             0.00678045617            0.000644164306           
       0.337204             0.00638295746            0.000626635864           
       0.337883              0.0058438917            0.000600386125           
       0.338562              0.0065354652            0.000638441635           
       0.339241             0.00606553655            0.000616212633           
       0.339921             0.00791374456            0.000692057474           
       0.340600             0.00683760718            0.000655500981           
       0.341279             0.00675013809            0.000644320516           
       0.341958             0.00549998574             0.00058980811           
       0.342637             0.00601592276            0.000608137781           
       0.343316             0.00690562961             0.00065344354           
       0.343995             0.00612395707            0.000625426257           
       0.344675              0.0074277937             0.00067613647           
       0.345354              0.0061525726             0.00061942413           
       0.346033             0.00599894531            0.000610047441           
       0.346712             0.00684900697            0.000655997689           
       0.347391             0.00717167178            0.000675428648           
       0.348070             0.00741037143            0.000676826617           
       0.348750              0.0054711588            0.000589966739           
       0.349429             0.00587332246            0.000603374046           
       0.350108             0.00575861496            0.000604642394           
       0.350787             0.00683384594            0.000647486335           
       0.351466             0.00546660791            0.000589772351           
       0.352145             0.00586187005            0.000611228758           
       0.352825             0.00598676751            0.000614908169           
       0.353504             0.00498736655            0.000561103775           
       0.354183             0.00591071115            0.000603802372           
       0.354862             0.00561814892             0.00060234866           
       0.355541             0.00509427306            0.000566066084           
       0.356220             0.00610331008             0.00062076655           
       0.356900             0.00585194662            0.000613622694           
       0.357579             0.00500169579            0.000560340068           
       0.358258             0.00523355243            0.000581112364           
       0.358937             0.00557466932               0.000588476           
       0.359616             0.00580776607            0.000609040848           
       0.360295              0.0065188524            0.000645786683           
       0.360975             0.00455775191            0.000537672092           
       0.361654             0.00468026817            0.000547659689           
       0.362333             0.00500621055            0.000563528705           
       0.363012             0.00580303687            0.000614527439           
       0.363691             0.00506131447            0.000562589198           
       0.364370             0.00569995793            0.000604435648           
       0.365050             0.00513105818            0.000570410552           
       0.365729             0.00496534922            0.000566474507           
       0.366408             0.00448430251             0.00053952736           
       0.367087             0.00532795264            0.000578660961           
       0.367766             0.00516974636            0.000581881497           
       0.368445              0.0051789342            0.000572058104           
       0.369124             0.00602908023            0.000622076559           
       0.369804             0.00576396457            0.000607272316           
       0.370483             0.00504156348            0.000570428898           
       0.371162             0.00450122583            0.000542119384           
       0.371841             0.00427401178            0.000519049102           
       0.372520             0.00500270421            0.000572812082           
       0.373199             0.00466850253            0.000546737215           
       0.373879              0.0049274085            0.000568196344           
       0.374558              0.0038225252            0.000493151391           
       0.375237             0.00542131542            0.000588259252           
       0.375916             0.00517426239               0.000585709           
       0.376595             0.00515435848            0.000573156016           
       0.377274             0.00487144635             0.00056612351           
       0.377954             0.00510871004            0.000570638884           
       0.378633             0.00464835074             0.00055119984           
       0.379312             0.00359418702            0.000484563081           
       0.379991             0.00446901997            0.000537529709           
       0.380670             0.00409173125            0.000523430311           
       0.381349             0.00299637724            0.000441491775           
       0.382029             0.00536155362            0.000599029519           
       0.382708             0.00557184918             0.00059732906           
       0.383387             0.00476042755            0.000564636812           
       0.384066             0.00462187467            0.000551254395           
       0.384745             0.00405385655            0.000518299834           
       0.385424             0.00527175095            0.000593057595           
       0.386104             0.00489735903            0.000565293894           
       0.386783              0.0040409737            0.000524601974           
       0.387462             0.00427695425             0.00052627611           
       0.388141              0.0036841488            0.000496245453           
       0.388820             0.00389640874            0.000506651615           
       0.389499             0.00341933844            0.000477294284           
       0.390178             0.00371184271            0.000499270599           
       0.390858             0.00437046046            0.000537373612           
       0.391537             0.00474540246            0.000565667836           
       0.392216              0.0041545129            0.000522645344           
       0.392895             0.00430977336            0.000534115124           
       0.393574             0.00323750811            0.000461780131           
       0.394253             0.00426084851            0.000532141647           
       0.394933             0.00437136178            0.000545157789           
       0.395612             0.00409667871            0.000512422052           
       0.396291             0.00415145961            0.000526338494           
       0.396970             0.00419451883            0.000524373624           
       0.397649             0.00502416147            0.000575660769           
       0.398328             0.00406219884            0.000515349984           
       0.399008             0.00384258273            0.000500136349           
       0.399687             0.00413342544            0.000520735926           
       0.400366             0.00358056839            0.000482807716           
       0.401045             0.00376684571            0.000494271113           
       0.401724             0.00364905607            0.000487293815           
       0.402403             0.00470166825            0.000557440375           
       0.403083             0.00506791509            0.000570399505           
       0.403762              0.0041548097            0.000519010753           
       0.404441             0.00388504107            0.000505074983           
       0.405120             0.00359659742            0.000484370252           
       0.405799             0.00497361312            0.000567122306           
       0.406478             0.00465984507            0.000548955797           
       0.407158             0.00418157615             0.00051904595           
       0.407837             0.00386442821            0.000503378721           
       0.408516             0.00466002393             0.00054796354           
       0.409195             0.00467650699            0.000555158844           
       0.409874             0.00431768857            0.000540857572           
       0.410553             0.00352740848            0.000494118437           
       0.411233             0.00349517719            0.000489307197           
       0.411912             0.00276307428             0.00044121846           
       0.412591             0.00316688145            0.000475486414           
       0.413270             0.00320684041            0.000476203653           
       0.413949             0.00263330524            0.000436236818           
       0.414628             0.00312824099            0.000474614896           
       0.415307             0.00357261352            0.000512847799           
       0.415987             0.00380162875            0.000524670534           
       0.416666             0.00439228176            0.000560565113           
       0.417345             0.00285716213            0.000459664449           
       0.418024             0.00271642407            0.000448211837           
       0.418703             0.00358175987            0.000513729126           
       0.419382             0.00338007838            0.000496610504           
       0.420062             0.00210684812            0.000393173488           
       0.420741             0.00301243615            0.000472639498           
       0.421420             0.00347651887            0.000509667956           
       0.422099             0.00191967647            0.000378739274           
       0.422778              0.0033062274            0.000499733169           
       0.423457             0.00280729955            0.000463304266           
       0.424137             0.00182875781            0.000367844408           
       0.424816             0.00222624742            0.000414338863           
       0.425495             0.00245320725             0.00043453527           
       0.426174             0.00261413983            0.000448718899           
       0.426853             0.00294738129            0.000473567679           
       0.427532             0.00231387722            0.000423146202           
       0.428212             0.00358869664            0.000530452025           
       0.428891             0.00256882545            0.000447771149           
       0.429570             0.00312065136            0.000493865034           
       0.430249             0.00193084233            0.000386454482           
       0.430928             0.00274959995            0.000471253108           
       0.431607             0.00287246129             0.00047339046           
       0.432287              0.0021361414            0.000411222227           
       0.432966             0.00266093495            0.000463001154           
       0.433645             0.00194245229            0.000395998385           
       0.434324             0.00247038938            0.000443889758           
       0.435003             0.00199296404            0.000399377206           
       0.435682             0.00235893797            0.000438065641           
       0.436361             0.00243106589            0.000444117274           
       0.437041             0.00308795096            0.000499867073           
       0.437720             0.00261560134            0.000462269081           
       0.438399             0.00198907943            0.000405224333           
       0.439078             0.00386206526            0.000581023668           
       0.439757             0.00217304676            0.000433146519           
       0.440436             0.00184874007            0.000408523528           
       0.441116              0.0028268221            0.000513419693           
       0.441795             0.00387377105            0.000601745954           
       0.442474             0.00266867999            0.000500845494           
       0.443153              0.0020329854            0.000447340474           
       0.443832             0.00193943488            0.000437663255           
       0.444511             0.00251907253            0.000496548355           
       0.445191             0.00225360584            0.000481079889           
       0.445870             0.00284619191            0.000540657426           
       0.446549             0.00303687248            0.000564363679           
       0.447228               0.001943603            0.000448940278           
       0.447907             0.00169143051            0.000423830399           
       0.448586             0.00379310027            0.000649962108           
       0.449266             0.00175584111            0.000438147418           
       0.449945             0.00271422531            0.000542532254           
       0.450624              0.0027339386            0.000553145731           
       0.451303             0.00230598109            0.000514596151           
       0.451982             0.00214996257            0.000493811288           
       0.452661             0.00308606913             0.00060264962           
       0.453341             0.00275010906            0.000570895101           
       0.454020             0.00312855221            0.000609837854           
       0.454699             0.00270655498            0.000572399985           
       0.455378             0.00234683317            0.000533292279           
       0.456057             0.00281322831            0.000594268235           
       0.456736             0.00142906232            0.000422230131           
       0.457416             0.00240402632            0.000547653134           
       0.458095             0.00235956052            0.000550416706           
       0.458774             0.00244016769            0.000567136776           
       0.459453             0.00153226168            0.000451678375           
       0.460132             0.00158236444            0.000449090921           
       0.460811             0.00200359409            0.000524196699           
       0.461490             0.00236682554            0.000563940057           
       0.462170             0.00216021706             0.00054717156           
       0.462849              0.0013653183            0.000437823911           
       0.463528               0.002059905            0.000536534732           
       0.464207              0.0011226242            0.000403499024           
       0.464886              0.0018100267            0.000508361729           
       0.465565             0.00215649247            0.000560982219           
       0.466245               0.001289693            0.000435174932           
       0.466924            0.000749268295            0.000339530605           
       0.467603            0.000712992675            0.000324184268           
       0.468282            0.000760908882             0.00034284198           
       0.468961             0.00234448423            0.000605752201           
       0.469640             0.00141527733            0.000472521108           
       0.470320             0.00282653326            0.000668232443           
       0.470999            0.000952879905            0.000391648649           
       0.471678             0.00146762377            0.000490726429           
       0.472357            0.000831172911            0.000370329669           
       0.473036             0.00100715564            0.000410226591           
       0.473715            0.000859420358             0.00038191132           
       0.474395              0.0019395304            0.000581661364           
       0.475074             0.00106154978            0.000430333102           
       0.475753            0.000713974275             0.00034987441           
       0.476432             0.00078123532            0.000379307765           
       0.477111             0.00110855124            0.000446369809           
       0.477790            0.000772699117            0.000374659183           
       0.478470            0.000428962577            0.000282843684           
       0.479149              0.0013732281            0.000511301504           
       0.479828            0.000990424532            0.000433204396           
       0.480507            0.000633239902            0.000349183448           
       0.481186             0.00107203267            0.000464573918           
       0.481865           -0.000122185764                         0           
       0.482545            0.000279604494            0.000237073465           
       0.483224            0.000889730375            0.000425792036           
       0.483903            0.000102542172            0.000146827413           
       0.484582            0.000329432638            0.000267451371           
       0.485261             0.00151860546            0.000559679061           
       0.485940            0.000795609976            0.000421446284           
       0.486619            0.000104887663             0.00015133887           
       0.487299            0.000357071206            0.000283683788           
       0.487978            0.000774115555             0.00041344005           
       0.488657            0.000160689489            0.000196139376           
       0.489336           -8.67550067e-05                         0           
       0.490015             0.00036525172            0.000292809326           
       0.490694            0.000168529639            0.000204397437           
       0.491374           -7.70480683e-05                         0           
       0.492053           -0.000319213084                         0           
       0.492732           -0.000319232387                         0           
       0.493411           -0.000319251942                         0           
       0.494090           -0.000319271625                         0           
       0.494769           -0.000319290927                         0           
       0.495449           -5.58703703e-05                         0           
       0.496128           -4.97271672e-05                         0           
       0.496807           -4.06929645e-05                         0           
       0.497486           -0.000319369152                         0           
       0.498165           -0.000319389033                         0           
       0.498844           -0.000319408613                         0           
       0.499524           -3.50342701e-05                         0           
       0.500203            0.000533866906             0.00039222883           
       0.500882           -1.84967711e-05                         0           
       0.501561           -2.09074157e-05                         0           
       0.502240           -0.000319507431                         0           
       0.502919            0.000310549429            0.000313487489           
       0.503599           -0.000319547164                         0           
       0.504278           -0.000319567351                         0           
       0.504957             -0.0003195873                         0           
       0.505636           -0.000319607121                         0           
       0.506315           -0.000319627268                         0           
       0.506994           -0.000319647056                         0           
       0.507673             2.9703822e-05            0.000101506109           
       0.508353            1.10127906e-05            6.04232868e-05           
       0.509032            0.000407442743            0.000384997791           
       0.509711            -0.00031972713                         0           
       0.510390            0.000405049984            0.000382151578           
       0.511069            0.000767524154            0.000527658884           
       0.511748            4.76746918e-05            0.000132316224           
       0.512428           -0.000319808512                         0           
       0.513107           -0.000319828595                         0           
       0.513786            -0.00031984874                         0           
       0.514465           -0.000319869229                         0           
       0.515144           -0.000319889704                         0           
       0.515823           -0.000319909992                         0           
       0.516503           -0.000319930471                         0           
       0.517182           -0.000319950947                         0           
       0.517861           -0.000319971374                         0           
       0.518540           -0.000319991916                         0           
       0.519219            -0.00032001234                         0           
       0.519898            -0.00032003297                         0           
       0.520578           -0.000320053723                         0           
       0.521257           -0.000320074209                         0           
       0.521936           -0.000320094744                         0           
       0.522615           -0.000320115525                         0           
       0.523294           -0.000320136383                         0           
       0.523973           -0.000320156952                         0           
       0.524653            0.000189285915            0.000313397313           
       0.525332           -0.000320198092                         0           
       0.526011           -0.000320219184                         0           
       0.526690           -0.000320240235                         0           
       0.527369           -0.000320261112                         0           
       0.528048           -0.000320282138                         0           
       0.528728           -0.000320303139                         0           
       0.529407           -0.000320324043                         0           
       0.530086           -0.000320344839                         0           
       0.530765           -0.000320365665                         0           
       0.531444            0.000189588619            0.000313750323           
       0.532123           -0.000320408138                         0           
       0.532802           -0.000320429386                         0           
       0.533482           -0.000320450561                         0           
       0.534161            -0.00032047177                         0           
       0.534840           -0.000320492798                         0           
       0.535519             0.00146261896            0.000925250027           
       0.536198            -0.00032053541                         0           
       0.536877            0.000313921194            0.000448836816           
       0.537557            0.000259485664            0.000386935323           
       0.538236           -0.000320599031                         0           
       0.538915           -0.000320620477                         0           
       0.539594            0.000328662034            0.000463044555           
       0.540273           -0.000320663647                         0           
       0.540952           -0.000320685158                         0           
       0.541632           -0.000320706275                         0           
       0.542311            0.000309594886            0.000444664964           
       0.542990            0.000386085837            0.000526881848           
       0.543669           -0.000320770864                         0           
       0.544348            0.000414957945            0.000554630149           
       0.545027            0.000348747136            0.000483729315           
       0.545707           -0.000320835947                         0           
       0.546386            -0.00032085773                         0           
       0.547065           -0.000320879252                         0           
       0.547744           -0.000320900872                         0           
       0.548423            -0.00032092273                         0           
       0.549102             0.00135443306             0.00105575751           
       0.549782            0.000414587908            0.000552829329           
       0.550461           -0.000320988408                         0           
       0.551140           -0.000321010569                         0           
       0.551819           -0.000321032468                         0           
       0.552498           -0.000321054554                         0           
       0.553177             0.00135387623             0.00107052348           
       0.553856           -0.000321098046                         0           
       0.554536           -0.000321119902                         0           
       0.555215           -0.000321142092                         0           
       0.555894            0.000534365842            0.000672644425           
       0.556573           -0.000321186499                         0           
       0.557252            0.000598671645            0.000735713961           
       0.557931           -0.000321230899                         0           
       0.558611           -0.000321253567                         0           
       0.559290           -0.000321275658                         0           
       0.559969           -0.000321297205                         0           
       0.560648           -0.000321319325                         0           
       0.561327           -0.000321341936                         0           
       0.562006            0.000642622944            0.000780228761           
       0.562686           -0.000321386963                         0           
       0.563365           -0.000321409565                         0           
       0.564044           -0.000321432054                         0           
       0.564723           -0.000321454493                         0           
       0.565402           -0.000321476514                         0           
       0.566081           -0.000321498681                         0           
       0.566761           -0.000321521087                         0           
       0.567440           -0.000321543948                         0           
       0.568119           -0.000321566629                         0           
       0.568798           -0.000321589628                         0           
       0.569477             0.00217779599             0.00165267028           
       0.570156             0.00254765568             0.00193415903           
       0.570836           -0.000321658318                         0           
       0.571515           -0.000321680711                         0           
       0.572194           -0.000321703753                         0           
       0.572873           -0.000321726267                         0           
       0.573552           -0.000321748649                         0           
       0.574231           -0.000321771485                         0           
       0.574911           -0.000321794896                         0           
       0.575590           -0.000321817857                         0           
       0.576269           -0.000321840748                         0           
       0.576948           -0.000321864079                         0           
       0.577627           -0.000321886698                         0           
       0.578306           -0.000321909636                         0           
       0.578985            -0.00032193277                         0           
       0.579665           -0.000321955771                         0           
       0.580344            -0.00032197912                         0           
       0.581023           -0.000322002444                         0           
       0.581702           -0.000322025552                         0           
       0.582381            -0.00032204845                         0           
       0.583060           -0.000322072031                         0           
       0.583740           -0.000322095242                         0           
       0.584419            -0.00032211853                         0           
       0.585098            -0.00032214179                         0           
       0.585777           -0.000322165232                         0           
       0.586456           -0.000322189054                         0           
       0.587135           -0.000322212243                         0           
       0.587815           -0.000322235183                         0           
       0.588494           -0.000322258836                         0           
       0.589173           -0.000322283033                         0           
       0.589852             0.00978377828             0.00701340031           
       0.590531           -0.000322329719                         0           
       0.591210           -0.000322352946                         0           
       0.591890           -0.000322376621                         0           
       0.592569           -0.000322399504                         0           
       0.593248           -0.000322424522                         0           
       0.593927           -0.000322448308                         0           
       0.594606           -0.000322472583                         0           
       0.595285           -0.000322495412                         0           
       0.595965           -0.000322516715                         0           
       0.596644           -0.000322538637                         0           
