################################################################################
# EDF_DataBlockID                     0.Image.Psd
# EDF_BinarySize                      2105344
# EDF_HeaderSize                      2560
# ByteOrder                           LowByteFirst
# DataType                            FloatValue
# Dim_1                               512
# Dim_2                               1028
# Image                               0
# HeaderID                            EH:000000:000000:000000
# Size                                2105344
# Center_1                            304.9000
# Center_2                            588.7000
# Comment                             Xenocs_Cell_Window - 20251028_20perc_iodine_1.23mg
# DDummy                              0.6
# Date                                2025-11-01T00:45:32
# Delta                               21.910000
# Dummy                               -1.5
# ExposureTime                        360
# Gamma                               15.360000
# Intensity1                          8.57604e-10
# PSize_1                             7.5e-05
# PSize_2                             7.5e-05
# Pressure                            0.032753
# SampleDistance                      0.115750
# SampleEnvKind                       large
# SampleEnvPN                         ElectroChemical cell
# SampleEnvSN                         1141
# Thickness                           0
# Wavelength                          1.541891e-10
# Wavelength                          1.54189e-10
# aux                                 0
# aux_dial                            0.002375
# beamx                               588.434
# beamx_dial                          588.434
# beamz                               657.808
# beamz_dial                          657.808
# det0x                               0
# det0x_dial                          6.36945
# det0xvd                             0
# det0xvd_dial                        0
# det0y                               450.002
# det0y_dial                          481.635
# det0z                               0
# det0z_dial                          1.23302
# det0zvd                             0
# det0zvd_dial                        0
# mag                                 1.818
# mag_dial                            1.818
# om                                  0.2499
# om_dial                             -0.610199
# phi                                 -0.0120535
# phi_dial                            0
# ry                                  0.599993
# ry_dial                             0.599993
# s1bot                               0.8
# s1bot_dial                          -1.66094
# s1hl                                0.8
# s1hl_dial                           -0.608437
# s1hr                                0.8
# s1hr_dial                           0.970938
# s1top                               0.8
# s1top_dial                          -0.461562
# s2bot                               0.45
# s2bot_dial                          1.36109
# s2hl                                0.45
# s2hl_dial                           -0.83375
# s2hr                                0.45
# s2hr_dial                           -0.118594
# s2top                               0.45
# s2top_dial                          1.44734
# w2theta                             32
# w2theta_dial                        32
# waxsch                              19.2605
# waxsch_dial                         -32.7355
# waxsh                               137.085
# waxsh_dial                          -43.5338
# waxsth                              26.0607
# waxsth_dial                         -19.4086
# waxsz                               67.0407
# waxsz_dial                          -23.7954
# wind                                65.9854
# wind_dial                           66.0041
# wpsi                                124
# wpsi_dial                           124
# wstod                               115
# wstod_dial                          115
# x                                   0
# x_dial                              1.00969
# z                                   0
# z_dial                              13.3172
# CountCutoff                         6807993
# DetectorModel                       Dectris EIGER2 Si 500K, S/N E-01-0554
# ThresholdSetting                    4023.88989258
# Saturation                          0
# FlatField                           Corrected
# BackgroundReductionExtra            0.02
# BackgroundCorrectionConstant        0.0026712
# Detector                            0
# Monitor                             0
# Pil_Roi0                            0
# SumForIntensity1                    3.08737e+08
# TransmittedFlux                     857604
# det                                 0
# mon                                 0
# pilai0                              3.08737e+08
# pilai1                              788381
# pilct0                              5.34023e+08
# pilct1                              788381
# pilroi0                             0
# pilroi1                             0
# sec                                 1
# title                               20251028_20perc_iodine_1.23mg_1_00749.edf
# usaxs0                              0
# Operation                           Azimuthal average I(q)
# Error_model                         ErrorModel.poisson
# Geometrical_correction              True
# Transmission_correction             True
# Thickness_correction                False
# Binning mode                        Uniform
# Binning factor                      1.0
# Psi                                 0.0
# Omega                               0.2499
# MaskInvalidPixels                   True
# DetectorEdge                        3
# MaskFiles                           ['WAXS_corrected.edf']
################################################################################
    q(A⁻¹)                Intensity(a.u.)            Sigma_I(a.u.)            
       0.693100             0.00825137885             0.00604691597           
       0.695741             0.00554025026             0.00404336623           
       0.698381              0.0042584466             0.00434227024           
       0.701021           -2.36370503e-05                         0           
       0.703662              0.0113581742             0.00578678244           
       0.706302              0.0067432016             0.00345201854           
       0.708942             0.00574754419             0.00411341249           
       0.711583             0.00874218404             0.00439295616           
       0.714223             0.00292048383             0.00293139416           
       0.716864              0.0163472769             0.00453774733           
       0.719504             0.00736960013             0.00328781534           
       0.722144             0.00376769431             0.00217705852           
       0.724785             0.00391269134             0.00176970742           
       0.727425             0.00582482937             0.00292109263           
       0.730065             0.00803586122             0.00242695182           
       0.732706             0.00553972763             0.00169214623           
       0.735346             0.00785832864             0.00262713803           
       0.737987             0.00392431942             0.00131188886           
       0.740627              0.0096909983              0.0030759949           
       0.743267             0.00562702622             0.00156993973           
       0.745908             0.00672613016             0.00186223665           
       0.748548             0.00830523906             0.00190740422           
       0.751189             0.00875275042             0.00263849011           
       0.753829             0.00403881157             0.00164753671           
       0.756469             0.00608517225             0.00163071509           
       0.759110             0.00623770923             0.00173990185           
       0.761750             0.00644777431             0.00156414771           
       0.764390              0.0074402768             0.00175862346           
       0.767031             0.00621896132             0.00139231148           
       0.769671             0.00627820389             0.00174505783           
       0.772312             0.00475373141             0.00115600786           
       0.774952             0.00717118303             0.00191733759           
       0.777592             0.00540506948             0.00121244212           
       0.780233             0.00992314102             0.00198202317           
       0.782873             0.00758042315             0.00165681303           
       0.785513             0.00660945969             0.00165391631           
       0.788154             0.00578031001             0.00129386804           
       0.790794             0.00993995892             0.00202845675           
       0.793435             0.00772238537             0.00160619921           
       0.796075             0.00496180072             0.00124025074           
       0.798715             0.00992993146             0.00207336473           
       0.801356             0.00541205567             0.00131740596           
       0.803996             0.00595711719             0.00140912423           
       0.806637             0.00653914996             0.00117490859           
       0.809277             0.00717889579             0.00133245819           
       0.811917             0.00800368511             0.00131524728           
       0.814558             0.00768813713             0.00133974712           
       0.817198             0.00908916226              0.0013839463           
       0.819838              0.0079638973             0.00131108953           
       0.822479             0.00476683339             0.00119111477           
       0.825119              0.0083952043             0.00134538933           
       0.827760             0.00754487949             0.00129196675           
       0.830400              0.0060492292             0.00108880575           
       0.833040             0.00772130853             0.00128878211           
       0.835681             0.00779001175             0.00147162851           
       0.838321             0.00507437285            0.000996905611           
       0.840961             0.00764978778             0.00133362441           
       0.843602             0.00757146747             0.00121671134           
       0.846242             0.00581346888             0.00106598334           
       0.848883             0.00776876938             0.00126105966           
       0.851523             0.00696957574             0.00117959836           
       0.854163             0.00585886261             0.00115015618           
       0.856804              0.0063702118             0.00107833334           
       0.859444             0.00612082962             0.00103567069           
       0.862085             0.00855901548             0.00127644022           
       0.864725              0.0072048531             0.00119851974           
       0.867365             0.00859094234             0.00121358144           
       0.870006             0.00741968679             0.00107472956           
       0.872646             0.00874129221              0.0012232634           
       0.875286             0.00805823079             0.00112993905           
       0.877927             0.00573743243            0.000920026403           
       0.880567             0.00969722399              0.0012391774           
       0.883208             0.00664704777             0.00101627989           
       0.885848              0.0076792184             0.00113417659           
       0.888488             0.00584677568            0.000928227957           
       0.891129             0.00618769957            0.000980490121           
       0.893769             0.00696045442            0.000995224708           
       0.896410             0.00689878002            0.000923778107           
       0.899050             0.00686720249             0.00101357707           
       0.901690              0.0061946359             0.00104862085           
       0.904331              0.0078302142             0.00104520897           
       0.906971             0.00788022871             0.00111547568           
       0.909611             0.00851394814             0.00105548074           
       0.912252             0.00904445332              0.0011236528           
       0.914892             0.00548766667            0.000956467665           
       0.917533             0.00759098722             0.00106417982           
       0.920173             0.00873231224             0.00105897687           
       0.922813             0.00675452974            0.000977361504           
       0.925454             0.00836699878            0.000979519197           
       0.928094             0.00872236994             0.00106769581           
       0.930734             0.00800073585             0.00110091528           
       0.933375             0.00845737885             0.00112076952           
       0.936015             0.00757714073            0.000963472291           
       0.938656             0.00748081855             0.00102698757           
       0.941296             0.00904142033             0.00102322026           
       0.943936             0.00600372433            0.000817668786           
       0.946577             0.00977304991              0.0010363379           
       0.949217             0.00805945833            0.000865433732           
       0.951858             0.00711118067            0.000850972718           
       0.954498             0.00764536063             0.00102131131           
       0.957138             0.00672728827            0.000907602437           
       0.959779             0.00989331636             0.00108500805           
       0.962419             0.00680493004            0.000893872155           
       0.965059             0.00778629891             0.00100562676           
       0.967700             0.00638152218            0.000932432792           
       0.970340             0.00714480194            0.000873062221           
       0.972981             0.00698438408            0.000786462957           
       0.975621             0.00712170348            0.000844845796           
       0.978261             0.00722262702            0.000808420072           
       0.980902             0.00631543527             0.00090445244           
       0.983542             0.00721585242            0.000856147196           
       0.986182              0.0100979197            0.000994353679           
       0.988823             0.00738764841            0.000825844047           
       0.991463             0.00829633044            0.000933705473           
       0.994104             0.00790206319            0.000888937571           
       0.996744             0.00791510499            0.000907457136           
       0.999384              0.0078122721            0.000806281054           
       1.002025             0.00830245368            0.000927719337           
       1.004665             0.00761725376              0.0008120822           
       1.007306             0.00804347509            0.000830221493           
       1.009946             0.00856664796            0.000873812334           
       1.012586             0.00735087712            0.000788342588           
       1.015227             0.00789768868            0.000877862041           
       1.017867             0.00793728004            0.000845798199           
       1.020507             0.00787270006            0.000815930781           
       1.023148              0.0071744326            0.000840461248           
       1.025788             0.00843816737            0.000835756898           
       1.028429             0.00663753461            0.000776571618           
       1.031069             0.00691163399            0.000745720092           
       1.033709             0.00761989778            0.000832327651           
       1.036350              0.0070867189            0.000720916226           
       1.038990              0.0062419416            0.000689017682           
       1.041630             0.00769805958            0.000798085953           
       1.044271              0.0088495777            0.000804752498           
       1.046911             0.00673420536             0.00073842454           
       1.049552             0.00763272091            0.000825945026           
       1.052192             0.00670701822            0.000706980222           
       1.054832             0.00849304854            0.000802799654           
       1.057473             0.00790239049            0.000763376047           
       1.060113             0.00714388036            0.000707867695           
       1.062754             0.00819234306            0.000773940037           
       1.065394             0.00604641359            0.000702964445           
       1.068034             0.00731064014            0.000703295898           
       1.070675             0.00766912003            0.000751395538           
       1.073315             0.00849439655            0.000802126671           
       1.075955             0.00862898394            0.000763228916           
       1.078596             0.00930175315            0.000842189058           
       1.081236             0.00845815873            0.000769012656           
       1.083877             0.00796561972            0.000739591449           
       1.086517             0.00827867178            0.000808492056           
       1.089157             0.00885377527            0.000867550314           
       1.091798             0.00970695592            0.000796399765           
       1.094438             0.00830131208            0.000734106358           
       1.097078             0.00878340349             0.00072424108           
       1.099719             0.00762624092            0.000729953028           
       1.102359             0.00771730254            0.000687678973           
       1.105000             0.00795226757            0.000780577402           
       1.107640             0.00916735696            0.000801353817           
       1.110280              0.0113574132            0.000813839049           
       1.112921             0.00914932057            0.000784666192           
       1.115561             0.00853032396            0.000720090607           
       1.118202             0.00823365207            0.000708124578           
       1.120842             0.00853796211            0.000757872094           
       1.123482             0.00879554819            0.000765859797           
       1.126123             0.00876436272            0.000733284431           
       1.128763             0.00914567503            0.000754201991           
       1.131403             0.00807317005            0.000682797881           
       1.134044             0.00954269074            0.000763874377           
       1.136684             0.00875705468            0.000780177443           
       1.139325             0.00878653286            0.000719907215           
       1.141965             0.00955810302            0.000755814523           
       1.144605             0.00841226596            0.000676095307           
       1.147246             0.00915820725            0.000721951128           
       1.149886             0.00983576356            0.000745524879           
       1.152527             0.00924497109            0.000733298692           
       1.155167             0.00889032341            0.000683969882           
       1.157807             0.00894248131            0.000735485606           
       1.160448             0.00929522664            0.000732248993           
       1.163088              0.0094419363            0.000703948202           
       1.165728             0.00745518579            0.000642230556           
       1.168369              0.0102607018            0.000760403504           
       1.171009             0.00958617796            0.000713282748           
       1.173650             0.00865538201             0.00069555323           
       1.176290             0.00917728651            0.000699904307           
       1.178930             0.00893058483            0.000676687091           
       1.181571              0.0102848268            0.000740584074           
       1.184211             0.00938831476            0.000710079215           
       1.186851             0.00862400289            0.000665375246           
       1.189492             0.00922242207            0.000683444248           
       1.192132             0.00924098506            0.000676455754           
       1.194773              0.0101004443            0.000710303431           
       1.197413              0.0101920034            0.000683648932           
       1.200053             0.00987742426            0.000690116032           
       1.202694              0.0104633216            0.000675444131           
       1.205334              0.0103809149            0.000725045248           
       1.207975             0.00906424269            0.000646698454           
       1.210615             0.00960034978            0.000734212874           
       1.213255              0.0102256649            0.000678545027           
       1.215896              0.0103945856            0.000696522296           
       1.218536             0.00821968118            0.000595562764           
       1.221176             0.00882632585            0.000670967582           
       1.223817             0.00983075837             0.00066472152           
       1.226457             0.00956862199            0.000669011184           
       1.229098             0.00948982324            0.000666218337           
       1.231738              0.0095920824            0.000673094696           
       1.234378              0.0110723449            0.000679525526           
       1.237019              0.0105427718            0.000683293647           
       1.239659             0.00977555695            0.000652230371           
       1.242299             0.00952755371            0.000635722884           
       1.244940             0.00937613741            0.000613347686           
       1.247580              0.0103017001            0.000662569829           
       1.250221               0.010462007            0.000663585141           
       1.252861              0.0102936341            0.000626632123           
       1.255501             0.00899818263            0.000636149331           
       1.258142              0.0112244441             0.00066764224           
       1.260782              0.0109328286            0.000673169416           
       1.263423              0.0102508108            0.000626339047           
       1.266063             0.00971837395            0.000625084748           
       1.268703              0.0091106671            0.000600203264           
       1.271344              0.0098441331            0.000645039993           
       1.273984              0.0109150161            0.000655991968           
       1.276624              0.0100033633            0.000616201645           
       1.279265              0.0105145821            0.000642242068           
       1.281905              0.0108726872            0.000655985724           
       1.284546              0.0101286854            0.000611991073           
       1.287186              0.0100919845            0.000599339381           
       1.289826              0.0100799259            0.000631277148           
       1.292467              0.0103557835             0.00062576356           
       1.295107              0.0108151694            0.000633140032           
       1.297747              0.0115729415            0.000626728196           
       1.300388              0.0104763215            0.000650037718           
       1.303028              0.0102569985            0.000614034863           
       1.305669             0.00997449666            0.000619937825           
       1.308309              0.0114091077            0.000656493608           
       1.310949              0.0105375998            0.000630287715           
       1.313590              0.0109917559            0.000623604536           
       1.316230              0.0103039212            0.000644314531           
       1.318871              0.0107571098            0.000644754615           
       1.321511              0.0124378353            0.000680446141           
       1.324151              0.0107747602            0.000614547161           
       1.326792              0.0112381689            0.000631503706           
       1.329432             0.00927399115            0.000569620839           
       1.332072              0.0103400449            0.000592505947           
       1.334713               0.011152893            0.000635106751           
       1.337353              0.0109953257            0.000604762217           
       1.339994              0.0106027964            0.000623206579           
       1.342634              0.0111122557            0.000611805104           
       1.345274              0.0118228559            0.000653091599           
       1.347915               0.010144282            0.000588249899           
       1.350555              0.0110958292             0.00062599579           
       1.353195               0.011102925             0.00062927148           
       1.355836              0.0112141408            0.000622553943           
       1.358476              0.0100996981            0.000573766665           
       1.361117              0.0113343387            0.000608660225           
       1.363757               0.010297922            0.000597880218           
       1.366397              0.0108593957            0.000595383757           
       1.369038              0.0122483312            0.000638609823           
       1.371678              0.0106796954            0.000591058987           
       1.374319              0.0111772042            0.000599462669           
       1.376959              0.0114005229            0.000599333188           
       1.379599              0.0113535821            0.000640980003           
       1.382240               0.010837607             0.00058857691           
       1.384880              0.0101341199            0.000602863058           
       1.387520              0.0112666058            0.000603702189           
       1.390161              0.0115383874            0.000580246504           
       1.392801              0.0116196052            0.000606684609           
       1.395442              0.0119807556            0.000624454389           
       1.398082              0.0111025498            0.000562934101           
       1.400722              0.0106735579            0.000578156364           
       1.403363              0.0103670282            0.000599777375           
       1.406003              0.0108451491            0.000574108832           
       1.408644              0.0104517822            0.000590408536           
       1.411284              0.0105512623             0.00056171879           
       1.413924              0.0111995409            0.000576572357           
       1.416565              0.0109514535            0.000567910986           
       1.419205               0.011080521            0.000595902524           
       1.421845              0.0121494753            0.000623618242           
       1.424486              0.0118238558            0.000591353084           
       1.427126              0.0101308641            0.000568624091           
       1.429767              0.0111375132            0.000560957095           
       1.432407              0.0112540039             0.00059011681           
       1.435047              0.0109918254            0.000547723932           
       1.437688              0.0117921805            0.000575796824           
       1.440328              0.0118504768            0.000589116103           
       1.442968              0.0110702477             0.00058214994           
       1.445609              0.0114400665             0.00057302058           
       1.448249              0.0112515669            0.000582668574           
       1.450890              0.0110787405            0.000574402566           
       1.453530              0.0116944889            0.000617414727           
       1.456170              0.0111656761            0.000585510801           
       1.458811               0.010568495            0.000544699992           
       1.461451               0.012059771            0.000583388812           
       1.464092              0.0112518102            0.000567191695           
       1.466732              0.0108242767            0.000551531062           
       1.469372               0.010923297            0.000541081592           
       1.472013              0.0109072233            0.000583137793           
       1.474653              0.0106194977            0.000566518788           
       1.477293              0.0105541074            0.000576675415           
       1.479934              0.0114244666            0.000572508729           
       1.482574              0.0107384235            0.000536927004           
       1.485215              0.0103023334            0.000535706864           
       1.487855              0.0106887079            0.000552858023           
       1.490495              0.0125684195            0.000597295063           
       1.493136              0.0121102664             0.00057827104           
       1.495776              0.0110666734            0.000550276718           
       1.498416             0.00962732534            0.000530037758           
       1.501057              0.0110934738            0.000556428691           
       1.503697              0.0108697295             0.00053848391           
       1.506338              0.0108346935            0.000547439486           
       1.508978              0.0105914451            0.000535936447           
       1.511618              0.0102024816            0.000560191109           
       1.514259              0.0100016505            0.000535488743           
       1.516899              0.0110143357            0.000547147962           
       1.519540              0.0110260802            0.000556267465           
       1.522180              0.0107474609            0.000554018693           
       1.524820              0.0104046839            0.000542053896           
       1.527461              0.0102392406            0.000540386491           
       1.530101              0.0110935722            0.000556853614           
       1.532741              0.0100211831            0.000526183369           
       1.535382              0.0102740848            0.000541358699           
       1.538022             0.00998450516            0.000502750056           
       1.540663              0.0108677266            0.000564148655           
       1.543303              0.0105977228            0.000517273251           
       1.545943              0.0109521781            0.000556576108           
       1.548584              0.0105493064            0.000556048886           
       1.551224              0.0100882781            0.000502760156           
       1.553864              0.0110105415            0.000555012772           
       1.556505              0.0104720551            0.000522881603           
       1.559145              0.0106821366            0.000534569543           
       1.561786              0.0100708337            0.000519448151           
       1.564426              0.0111434903            0.000529416189           
       1.567066              0.0099720714            0.000524760331           
       1.569707               0.010291219            0.000523515451           
       1.572347              0.0113050584            0.000566858746           
       1.574988              0.0104580209            0.000518947772           
       1.577628             0.00951972474            0.000516288822           
       1.580268             0.00968905846            0.000504658226           
       1.582909             0.00911326184            0.000518779809           
       1.585549             0.00946564328            0.000513364864           
       1.588189             0.00995443929             0.00051496281           
       1.590830             0.00874588516            0.000482085336           
       1.593470             0.00916015931             0.00051290638           
       1.596111              0.0103701234            0.000532802898           
       1.598751             0.00963725667             0.00049769134           
       1.601391             0.00985322572            0.000514339822           
       1.604032             0.00922767916            0.000508150759           
       1.606672             0.00874484285            0.000480626356           
       1.609312              0.0100098275            0.000536780486           
       1.611953             0.00854513109            0.000485323459           
       1.614593             0.00890876802            0.000486087765           
       1.617234             0.00959936794            0.000522931545           
       1.619874             0.00865333715            0.000494534236           
       1.622514             0.00979080613            0.000518858074           
       1.625155             0.00839307389            0.000483234487           
       1.627795             0.00850776156            0.000474604147           
       1.630436             0.00838790647            0.000468788533           
       1.633076             0.00951693899            0.000505891928           
       1.635716             0.00957427288            0.000499518567           
       1.638357             0.00827032627             0.00046548242           
       1.640997             0.00902967057            0.000501115983           
       1.643637             0.00932503005            0.000495553523           
       1.646278             0.00920760831            0.000507895606           
       1.648918             0.00909120147             0.00050605159           
       1.651559              0.0083793011            0.000489604956           
       1.654199             0.00915293395            0.000497680822           
       1.656839             0.00882398812            0.000488826532           
       1.659480             0.00903917222            0.000513329781           
       1.662120              0.0101468747            0.000512239689           
       1.664761             0.00826200182            0.000480128364           
       1.667401             0.00914892327            0.000482903468           
       1.670041             0.00878069772            0.000480299216           
       1.672682             0.00925123571            0.000490974045           
       1.675322             0.00833135119             0.00046292927           
       1.677962             0.00864798413            0.000466441214           
       1.680603                0.00833178            0.000459243219           
       1.683243             0.00846058175            0.000482823941           
       1.685884             0.00866622102             0.00049226492           
       1.688524             0.00808478741            0.000466273935           
       1.691164             0.00949765057            0.000505491076           
       1.693805             0.00856862466            0.000485406783           
       1.696445             0.00903153541            0.000501236878           
       1.699085             0.00829961212             0.00046439692           
       1.701726             0.00807509478            0.000441272917           
       1.704366             0.00911375703            0.000493861783           
       1.707007             0.00948586077            0.000492611616           
       1.709647             0.00871081206            0.000477389249           
       1.712287             0.00907131714            0.000491408129           
       1.714928              0.0090698182            0.000495329224           
       1.717568             0.00912016272            0.000467895304           
       1.720209             0.00881752255            0.000481887827           
       1.722849             0.00819421337            0.000462155141           
       1.725489              0.0100014032            0.000511009699           
       1.728130             0.00978976776            0.000537283657           
       1.730770             0.00794079846            0.000459568495           
       1.733410             0.00960843017            0.000497580634           
       1.736051             0.00919629859            0.000490180689           
       1.738691             0.00925443189            0.000481759603           
       1.741332             0.00841958847            0.000472952868           
       1.743972             0.00850672741            0.000490925028           
       1.746612             0.00830564157             0.00046580812           
       1.749253             0.00887425433            0.000490997663           
       1.751893             0.00782168926            0.000457577027           
       1.754533             0.00870682335            0.000482323065           
       1.757174             0.00846118177             0.00047101807           
       1.759814             0.00825668504            0.000458238368           
       1.762455             0.00795678046            0.000458099178           
       1.765095             0.00828450409            0.000447161348           
       1.767735             0.00864030759            0.000470750803           
       1.770376             0.00790459921            0.000451450156           
       1.773016             0.00816118984            0.000455646262           
       1.775657             0.00879253415            0.000466137246           
       1.778297             0.00861161634            0.000457344293           
       1.780937             0.00885540929            0.000489511991           
       1.783578             0.00957202084            0.000496207771           
       1.786218             0.00840066544            0.000485128259           
       1.788858             0.00824336143            0.000456420544           
       1.791499             0.00862517121            0.000461627583           
       1.794139             0.00940572589            0.000478152207           
       1.796780              0.0084197174            0.000450215048           
       1.799420             0.00923105158            0.000468797339           
       1.802060             0.00921583638            0.000472194323           
       1.804701             0.00962221507            0.000463022128           
       1.807341             0.00865401302             0.00046140874           
       1.809981             0.00881757498            0.000467301497           
       1.812622             0.00846826819            0.000449707311           
       1.815262             0.00976441035             0.00049315615           
       1.817903             0.00872969485            0.000459386194           
       1.820543             0.00904490441            0.000474892709           
       1.823183             0.00984390718            0.000495151898           
       1.825824             0.00918008583            0.000456819766           
       1.828464             0.00923549109            0.000477689381           
       1.831105             0.00893398451            0.000456837514           
       1.833745              0.0088992796            0.000465687032           
       1.836385             0.00834309095            0.000463767955           
       1.839026             0.00886312762            0.000476492913           
       1.841666             0.00827276029             0.00045871765           
       1.844306             0.00850954986            0.000452542028           
       1.846947             0.00843693557            0.000454556961           
       1.849587             0.00896580527            0.000517434074           
       1.852228             0.00834667792            0.000451444813           
       1.854868             0.00834648682            0.000476879218           
       1.857508             0.00979756743            0.000511605412           
       1.860149             0.00841866055            0.000482855503           
       1.862789             0.00838583903            0.000465157821           
       1.865429             0.00862153785            0.000492329981           
       1.868070             0.00925183912            0.000503211602           
       1.870710             0.00972383993            0.000503994515           
       1.873351             0.00888082007            0.000487606404           
       1.875991             0.00884554608             0.00049457909           
       1.878631             0.00802553518            0.000462074547           
       1.881272             0.00838901095            0.000469256977           
       1.883912             0.00881635573            0.000500644307           
       1.886553             0.00885878905            0.000496237003           
       1.889193             0.00806044466            0.000472540207           
       1.891833             0.00937626524            0.000529294057           
       1.894474             0.00775531782            0.000477180889           
       1.897114             0.00827062791            0.000476852272           
       1.899754             0.00828368977            0.000479225435           
       1.902395             0.00868516162            0.000481107159           
       1.905035             0.00898606222            0.000518325132           
       1.907676             0.00883848982            0.000484495006           
       1.910316             0.00802019708            0.000473776615           
       1.912956             0.00909304595            0.000493372109           
       1.915597              0.0094168849            0.000504886767           
       1.918237             0.00779796799            0.000474492218           
       1.920878             0.00976388264            0.000528771632           
       1.923518             0.00785358694            0.000474433263           
       1.926158             0.00804169395            0.000473851625           
       1.928799             0.00852883526            0.000482344206           
       1.931439             0.00859960238            0.000497044947           
       1.934079             0.00884855407            0.000525603739           
       1.936720             0.00841115642            0.000474798334           
       1.939360             0.00878195898            0.000517588587           
       1.942001             0.00831209571            0.000461531136           
       1.944641             0.00838514591            0.000472685753           
       1.947281              0.0086069274            0.000474481844           
       1.949922             0.00787873916             0.00046890733           
       1.952562             0.00923257501            0.000523509193           
       1.955202             0.00857876546            0.000504017452           
       1.957843              0.0083258331            0.000483655256           
       1.960483             0.00782066685            0.000490080513           
       1.963124             0.00912764553            0.000518588075           
       1.965764             0.00727885601            0.000436716199           
       1.968404             0.00756787287            0.000441094619           
       1.971045             0.00764123148            0.000451893561           
       1.973685             0.00914660682            0.000518595879           
       1.976326             0.00895184968            0.000505993833           
       1.978966             0.00847669295            0.000496702947           
       1.981606             0.00852773938            0.000508586471           
       1.984247             0.00778090726            0.000482612161           
       1.986887             0.00841080531            0.000495756229           
       1.989527             0.00799753085            0.000478216878           
       1.992168             0.00784674316            0.000491490624           
       1.994808             0.00792711059            0.000491883594           
       1.997449             0.00845756562            0.000497640607           
       2.000089             0.00924296044            0.000518171369           
       2.002729             0.00845604846            0.000495920307           
       2.005370             0.00779004003            0.000470868685           
       2.008010              0.0089604421            0.000527043899           
       2.010650             0.00870790546            0.000523440747           
       2.013291             0.00788041887            0.000477755011           
       2.015931             0.00860867359            0.000495812916           
       2.018572             0.00809264456            0.000514178765           
       2.021212             0.00819235817            0.000508041948           
       2.023852             0.00834882464            0.000485407833           
       2.026493              0.0084064241            0.000508841087           
       2.029133             0.00806545876            0.000488384831           
       2.031774             0.00745726414            0.000492845322           
       2.034414             0.00772678136            0.000461608277           
       2.037054             0.00802233105            0.000482275623           
       2.039695             0.00754465516            0.000464164832           
       2.042335             0.00785687379            0.000492248866           
       2.044975              0.0077351519            0.000482497713           
       2.047616             0.00781106387            0.000483655102           
       2.050256             0.00717016282            0.000467773737           
       2.052897              0.0084760225            0.000517965627           
       2.055537             0.00762288117            0.000474732801           
       2.058177             0.00784858654            0.000471723688           
       2.060818             0.00745997777            0.000481777894           
       2.063458              0.0074501876            0.000501730873           
       2.066098             0.00774610131            0.000482608257           
       2.068739             0.00837304946            0.000509558123           
       2.071379             0.00839333223            0.000523480449           
       2.074020             0.00851643127            0.000515845424           
       2.076660             0.00757676336            0.000490489057           
       2.079300             0.00789417558            0.000512924763           
       2.081941             0.00718100196            0.000447924878           
       2.084581             0.00716142034            0.000472144025           
       2.087222             0.00787326399            0.000477431991           
       2.089862             0.00837487883            0.000536305317           
       2.092502             0.00827235061            0.000516679418           
       2.095143             0.00852974589            0.000541785912           
       2.097783             0.00796244709            0.000506796735           
       2.100423             0.00767139018            0.000479336799           
       2.103064             0.00685720141            0.000470242138           
       2.105704             0.00775047308            0.000497457151           
       2.108345             0.00689945528            0.000450922081           
       2.110985             0.00735711954            0.000497334611           
       2.113625              0.0078689849            0.000518832943           
       2.116266              0.0080640612            0.000532676342           
       2.118906              0.0071864404            0.000468633381           
       2.121546             0.00754189644            0.000470917021           
       2.124187             0.00744885088            0.000491258733           
       2.126827             0.00725334486            0.000490179346           
       2.129468             0.00661557268            0.000469329105           
       2.132108             0.00784741634            0.000497320068           
       2.134748             0.00736730531            0.000479997223           
       2.137389              0.0072105792            0.000495401356           
       2.140029             0.00740206683            0.000449364022           
       2.142670             0.00723368039            0.000474751145           
       2.145310             0.00829724157            0.000494889167           
       2.147950             0.00782244263            0.000494586944           
       2.150591             0.00751879935            0.000479992406           
       2.153231              0.0084472144            0.000523694047           
       2.155871             0.00763652142            0.000481033907           
       2.158512             0.00743151583            0.000495141749           
       2.161152             0.00749541435            0.000481682761           
       2.163793              0.0088155976            0.000520031434           
       2.166433             0.00774369815            0.000500499695           
       2.169073             0.00767929339            0.000487317619           
       2.171714             0.00822809205            0.000500659314           
       2.174354             0.00714888713            0.000487629363           
       2.176995             0.00808710846            0.000516459179           
       2.179635              0.0075625031            0.000527752254           
       2.182275             0.00749771922            0.000496143024           
       2.184916             0.00748432113            0.000478781366           
       2.187556             0.00746830538            0.000473475201           
       2.190196             0.00757966928            0.000498450486           
       2.192837             0.00706614036            0.000478650654           
       2.195477             0.00769506914            0.000476212056           
       2.198118             0.00747681944            0.000481438202           
       2.200758             0.00741768334            0.000491969199           
       2.203398             0.00723651647            0.000489032849           
       2.206039             0.00720325832            0.000461763414           
       2.208679             0.00743799203            0.000480147091           
       2.211319             0.00708180269            0.000471210876           
       2.213960             0.00718735523            0.000481069843           
       2.216600             0.00779049559            0.000518116299           
       2.219241             0.00680039489            0.000462643962           
       2.221881             0.00773966793            0.000494575974           
       2.224521             0.00770272922            0.000499440322           
       2.227162             0.00727811039             0.00047575875           
       2.229802               0.007544994            0.000499566843           
       2.232443             0.00782928296            0.000500864749           
       2.235083              0.0074385429            0.000502607085           
       2.237723             0.00744320214            0.000482475501           
       2.240364             0.00797990056            0.000511874625           
       2.243004             0.00797972569            0.000507783018           
       2.245644             0.00755561251            0.000499050459           
       2.248285             0.00845801985            0.000517434569           
       2.250925             0.00760569227            0.000493651715           
       2.253566             0.00713755402            0.000511251721           
       2.256206             0.00800179659            0.000530495975           
       2.258846             0.00744809987            0.000486875483           
       2.261487             0.00660492545            0.000481226958           
       2.264127             0.00697140936            0.000477481297           
       2.266767             0.00716540702            0.000496976491           
       2.269408             0.00765439914             0.00051575777           
       2.272048             0.00638166754            0.000468119992           
       2.274689             0.00694857758            0.000494906424           
       2.277329             0.00753412203            0.000485223148           
       2.279969             0.00808419789            0.000535014996           
       2.282610             0.00759682448            0.000504212334           
       2.285250             0.00769416622             0.00048568177           
       2.287891             0.00772330472            0.000521709272           
       2.290531             0.00768226708            0.000527315898           
       2.293171             0.00718297251            0.000496680993           
       2.295812             0.00657157269            0.000473163093           
       2.298452             0.00685385741            0.000505318351           
       2.301092             0.00746916916             0.00049012498           
       2.303733             0.00728103917            0.000503438664           
       2.306373             0.00722867204            0.000509524809           
       2.309014             0.00796798522            0.000524510882           
       2.311654             0.00775820894            0.000540098764           
       2.314294             0.00799299205             0.00050506811           
       2.316935             0.00748015219            0.000490615237           
       2.319575             0.00682171814            0.000490905681           
       2.322215             0.00709804912            0.000521865693           
       2.324856             0.00617476479            0.000447509443           
       2.327496             0.00726090942            0.000515999217           
       2.330137             0.00715729902            0.000490237017           
       2.332777             0.00685073438            0.000494542542           
       2.335417              0.0078752085            0.000514404544           
       2.338058             0.00727074035            0.000509033557           
       2.340698             0.00725785007            0.000504585478           
       2.343339             0.00732581929            0.000518098422           
       2.345979             0.00738032812            0.000491982498           
       2.348619             0.00740442644            0.000510798114           
       2.351260             0.00625871987            0.000466883607           
       2.353900              0.0073799184            0.000505374948           
       2.356540             0.00673354608            0.000482050923           
       2.359181             0.00731103511            0.000495254878           
       2.361821              0.0068896138            0.000464410372           
       2.364462             0.00737321908            0.000502473049           
       2.367102             0.00821538218            0.000545064034           
       2.369742             0.00773773286            0.000556789592           
       2.372383             0.00657452046            0.000464733047           
       2.375023             0.00798406386            0.000538363694           
       2.377663             0.00640774728            0.000461148757           
       2.380304             0.00662239741            0.000476625865           
       2.382944             0.00741856672            0.000480485784           
       2.385585              0.0070005057            0.000497797974           
       2.388225             0.00631476726            0.000470567091           
       2.390865             0.00718367699            0.000496743315           
       2.393506               0.005976947            0.000444556112           
       2.396146             0.00636669505            0.000496098676           
       2.398787             0.00693314815            0.000477098659           
       2.401427             0.00654245083            0.000447346707           
       2.404067             0.00732699792            0.000483969267           
       2.406708             0.00786233571            0.000495326047           
       2.409348             0.00831778735            0.000540393427           
       2.411988             0.00702971029            0.000486746566           
       2.414629             0.00696314485            0.000499523758           
       2.417269              0.0061533882            0.000475063568           
       2.419910             0.00692094224            0.000504991158           
       2.422550             0.00674362727             0.00047691515           
       2.425190              0.0069802513            0.000511462156           
       2.427831             0.00715117216            0.000514776111           
       2.430471             0.00791695358            0.000516014453           
       2.433112             0.00723431723            0.000480323959           
       2.435752             0.00706868289            0.000502479712           
       2.438392             0.00680630442            0.000475909348           
       2.441033             0.00702917102             0.00051255929           
       2.443673             0.00617228857            0.000480672099           
       2.446313               0.007983323            0.000547142435           
       2.448954             0.00767902015            0.000510930895           
       2.451594             0.00678988365            0.000516586775           
       2.454235             0.00758448403            0.000512266756           
       2.456875             0.00694914183             0.00051307306           
       2.459515             0.00835868269            0.000577274288           
       2.462156             0.00764410562            0.000521209948           
       2.464796             0.00763991669            0.000514344492           
       2.467436             0.00713774513            0.000514114871           
       2.470077             0.00817473801            0.000521484913           
       2.472717             0.00815069294            0.000522973041           
       2.475358             0.00717460562            0.000495776597           
       2.477998             0.00744415606            0.000496490265           
       2.480638             0.00736880434            0.000502748478           
       2.483279             0.00685919241            0.000506957183           
       2.485919             0.00758263129            0.000513688119           
       2.488560             0.00747283828             0.00050853068           
       2.491200             0.00811598368            0.000545721078           
       2.493840             0.00719366552            0.000543644109           
       2.496481              0.0073142995            0.000539216385           
       2.499121             0.00741133061            0.000527941412           
       2.501761             0.00624858542            0.000491184768           
       2.504402              0.0082093525             0.00055477472           
       2.507042             0.00727398724            0.000518345439           
       2.509683             0.00708416279            0.000503719189           
       2.512323              0.0063901332            0.000502448123           
       2.514963             0.00804958469            0.000556960137           
       2.517604             0.00797773216            0.000575346636           
       2.520244             0.00656058562            0.000489140113           
       2.522884             0.00908004343            0.000583677254           
       2.525525              0.0118155136             0.00067337451           
       2.528165             0.00779756389            0.000538501449           
       2.530806             0.00808556463            0.000557913952           
       2.533446             0.00732846727            0.000519814676           
       2.536086              0.0065913611             0.00048856788           
       2.538727             0.00653305083            0.000466628813           
       2.541367             0.00675381766            0.000479121073           
       2.544008             0.00712826257            0.000508346845           
       2.546648             0.00757858166            0.000533148765           
       2.549288             0.00706184817            0.000525138419           
       2.551929             0.00738002749            0.000528281136           
       2.554569             0.00698445165            0.000495126603           
       2.557209             0.00768358396            0.000524085669           
       2.559850             0.00686909558             0.00049712147           
       2.562490             0.00744051037            0.000534745511           
       2.565131             0.00781421728            0.000568201499           
       2.567771             0.00710027689            0.000522206107           
       2.570411               0.006836169            0.000506857742           
       2.573052             0.00701546324            0.000519927809           
       2.575692             0.00685345303            0.000510777463           
       2.578332             0.00655762053            0.000501697993           
       2.580973             0.00758280535            0.000534357886           
       2.583613             0.00800597909            0.000535992153           
       2.586254             0.00701474357            0.000501017759           
       2.588894             0.00721731642            0.000527741969           
       2.591534             0.00699741866            0.000537925052           
       2.594175             0.00794934964            0.000562529049           
       2.596815              0.0069620206            0.000529541492           
       2.599456             0.00774920087            0.000529790816           
       2.602096             0.00679864228            0.000500011127           
       2.604736             0.00751019432            0.000537987313           
       2.607377             0.00686007912             0.00050062487           
       2.610017             0.00748218867            0.000513682657           
       2.612657             0.00678262691            0.000520209891           
       2.615298             0.00734305452            0.000528454738           
       2.617938             0.00604627575            0.000512971732           
       2.620579             0.00678023361            0.000521480939           
       2.623219             0.00716952874            0.000535478328           
       2.625859             0.00698566539            0.000513915901           
       2.628500             0.00697865389            0.000510291103           
       2.631140             0.00738198289            0.000532916775           
       2.633780             0.00753604424            0.000537980939           
       2.636421             0.00660635664            0.000516091968           
       2.639061             0.00745906511            0.000516244685           
       2.641702             0.00713412178            0.000516562915           
       2.644342             0.00795536135            0.000547809432           
       2.646982             0.00654821327            0.000489575116           
       2.649623             0.00670282678             0.00051907674           
       2.652263             0.00727860879            0.000535484145           
       2.654904             0.00650709143            0.000506818637           
       2.657544              0.0077017423            0.000519345882           
       2.660184             0.00689906245            0.000520190509           
       2.662825             0.00664130009            0.000522221083           
       2.665465              0.0070667881            0.000521001921           
       2.668105             0.00652287453            0.000527599298           
       2.670746             0.00658185824            0.000489587912           
       2.673386             0.00983252315            0.000616695379           
       2.676027             0.00801194558            0.000547747678           
       2.678667             0.00908906768            0.000569258842           
       2.681307               0.012491149            0.000655705776           
       2.683948              0.0148763377            0.000735221279           
       2.686588              0.0105457264            0.000608759502           
       2.689229             0.00995120908            0.000577843867           
       2.691869             0.00815751053            0.000552949581           
       2.694509             0.00946716527            0.000596012359           
       2.697150             0.00763553605            0.000526576258           
       2.699790             0.00709097568            0.000531989956           
       2.702430             0.00743314045             0.00052064282           
       2.705071             0.00615059169            0.000489376748           
       2.707711             0.00744968693             0.00052273667           
       2.710352             0.00658545805            0.000519311448           
       2.712992             0.00722213319            0.000553891155           
       2.715632             0.00672837817             0.00049602321           
       2.718273             0.00681766728            0.000517460989           
       2.720913             0.00674750956            0.000513326869           
       2.723553              0.0077214335            0.000552809353           
       2.726194             0.00791289265            0.000584988472           
       2.728834             0.00709367705            0.000554139473           
       2.731475             0.00803627696             0.00054434128           
       2.734115             0.00652546755            0.000505735254           
       2.736755             0.00693342586            0.000525595103           
       2.739396             0.00754485699            0.000545103945           
       2.742036             0.00668058052            0.000536817298           
       2.744677             0.00705906909            0.000535412192           
       2.747317             0.00792097439            0.000563113464           
       2.749957             0.00689168833            0.000528940207           
       2.752598             0.00775322433            0.000567117115           
       2.755238             0.00742091419            0.000564846387           
       2.757878             0.00751734161            0.000563533781           
       2.760519             0.00866990535            0.000598777506           
       2.763159             0.00797795823            0.000568646457           
       2.765800             0.00743496413            0.000523144531           
       2.768440             0.00806070489            0.000548727129           
       2.771080             0.00796268009            0.000549932784           
       2.773721             0.00643365835            0.000507072509           
       2.776361              0.0076023601             0.00055881217           
       2.779001             0.00605622007            0.000516517521           
       2.781642              0.0074171795            0.000567402493           
       2.784282             0.00599709464            0.000518591899           
       2.786923             0.00546454476            0.000499389498           
       2.789563             0.00658304867            0.000527904297           
       2.792203             0.00713766429            0.000525113201           
       2.794844             0.00722491464            0.000579022339           
       2.797484             0.00705597219            0.000540029054           
       2.800125             0.00639422413            0.000540557685           
       2.802765             0.00710321933            0.000559937282           
       2.805405             0.00728315008            0.000568903804           
       2.808046              0.0060612405            0.000528114784           
       2.810686             0.00628720201            0.000494238789           
       2.813326             0.00804983923            0.000580900694           
       2.815967             0.00717902829            0.000564179211           
       2.818607              0.0067396226             0.00052164517           
       2.821248              0.0067565697            0.000511457158           
       2.823888             0.00730180604            0.000551911235           
       2.826528             0.00644632704            0.000502212738           
       2.829169             0.00650834189            0.000528563936           
       2.831809             0.00753469422            0.000576451403           
       2.834449             0.00628911144            0.000529981252           
       2.837090             0.00674148731            0.000529967869           
       2.839730             0.00655517409            0.000520041718           
       2.842371             0.00658059674            0.000521801173           
       2.845011             0.00693280374            0.000539852227           
       2.847651              0.0076046519            0.000566100015           
       2.850292             0.00670232244            0.000536670349           
       2.852932             0.00695658789            0.000558671027           
       2.855573             0.00595562689            0.000501425147           
       2.858213             0.00707014719            0.000573714803           
       2.860853              0.0075369772            0.000551024168           
       2.863494             0.00673483025            0.000539295698           
       2.866134             0.00656913959            0.000553592983           
       2.868774             0.00689184753            0.000557271855           
       2.871415             0.00598666131            0.000527477875           
       2.874055             0.00670599133            0.000533635603           
       2.876696             0.00816398373            0.000604721433           
       2.879336              0.0075392828            0.000560092455           
       2.881976             0.00721030815            0.000564952356           
       2.884617             0.00797367051            0.000585380804           
       2.887257             0.00711465484            0.000555804584           
       2.889897             0.00637094662            0.000515128669           
       2.892538              0.0059436114            0.000545070613           
       2.895178             0.00685983251            0.000529030179           
       2.897819             0.00721456301            0.000553438752           
       2.900459             0.00678137039            0.000526128256           
       2.903099             0.00823300252            0.000573777631           
       2.905740             0.00720279156            0.000550564469           
       2.908380             0.00710538806            0.000553042397           
       2.911021             0.00675930089            0.000548175419           
       2.913661             0.00722940139             0.00056674762           
       2.916301             0.00703428608            0.000559580424           
       2.918942             0.00684440744            0.000527978899           
       2.921582             0.00690526827            0.000554868667           
       2.924222             0.00660915569            0.000525908857           
       2.926863             0.00795890547            0.000601134383           
       2.929503             0.00799381755            0.000609588891           
       2.932144             0.00728687377            0.000558694142           
       2.934784             0.00625406968            0.000509101806           
       2.937424              0.0072283691            0.000552941929           
       2.940065             0.00662698306             0.00050503637           
       2.942705              0.0076152535            0.000540706642           
       2.945346             0.00596517407            0.000507867061           
       2.947986             0.00620508437            0.000528159544           
       2.950626             0.00631182037            0.000529683518           
       2.953267             0.00700871878            0.000549141312           
       2.955907             0.00800218892            0.000608695055           
       2.958547             0.00663905104             0.00052341236           
       2.961188              0.0063331099            0.000533334939           
       2.963828             0.00773237232            0.000576459549           
       2.966469             0.00786612391            0.000570374795           
       2.969109             0.00724585321            0.000555536031           
       2.971749             0.00710549062            0.000546697058           
       2.974390             0.00805549924            0.000572017577           
       2.977030             0.00730568025            0.000556919365           
       2.979670              0.0103535453            0.000644884771           
       2.982311             0.00924518901            0.000631602291           
       2.984951             0.00746247586            0.000539694461           
       2.987592             0.00706709483            0.000535722077           
       2.990232             0.00843975314            0.000608853486           
       2.992872             0.00748009584            0.000539916194           
       2.995513             0.00861925353             0.00056701245           
       2.998153              0.0120564895            0.000681874239           
       3.000794              0.0126670957            0.000676983468           
       3.003434              0.0122621308            0.000667079733           
       3.006074              0.0569537805             0.00141750942           
       3.008715               0.132211023              0.0020848121           
       3.011355               0.166871222             0.00225863654           
       3.013995                0.07788736             0.00154728074           
       3.016636              0.0564033376             0.00128936481           
       3.019276               0.123683639             0.00187682624           
       3.021917               0.505041075             0.00364672051           
       3.024557                1.82106258             0.00680818805           
       3.027197                1.09807775             0.00515426594           
       3.029838               0.500462003             0.00352900952           
       3.032478                0.26366667             0.00256410763           
       3.035118              0.0722945728              0.0013606589           
       3.037759                0.10713493             0.00165425047           
       3.040399                0.15517458             0.00205364687           
       3.043040               0.582906502             0.00402907983           
       3.045680               0.382641135             0.00307132947           
       3.048320              0.0788193019             0.00142427561           
       3.050961               0.117134614             0.00176687613           
       3.053601              0.0884949866             0.00147912124           
       3.056242              0.0595812521             0.00129038501           
       3.058882              0.0571524609             0.00135569341           
       3.061522              0.0426285631             0.00114872519           
       3.064163              0.0520175881             0.00125296047           
       3.066803               0.113075949             0.00194485371           
       3.069443               0.114387715             0.00204658386           
       3.072084               0.044882636             0.00124829997           
       3.074724              0.0412376108             0.00133625982           
       3.077365              0.0829623836             0.00196199708           
       3.080005              0.0139765377            0.000809862937           
       3.082645              0.0125122205             0.00080497916           
       3.085286              0.0144987876            0.000873365985           
       3.087926              0.0086113859            0.000667892879           
       3.090566              0.0125246135            0.000789210745           
       3.093207              0.0112973176            0.000779980539           
       3.095847             0.00869202432            0.000655755187           
       3.098488             0.00875912037            0.000729921291           
       3.101128             0.00973826094            0.000774587579           
       3.103768              0.0106080479            0.000793229952           
       3.106409             0.00906937093             0.00078058708           
       3.109049             0.00833910282            0.000718299435           
       3.111690             0.00788760522            0.000686591203           
       3.114330             0.00844821224            0.000725688155           
       3.116970             0.00765617691            0.000696137467           
       3.119611              0.0137622254            0.000993463961           
       3.122251              0.0227350407             0.00133567647           
       3.124891              0.0327440513             0.00161787967           
       3.127532              0.0239268834             0.00135297937           
       3.130172              0.0127014647             0.00100280215           
       3.132813             0.00779154508            0.000773215684           
       3.135453             0.00722229972            0.000738302657           
       3.138093             0.00629710216            0.000746982015           
       3.140734             0.00723487241            0.000738682535           
       3.143374             0.00606754069            0.000715396936           
       3.146014             0.00604666347            0.000768831302           
       3.148655             0.00743559157            0.000792544356           
       3.151295             0.00652667789            0.000791277954           
       3.153936             0.00660760154            0.000769074598           
       3.156576             0.00573001177            0.000706441929           
       3.159216             0.00694251813            0.000781491144           
       3.161857              0.0066739655            0.000763108759           
       3.164497               0.006739403             0.00080572865           
       3.167138             0.00901236379            0.000962720826           
       3.169778             0.00775491444            0.000878309761           
       3.172418              0.0068011787            0.000814162694           
       3.175059             0.00678986739            0.000721189226           
       3.177699             0.00618566789            0.000728925317           
       3.180339             0.00631143076            0.000788886258           
       3.182980             0.00599876639            0.000795168765           
       3.185620             0.00458314502            0.000707839624           
       3.188261             0.00634521691            0.000847731096           
       3.190901              0.0039207711            0.000612874317           
       3.193541              0.0079292548            0.000915809014           
       3.196182             0.00688915005            0.000889608763           
       3.198822             0.00630920114            0.000851626089           
       3.201463             0.00688062182            0.000874033598           
       3.204103              0.0054850423            0.000775628759           
       3.206743             0.00625778419            0.000828387312           
       3.209384             0.00510163927            0.000808106262           
       3.212024             0.00465097717            0.000719362407           
       3.214664             0.00560277287            0.000897825684           
       3.217305             0.00647030073            0.000917141675           
       3.219945             0.00619284438            0.000923514197           
       3.222586             0.00598907253            0.000865039001           
       3.225226             0.00599529365            0.000960124302           
       3.227866             0.00590282958            0.000870750588           
       3.230507             0.00828345144             0.00106926261           
       3.233147             0.00701403428            0.000991871568           
       3.235787             0.00512308667            0.000867505377           
       3.238428             0.00546726686            0.000967083194           
       3.241068             0.00656567467            0.000990953031           
       3.243709             0.00622251255            0.000996697566           
       3.246349             0.00637717888            0.000919805286           
       3.248989             0.00627374024             0.00107724099           
       3.251630             0.00739635448             0.00112634762           
       3.254270             0.00658313511            0.000949698483           
       3.256911             0.00522087383            0.000922804882           
       3.259551             0.00696109611             0.00114716823           
       3.262191             0.00470968581            0.000963832134           
       3.264832             0.00364545373             0.00088600312           
       3.267472             0.00395950417            0.000866228516           
       3.270112              0.0066661677             0.00124211713           
       3.272753             0.00640138757             0.00111413106           
       3.275393             0.00586549372              0.0010881781           
       3.278034             0.00583351675             0.00108581881           
       3.280674             0.00620144185             0.00121485315           
       3.283314             0.00591321984             0.00106096016           
       3.285955             0.00343183072            0.000833944744           
       3.288595             0.00705300321             0.00133007468           
       3.291235             0.00577447418             0.00123718518           
       3.293876             0.00380775845             0.00101908296           
       3.296516             0.00551123845             0.00117701183           
       3.299157             0.00713760135             0.00132263747           
       3.301797             0.00823698852             0.00162074453           
       3.304437             0.00480643457             0.00107263196           
       3.307078             0.00839184495             0.00156126538           
       3.309718             0.00306364883            0.000973694676           
       3.312359             0.00715842467             0.00148872742           
       3.314999              0.0071877064             0.00146876882           
       3.317639             0.00385040893             0.00102811308           
       3.320280             0.00558306819             0.00131625942           
       3.322920             0.00642684437             0.00143599419           
       3.325560             0.00348507856             0.00105816899           
       3.328201              0.0069821725               0.001348919           
       3.330841             0.00387118341             0.00122243379           
       3.333482             0.00724356613             0.00158058184           
       3.336122             0.00548234314             0.00137569915           
       3.338762             0.00599966373             0.00166243255           
       3.341403             0.00628637834             0.00162603434           
       3.344043             0.00422440182             0.00127973665           
       3.346683             0.00686500431             0.00166551853           
       3.349324             0.00720651033             0.00191860243           
       3.351964             0.00283316969             0.00127210756           
       3.354605             0.00371285159             0.00166546514           
       3.357245              0.0084320536             0.00226415518           
       3.359885             0.00349696291              0.0011669993           
       3.362526             0.00960611888             0.00241878515           
       3.365166             0.00543438201             0.00171592867           
       3.367807             0.00354948245             0.00177479284           
       3.370447             0.00181597897             0.00105303834           
       3.373087             0.00134861246            0.000970419723           
       3.375728             0.00437102055             0.00197172655           
       3.378368             0.00580318749             0.00337177402           
       3.381008             0.00102716263             0.00105760355           
       3.383649             0.00772639151             0.00232689138           
       3.386289              0.0048795948             0.00218856866           
       3.388930             0.00246437533             0.00246016954           
       3.391570             0.00370449434              0.0021337256           
       3.394210              0.0138075084             0.00521316806           
       3.396851             0.00241445526             0.00243852631           
       3.399491             0.00239847864             0.00243112832           
       3.402131             0.00479862286              0.0048651334           
       3.404772             0.00962947414             0.00974894247           
       3.407412                       nan                       nan           
       3.410053             0.00923531509             0.00955908356           
       3.412693                       nan                       nan           
       3.415333              0.0089721515             0.00943090275           
