################################################################################
# EDF_DataBlockID                     0.Image.Psd
# EDF_BinarySize                      2105344
# EDF_HeaderSize                      2560
# ByteOrder                           LowByteFirst
# DataType                            FloatValue
# Dim_1                               512
# Dim_2                               1028
# Image                               0
# HeaderID                            EH:000000:000000:000000
# Size                                2105344
# Center_1                            304.9000
# Center_2                            588.7000
# Comment                             Xenocs_Cell_Window - 20251028_20perc_iodine_1.23mg
# DDummy                              0.6
# Date                                2025-10-30T13:26:46
# Delta                               21.910000
# Dummy                               -1.5
# ExposureTime                        360
# Gamma                               15.360000
# Intensity1                          8.55086e-10
# PSize_1                             7.5e-05
# PSize_2                             7.5e-05
# Pressure                            0.0326366
# SampleDistance                      0.115750
# SampleEnvKind                       large
# SampleEnvPN                         ElectroChemical cell
# SampleEnvSN                         1141
# Thickness                           0
# Wavelength                          1.541891e-10
# Wavelength                          1.54189e-10
# aux                                 0
# aux_dial                            0.002375
# beamx                               588.434
# beamx_dial                          588.434
# beamz                               657.808
# beamz_dial                          657.808
# det0x                               0
# det0x_dial                          6.36945
# det0xvd                             0
# det0xvd_dial                        0
# det0y                               450.002
# det0y_dial                          481.635
# det0z                               0
# det0z_dial                          1.23302
# det0zvd                             0
# det0zvd_dial                        0
# mag                                 1.818
# mag_dial                            1.818
# om                                  0.2499
# om_dial                             -0.610199
# phi                                 -0.0120535
# phi_dial                            0
# ry                                  0.599993
# ry_dial                             0.599993
# s1bot                               0.8
# s1bot_dial                          -1.66094
# s1hl                                0.8
# s1hl_dial                           -0.608437
# s1hr                                0.8
# s1hr_dial                           0.970938
# s1top                               0.8
# s1top_dial                          -0.461562
# s2bot                               0.45
# s2bot_dial                          1.36109
# s2hl                                0.45
# s2hl_dial                           -0.83375
# s2hr                                0.45
# s2hr_dial                           -0.118594
# s2top                               0.45
# s2top_dial                          1.44734
# w2theta                             32
# w2theta_dial                        32
# waxsch                              19.2605
# waxsch_dial                         -32.7355
# waxsh                               137.085
# waxsh_dial                          -43.5338
# waxsth                              26.0607
# waxsth_dial                         -19.4086
# waxsz                               67.0407
# waxsz_dial                          -23.7954
# wind                                65.9854
# wind_dial                           66.0041
# wpsi                                124
# wpsi_dial                           124
# wstod                               115
# wstod_dial                          115
# x                                   0
# x_dial                              1.00969
# z                                   0
# z_dial                              13.3172
# CountCutoff                         6807993
# DetectorModel                       Dectris EIGER2 Si 500K, S/N E-01-0554
# ThresholdSetting                    4023.88989258
# Saturation                          0
# FlatField                           Corrected
# BackgroundReductionExtra            0.02
# BackgroundCorrectionConstant        0.0026712
# Detector                            0
# Monitor                             0
# Pil_Roi0                            0
# SumForIntensity1                    3.07831e+08
# TransmittedFlux                     855086
# det                                 0
# mon                                 0
# pilai0                              3.07831e+08
# pilai1                              779590
# pilct0                              5.32044e+08
# pilct1                              779590
# pilroi0                             0
# pilroi1                             0
# sec                                 1
# title                               20251028_20perc_iodine_1.23mg_1_00428.edf
# usaxs0                              0
# Operation                           Azimuthal average I(q)
# Error_model                         ErrorModel.poisson
# Geometrical_correction              True
# Transmission_correction             True
# Thickness_correction                False
# Binning mode                        Uniform
# Binning factor                      1.0
# Psi                                 0.0
# Omega                               0.2499
# MaskInvalidPixels                   True
# DetectorEdge                        3
# MaskFiles                           ['WAXS_corrected.edf']
################################################################################
    q(A⁻¹)                Intensity(a.u.)            Sigma_I(a.u.)            
       0.693100             0.00826107565             0.00605936997           
       0.695741             0.00846116796             0.00500416991           
       0.698381           -2.37244367e-05                         0           
       0.701021           -2.37066551e-05                         0           
       0.703662           -2.36957502e-05                         0           
       0.706302             0.00512510306             0.00301390702           
       0.708942           -2.36606615e-05                         0           
       0.711583              0.0132367565             0.00541347565           
       0.714223             0.00578408592             0.00413145175           
       0.716864              0.0050093005             0.00251561771           
       0.719504             0.00735238819             0.00328880535           
       0.722144             0.00501675905              0.0025158364           
       0.724785             0.00475629281             0.00195405359           
       0.727425             0.00587579615             0.00293816097           
       0.730065             0.00803253907              0.0024300201           
       0.732706             0.00825078866             0.00206813992           
       0.735346             0.00609040441             0.00231621764           
       0.737987             0.00920776589             0.00201247505           
       0.740627             0.00674646487             0.00257026549           
       0.743267             0.00833295381             0.00191329308           
       0.745908              0.0109036516             0.00237452486           
       0.748548             0.00527563987             0.00152244896           
       0.751189             0.00799257347             0.00252502113           
       0.753829             0.00743537108             0.00223871149           
       0.756469              0.0091801221             0.00200587738           
       0.759110              0.0101662473             0.00222449289           
       0.761750             0.00989926105             0.00194094281           
       0.764390              0.0099764439             0.00203941072           
       0.767031              0.0065471269             0.00143067621           
       0.769671             0.00680705087             0.00181974324           
       0.772312             0.00925531135             0.00161539035           
       0.774952             0.00823178395             0.00205725756           
       0.777592             0.00680894805             0.00136282122           
       0.780233             0.00471645281              0.0013684546           
       0.782873             0.00941540039             0.00184920336           
       0.785513             0.00537784644             0.00149407793           
       0.788154             0.00665423883             0.00139027948           
       0.790794             0.00910115582             0.00194383874           
       0.793435             0.00737524921              0.0015719927           
       0.796075             0.00652367898             0.00142421196           
       0.798715              0.0055801176             0.00155654886           
       0.801356              0.0105493602             0.00184200183           
       0.803996             0.00700194407             0.00152995632           
       0.806637             0.00655314735             0.00117789587           
       0.809277             0.00620044592             0.00124015146           
       0.811917             0.00738408699             0.00126517126           
       0.814558             0.00745886065             0.00132156041           
       0.817198             0.00615187355              0.0011402485           
       0.819838             0.00821569175             0.00133361384           
       0.822479             0.00689416543             0.00143455755           
       0.825119             0.00844828276             0.00135162142           
       0.827760             0.00755372349              0.0012946257           
       0.830400             0.00918610321              0.0013437069           
       0.833040             0.00602568332             0.00114018599           
       0.835681             0.00643585288             0.00133958628           
       0.838321              0.0062686744             0.00110965816           
       0.840961             0.00605418353             0.00118816057           
       0.843602             0.00582956868              0.0010691884           
       0.846242             0.00644343123             0.00112390562           
       0.848883             0.00614120306             0.00112285777           
       0.851523             0.00599501841             0.00109563211           
       0.854163             0.00837128813             0.00137684423           
       0.856804             0.00746671888             0.00116917494           
       0.859444              0.0073726636             0.00113832756           
       0.862085             0.00628285856             0.00109523097           
       0.864725             0.00760179418             0.00123290377           
       0.867365             0.00600569002             0.00101617494           
       0.870006             0.00701493558             0.00104654222           
       0.872646             0.00856400728             0.00121257658           
       0.875286             0.00904713451             0.00119902764           
       0.877927             0.00710214329             0.00102512002           
       0.880567             0.00700579827             0.00105481692           
       0.883208             0.00869521786             0.00116406617           
       0.885848             0.00515416015            0.000930549809           
       0.888488             0.00694477581             0.00101312736           
       0.891129             0.00651646816             0.00100768142           
       0.893769             0.00771268748             0.00104916482           
       0.896410              0.0068072629            0.000918980466           
       0.899050             0.00705445636             0.00102881462           
       0.901690             0.00782739355             0.00118047741           
       0.904331             0.00769600039             0.00103773711           
       0.906971             0.00774672928             0.00110761387           
       0.909611             0.00918531786             0.00109791927           
       0.912252             0.00727838702             0.00100947845           
       0.914892             0.00749360581              0.0011193357           
       0.917533             0.00744128402             0.00105518432           
       0.920173             0.00732525842            0.000971341228           
       0.922813             0.00807586037             0.00107026315           
       0.925454             0.00884873744             0.00100880507           
       0.928094             0.00835355536             0.00104641622           
       0.930734             0.00714210259             0.00104169475           
       0.933375              0.0092292807             0.00117252159           
       0.936015             0.00858919065             0.00102730919           
       0.938656             0.00905591186             0.00113160595           
       0.941296             0.00744511314            0.000929875813           
       0.943936             0.00658902981            0.000857859737           
       0.946577             0.00725361659            0.000894132997           
       0.949217              0.0103454442            0.000981960379           
       0.951858             0.00714482068            0.000854238121           
       0.954498             0.00917081906             0.00112021586           
       0.957138             0.00613001111             0.00086765039           
       0.959779             0.00691611388            0.000908513907           
       0.962419             0.00714953448            0.000917573707           
       0.965059             0.00806569168             0.00102501589           
       0.967700             0.00598976833            0.000904688169           
       0.970340             0.00715105716            0.000874729402           
       0.972981             0.00814228595            0.000850405168           
       0.975621             0.00743743178            0.000864640358           
       0.978261             0.00845133285            0.000875771077           
       0.980902             0.00816236231             0.00102974698           
       0.983542             0.00876236233            0.000944830105           
       0.986182              0.0066803436            0.000809958617           
       0.988823             0.00768211431            0.000843381008           
       0.991463             0.00768063713            0.000899713027           
       0.994104             0.00781374992            0.000885256793           
       0.996744             0.00699165664            0.000854134624           
       0.999384             0.00810021008            0.000822213146           
       1.002025             0.00822007704            0.000924463616           
       1.004665             0.00896370996            0.000882232756           
       1.007306             0.00884998785            0.000872131454           
       1.009946              0.0067037653            0.000774124143           
       1.012586             0.00923328043            0.000884834243           
       1.015227             0.00675070731            0.000812810688           
       1.017867             0.00677589846            0.000782623438           
       1.020507             0.00832728532            0.000840391571           
       1.023148             0.00680183302            0.000819549893           
       1.025788             0.00680261902            0.000751506044           
       1.028429             0.00955826104            0.000933267321           
       1.031069             0.00677772116            0.000739547084           
       1.033709             0.00790797498            0.000849162671           
       1.036350             0.00719466482            0.000727454745           
       1.038990             0.00946762409            0.000849825034           
       1.041630             0.00737620926            0.000782373529           
       1.044271             0.00806764306            0.000769507574           
       1.046911             0.00714254879            0.000761601958           
       1.049552             0.00708086338            0.000796696775           
       1.052192             0.00860100577            0.000801780782           
       1.054832             0.00822353359            0.000791121358           
       1.057473             0.00954752547            0.000840317096           
       1.060113             0.00815296195             0.00075732312           
       1.062754             0.00769521463            0.000751194014           
       1.065394             0.00867542889            0.000843273422           
       1.068034             0.00827258131            0.000749237325           
       1.070675              0.0081290239            0.000774735658           
       1.073315             0.00798109444            0.000778657403           
       1.075955             0.00938760345            0.000797243257           
       1.078596             0.00917870986            0.000837831166           
       1.081236             0.00819793455            0.000758204393           
       1.083877             0.00902518345            0.000788403634           
       1.086517             0.00862504787            0.000826446383           
       1.089157             0.00957139973            0.000903351254           
       1.091798             0.00868821815            0.000754559435           
       1.094438             0.00813121586            0.000727615364           
       1.097078             0.00869930509            0.000721825998           
       1.099719             0.00988346513            0.000832209698           
       1.102359             0.00896700803            0.000742361196           
       1.105000             0.00861450482            0.000813624733           
       1.107640              0.0109084591            0.000875432052           
       1.110280             0.00911117689            0.000730002843           
       1.112921             0.00741244994            0.000707310176           
       1.115561             0.00818295502            0.000706314247           
       1.118202             0.00959695235            0.000765629367           
       1.120842              0.0080988005            0.000739209698           
       1.123482             0.00748620687             0.00070759903           
       1.126123             0.00816953088             0.00070900509           
       1.128763               0.010167615            0.000796393745           
       1.131403             0.00844766388             0.00069948262           
       1.134044             0.00896091805            0.000741312412           
       1.136684             0.00926805934            0.000803798632           
       1.139325               0.009579311            0.000752789227           
       1.141965             0.00892275557            0.000731336718           
       1.144605             0.00745085165            0.000637225113           
       1.147246             0.00843268736            0.000693783658           
       1.149886             0.00868296474            0.000701504757           
       1.152527             0.00839269516            0.000699708835           
       1.155167             0.00760632068            0.000633583728           
       1.157807              0.0110371093            0.000818297699           
       1.160448             0.00984851465            0.000754836096           
       1.163088             0.00906049616             0.00069059696           
       1.165728               0.009537005             0.00072745517           
       1.168369             0.00875118108            0.000703278615           
       1.171009             0.00871609649            0.000681143305           
       1.173650             0.00940534851            0.000726128025           
       1.176290             0.00845797123            0.000672904021           
       1.178930             0.00998225582            0.000716474587           
       1.181571             0.00848897078            0.000673816899           
       1.184211             0.00973110108            0.000723989841           
       1.186851             0.00942532279            0.000696624605           
       1.189492             0.00941081347            0.000691405261           
       1.192132             0.00996645258            0.000703540438           
       1.194773             0.00941681949            0.000686853787           
       1.197413             0.00963548654            0.000665700197           
       1.200053             0.00909220738            0.000663091452           
       1.202694               0.009358746            0.000639737748           
       1.205334             0.00974327632            0.000703458216           
       1.207975             0.00980100137            0.000673456868           
       1.210615             0.00961273857            0.000735767387           
       1.213255               0.009431277            0.000652614388           
       1.215896               0.008836965            0.000643163664           
       1.218536             0.00993052088            0.000655578294           
       1.221176             0.00976226226            0.000706684061           
       1.223817               0.010751563             0.00069617838           
       1.226457             0.00961150961            0.000671495307           
       1.229098             0.00913329985            0.000654545557           
       1.231738             0.00994525686            0.000686382529           
       1.234378              0.0100569611            0.000648571498           
       1.237019             0.00936547479             0.00064496089           
       1.239659              0.0108194383            0.000687180966           
       1.242299              0.0100559757            0.000654075301           
       1.244940             0.00976636802            0.000626902199           
       1.247580              0.0103081439            0.000663752153           
       1.250221             0.00949186069            0.000632999444           
       1.252861              0.0100219222            0.000619216192           
       1.255501              0.0090584821            0.000639216371           
       1.258142              0.0107389065            0.000654003266           
       1.260782             0.00942824715            0.000626054423           
       1.263423              0.0108882797            0.000646470205           
       1.266063              0.0107170751            0.000657383404           
       1.268703              0.0107298367            0.000652316435           
       1.271344             0.00910364696            0.000621218111           
       1.273984             0.00917064972               0.000602178           
       1.276624             0.00934155427             0.00059634544           
       1.279265              0.0101410687            0.000631659604           
       1.281905             0.00979041264            0.000623397335           
       1.284546              0.0102305988            0.000615967184           
       1.287186             0.00984215326            0.000592745262           
       1.289826              0.0101539575            0.000634523297           
       1.292467              0.0108481923            0.000641410369           
       1.295107              0.0110029943            0.000639553758           
       1.297747              0.0101741738            0.000588498599           
       1.300388              0.0104982773            0.000651675914           
       1.303028                0.01087015            0.000633051663           
       1.305669              0.0099207776            0.000619175835           
       1.308309              0.0104229672            0.000628403867           
       1.310949              0.0103842365            0.000626604887           
       1.313590              0.0107786178            0.000618437428           
       1.316230              0.0109670587            0.000665702591           
       1.318871              0.0114141028            0.000665129256           
       1.321511              0.0103024579            0.000620197881           
       1.324151                0.01176604            0.000643139334           
       1.326792             0.00985403029            0.000592207051           
       1.329432              0.0090313514            0.000562946861           
       1.332072              0.0100295368            0.000584400313           
       1.334713              0.0121955194            0.000665107143           
       1.337353              0.0119196662            0.000630595906           
       1.339994              0.0110807308            0.000638035025           
       1.342634              0.0112860259            0.000617477313           
       1.345274             0.00971253592            0.000592812999           
       1.347915              0.0118660985            0.000637152923           
       1.350555              0.0114869339            0.000637869876           
       1.353195              0.0116375868            0.000645192504           
       1.355836              0.0117464802            0.000638096501           
       1.358476              0.0114360735            0.000611445969           
       1.361117             0.00993197218            0.000570601721           
       1.363757              0.0119626979            0.000645345751           
       1.366397              0.0107032581            0.000591957672           
       1.369038              0.0105895845            0.000594668719           
       1.371678              0.0111086955            0.000603700345           
       1.374319              0.0101453942            0.000571963764           
       1.376959               0.011149621            0.000593573487           
       1.379599              0.0104924965            0.000617100566           
       1.382240              0.0106387415            0.000584009822           
       1.384880              0.0107105305            0.000620682707           
       1.387520              0.0115502279            0.000612152996           
       1.390161              0.0110739423            0.000569284818           
       1.392801               0.010410597            0.000575100321           
       1.395442             0.00982854769            0.000566424192           
       1.398082              0.0109313471            0.000559398808           
       1.400722              0.0113538906            0.000597174916           
       1.403363              0.0118568254            0.000642370596           
       1.406003              0.0107011138            0.000571122744           
       1.408644              0.0116653147            0.000624660699           
       1.411284             0.00993103861              0.0005457611           
       1.413924              0.0113645171            0.000581657993           
       1.416565              0.0104135908            0.000554604184           
       1.419205              0.0112174317            0.000600454844           
       1.421845              0.0108024133            0.000588896461           
       1.424486              0.0109688443            0.000570408831           
       1.427126              0.0124105051            0.000630282487           
       1.429767               0.010585086            0.000547672867           
       1.432407              0.0111038448            0.000587029123           
       1.435047              0.0114800998            0.000560580699           
       1.437688              0.0117111634            0.000574659679           
       1.440328              0.0102441236            0.000548540739           
       1.442968              0.0104212214            0.000565658087           
       1.445609              0.0103870614            0.000546815476           
       1.448249              0.0106467449            0.000567625656           
       1.450890              0.0116168423             0.00058905212           
       1.453530              0.0118455947            0.000622305009           
       1.456170              0.0108816827            0.000578867182           
       1.458811              0.0105109106            0.000544013237           
       1.461451              0.0106050526             0.00054787752           
       1.464092              0.0118632285            0.000583255192           
       1.466732              0.0100117123            0.000531206298           
       1.469372              0.0102773321             0.00052561117           
       1.472013              0.0122587828            0.000619122037           
       1.474653              0.0106460667            0.000568061587           
       1.477293              0.0112367466            0.000595908356           
       1.479934              0.0111059547            0.000565302097           
       1.482574              0.0104182258            0.000529639499           
       1.485215              0.0105252058            0.000542267041           
       1.487855              0.0107954924            0.000556430261           
       1.490495               0.011261989            0.000566232302           
       1.493136              0.0104202386            0.000537194956           
       1.495776              0.0106586208            0.000540831026           
       1.498416              0.0118203893            0.000588177457           
       1.501057              0.0103256951            0.000537618104           
       1.503697              0.0102722132            0.000524244491           
       1.506338             0.00964933817            0.000517386472           
       1.508978              0.0101076773            0.000524324157           
       1.511618               0.010443815            0.000567611763           
       1.514259              0.0110747142            0.000564311983           
       1.516899              0.0105960043            0.000537446446           
       1.519540              0.0104061314             0.00054119807           
       1.522180              0.0108701293            0.000557991184           
       1.524820             0.00993801476            0.000530537815           
       1.527461               0.010433945            0.000546302746           
       1.530101              0.0108806607            0.000552295456           
       1.532741              0.0105334649            0.000540258671           
       1.535382              0.0103502467            0.000544160981           
       1.538022              0.0106525946             0.00052006192           
       1.540663              0.0109500679             0.00056711497           
       1.543303              0.0105155663            0.000516022429           
       1.545943              0.0106751309            0.000550299878           
       1.548584              0.0107610852            0.000562428809           
       1.551224              0.0107820496             0.00052052488           
       1.553864             0.00985597979            0.000525880467           
       1.556505             0.00955151475            0.000500105959           
       1.559145              0.0101998022            0.000523129876           
       1.561786              0.0097919399            0.000512958657           
       1.564426              0.0109555574            0.000525705279           
       1.567066               0.011254648            0.000558306607           
       1.569707             0.00992859925            0.000514966036           
       1.572347             0.00983511112            0.000529500754           
       1.574988             0.00939444692             0.00049257573           
       1.577628             0.00937884081            0.000513208228           
       1.580268             0.00966219395            0.000504699582           
       1.582909             0.00926802488            0.000523935996           
       1.585549             0.00979748187             0.00052305434           
       1.588189              0.0102786088            0.000524050493           
       1.590830             0.00929422985            0.000497699542           
       1.593470             0.00981750311            0.000531772179           
       1.596111             0.00961130258            0.000513693703           
       1.598751             0.00888436085            0.000478558426           
       1.601391              0.0100714776            0.000520770088           
       1.604032             0.00894167987            0.000500950017           
       1.606672             0.00967425046            0.000506265977           
       1.609312             0.00856442337            0.000497245645           
       1.611953             0.00843335029            0.000482848059           
       1.614593             0.00952419319            0.000503336545           
       1.617234             0.00942861982             0.00051902238           
       1.619874             0.00909596462             0.00050777046           
       1.622514             0.00900567126            0.000498351648           
       1.625155             0.00909695721            0.000503829943           
       1.627795             0.00899729344            0.000488785503           
       1.630436             0.00889794826            0.000483541362           
       1.633076             0.00892349385            0.000490585912           
       1.635716             0.00855026099            0.000472744975           
       1.638357             0.00948575969            0.000499248216           
       1.640997             0.00950889744            0.000514998405           
       1.643637             0.00907437645            0.000489567236           
       1.646278             0.00830235123            0.000482992169           
       1.648918             0.00870211231            0.000495832507           
       1.651559             0.00863474811            0.000497743095           
       1.654199             0.00833840475            0.000475719253           
       1.656839             0.00833114193            0.000475678016           
       1.659480             0.00982891349            0.000536072325           
       1.662120             0.00832589479             0.00046468755           
       1.664761             0.00932477704            0.000510825359           
       1.667401             0.00964285328            0.000496496981           
       1.670041             0.00758760275            0.000447134477           
       1.672682             0.00901826695            0.000485465873           
       1.675322              0.0081243974            0.000457816036           
       1.677962             0.00925794418            0.000483320543           
       1.680603             0.00875962674            0.000471579759           
       1.683243              0.0080623491            0.000472017373           
       1.685884             0.00989291389            0.000526725839           
       1.688524             0.00871170191            0.000484726587           
       1.691164             0.00887533375            0.000489368766           
       1.693805             0.00929492994            0.000506304564           
       1.696445             0.00855972968            0.000488686956           
       1.699085             0.00858101095            0.000472898746           
       1.701726             0.00829205281            0.000447819489           
       1.704366             0.00886488842            0.000487788812           
       1.707007              0.0081819283            0.000458176289           
       1.709647             0.00805427098            0.000459721624           
       1.712287             0.00835404713            0.000472274093           
       1.714928             0.00887079523            0.000490585196           
       1.717568             0.00836813257            0.000448848905           
       1.720209              0.0079945033            0.000459522637           
       1.722849             0.00837466431            0.000467903571           
       1.725489             0.00800497831            0.000457843714           
       1.728130             0.00860083078            0.000504343164           
       1.730770             0.00751128327            0.000447624381           
       1.733410             0.00829465757            0.000462993594           
       1.736051             0.00856328615            0.000473705465           
       1.738691             0.00902625516             0.00047648343           
       1.741332             0.00837014398            0.000472255904           
       1.743972             0.00841462723            0.000488978605           
       1.746612             0.00851452244            0.000472323018           
       1.749253             0.00794502355            0.000465264145           
       1.751893             0.00816856788            0.000468301334           
       1.754533             0.00867244648            0.000482078185           
       1.757174             0.00827305737            0.000466437625           
       1.759814             0.00854263493            0.000466791582           
       1.762455             0.00866801136            0.000478838501           
       1.765095             0.00879278186            0.000461352257           
       1.767735             0.00849502701            0.000467463117           
       1.770376             0.00842756428             0.00046683071           
       1.773016             0.00889445584            0.000476375332           
       1.775657             0.00889875963            0.000469634522           
       1.778297             0.00837851497            0.000451775789           
       1.780937             0.00792819171            0.000463857505           
       1.783578             0.00897461898            0.000481180761           
       1.786218             0.00816411645             0.00047895292           
       1.788858             0.00899564785            0.000477493801           
       1.791499             0.00950198529            0.000485236617           
       1.794139             0.00850074024            0.000455236294           
       1.796780             0.00833464269            0.000448593776           
       1.799420             0.00955208778            0.000477581178           
       1.802060             0.00894754828            0.000465954929           
       1.804701             0.00999235394            0.000472537873           
       1.807341             0.00980095002            0.000491755961           
       1.809981             0.00942114983            0.000483741167           
       1.812622             0.00889016046            0.000461451377           
       1.815262             0.00881045111            0.000469136276           
       1.817903             0.00873192632            0.000460120878           
       1.820543             0.00874192729            0.000467558124           
       1.823183             0.00808820938             0.00044948933           
       1.825824             0.00894699146            0.000451646375           
       1.828464             0.00883423677            0.000467884446           
       1.831105             0.00827606711            0.000440341548           
       1.833745             0.00796389807            0.000441182285           
       1.836385             0.00877075916            0.000476205429           
       1.839026             0.00853001571            0.000468140658           
       1.841666             0.00792407751            0.000449607025           
       1.844306              0.0084741273            0.000452263582           
       1.846947              0.0089511685             0.00046889361           
       1.849587             0.00886169315            0.000515177905           
       1.852228             0.00911050959            0.000472343208           
       1.854868              0.0081954733            0.000473240671           
       1.857508             0.00934291321            0.000500328979           
       1.860149             0.00888437852            0.000496761253           
       1.862789             0.00918830316            0.000487621926           
       1.865429             0.00884659688            0.000499448293           
       1.868070             0.00799118501            0.000468360977           
       1.870710             0.00884899768            0.000481495742           
       1.873351             0.00925241012            0.000498435313           
       1.875991             0.00836678374            0.000481716142           
       1.878631             0.00921624052            0.000495895818           
       1.881272             0.00906814019            0.000488599447           
       1.883912             0.00889617206            0.000503645337           
       1.886553             0.00903224189            0.000501808768           
       1.889193              0.0077993785            0.000465508662           
       1.891833             0.00876342209            0.000512457014           
       1.894474             0.00797141739            0.000484495243           
       1.897114             0.00832484068            0.000479116449           
       1.899754             0.00866743584            0.000490921176           
       1.902395             0.00846810109            0.000475756122           
       1.905035              0.0091639737            0.000524201156           
       1.907676             0.00847086065            0.000475009769           
       1.910316             0.00888585816            0.000499423864           
       1.912956             0.00845250096            0.000476377254           
       1.915597             0.00905391794            0.000495789283           
       1.918237             0.00804436983            0.000482639525           
       1.920878             0.00899210424            0.000508189912           
       1.923518             0.00943333438            0.000520729544           
       1.926158             0.00880941224            0.000496684459           
       1.928799             0.00866634334            0.000486932374           
       1.931439             0.00872127146            0.000501285198           
       1.934079             0.00835109531            0.000511366782           
       1.936720             0.00868015001            0.000483040392           
       1.939360             0.00864852332            0.000514397052           
       1.942001             0.00867409321            0.000472167706           
       1.944641             0.00768846893            0.000453289473           
       1.947281             0.00870652897            0.000477921485           
       1.949922             0.00790047967            0.000470244681           
       1.952562             0.00807327449            0.000490259762           
       1.955202              0.0088753438            0.000513409938           
       1.957843             0.00778833521            0.000468471181           
       1.960483             0.00877540826            0.000519897474           
       1.963124              0.0089152836            0.000513273953           
       1.965764             0.00875086384            0.000479547577           
       1.968404             0.00885745201            0.000477900793           
       1.971045             0.00776802006            0.000456297559           
       1.973685             0.00879908376            0.000509396883           
       1.976326             0.00863567258            0.000497708913           
       1.978966             0.00861731373            0.000501542758           
       1.981606             0.00701266759            0.000461878739           
       1.984247               0.008049079            0.000491580603           
       1.986887             0.00873343883            0.000505918466           
       1.989527              0.0083467291            0.000489264379           
       1.992168             0.00793395045            0.000494941376           
       1.994808             0.00715612039            0.000468039169           
       1.997449             0.00759704498            0.000472339182           
       2.000089             0.00796008074            0.000481576298           
       2.002729             0.00862198169             0.00050149916           
       2.005370             0.00775296047            0.000470437843           
       2.008010             0.00758438081            0.000485602191           
       2.010650             0.00713186996            0.000474406776           
       2.013291              0.0082158812            0.000488535554           
       2.015931             0.00789635049            0.000475555737           
       2.018572             0.00804436747            0.000513397034           
       2.021212              0.0087093038            0.000524596427           
       2.023852             0.00752543945            0.000461528521           
       2.026493             0.00747038826            0.000480381874           
       2.029133             0.00716946633            0.000461136548           
       2.031774             0.00797633629            0.000510459281           
       2.034414             0.00864092087            0.000488869329           
       2.037054              0.0070920778            0.000454119621           
       2.039695             0.00724174727            0.000455420649           
       2.042335              0.0078489345            0.000492723969           
       2.044975             0.00734170678            0.000470758158           
       2.047616             0.00702414708            0.000459320658           
       2.050256             0.00754273584            0.000480478851           
       2.052897             0.00766846629            0.000493398298           
       2.055537             0.00776370153            0.000479802582           
       2.058177             0.00782037752            0.000471567993           
       2.060818             0.00751382164            0.000484224818           
       2.063458              0.0077858517            0.000513663593           
       2.066098             0.00747855002            0.000474898026           
       2.068739             0.00754527489            0.000484426547           
       2.071379             0.00781805454            0.000505965737           
       2.074020             0.00842564745            0.000513843541           
       2.076660             0.00735515876            0.000483973952           
       2.079300             0.00824705613            0.000525034995           
       2.081941             0.00731354356            0.000452704789           
       2.084581             0.00885597439            0.000525813331           
       2.087222             0.00774678475            0.000474278409           
       2.089862              0.0074999072            0.000508263921           
       2.092502             0.00685763908            0.000471121049           
       2.095143             0.00783850376            0.000520133406           
       2.097783             0.00752335975            0.000493349786           
       2.100423             0.00702505318             0.00045937467           
       2.103064              0.0066186426            0.000462669697           
       2.105704              0.0077163267              0.0004970904           
       2.108345             0.00703469677            0.000455989973           
       2.110985             0.00769087122            0.000509238287           
       2.113625             0.00796805516            0.000522856913           
       2.116266             0.00805515559            0.000533165414           
       2.118906             0.00759492691            0.000482476991           
       2.121546             0.00836540858             0.00049669088           
       2.124187             0.00740249642            0.000490448317           
       2.126827             0.00780331879            0.000509171422           
       2.129468             0.00799253751            0.000516624035           
       2.132108             0.00758544017            0.000489667783           
       2.134748             0.00682924432            0.000462816909           
       2.137389             0.00751052321            0.000506344052           
       2.140029             0.00732002042            0.000447524117           
       2.142670             0.00693999261            0.000465697995           
       2.145310             0.00740269711            0.000468138728           
       2.147950             0.00701479069            0.000469048027           
       2.150591             0.00803597226             0.00049695588           
       2.153231             0.00854468419            0.000527481688           
       2.155871             0.00802016729            0.000493694305           
       2.158512             0.00811743864            0.000518249451           
       2.161152             0.00767027133            0.000487985755           
       2.163793             0.00756972532            0.000482594401           
       2.166433             0.00803205548            0.000510483207           
       2.169073             0.00804878981            0.000499637788           
       2.171714             0.00690198838            0.000459217408           
       2.174354             0.00824264362            0.000524375499           
       2.176995             0.00745055812            0.000496446292           
       2.179635             0.00770514705            0.000533489997           
       2.182275              0.0073651586            0.000492461015           
       2.184916             0.00756186254            0.000481963249           
       2.187556             0.00728796504            0.000468411819           
       2.190196             0.00779277607            0.000506152627           
       2.192837             0.00663629656            0.000464546209           
       2.195477             0.00661889812             0.00044230869           
       2.198118             0.00671064224            0.000456775336           
       2.200758              0.0073919675            0.000491838243           
       2.203398             0.00739523301            0.000495094027           
       2.206039             0.00750993498            0.000472184379           
       2.208679             0.00680252674            0.000459854116           
       2.211319             0.00741619002            0.000482916806           
       2.213960             0.00740251364            0.000488935631           
       2.216600             0.00711945627            0.000496028495           
       2.219241             0.00759033058            0.000489495472           
       2.221881             0.00748365556            0.000487042934           
       2.224521             0.00744093548            0.000491601905           
       2.227162              0.0072065211            0.000474109652           
       2.229802             0.00699281289            0.000481646724           
       2.232443              0.0087395061            0.000529957958           
       2.235083             0.00688651901            0.000484309565           
       2.237723               0.007595408            0.000488100681           
       2.240364             0.00629041464            0.000455137898           
       2.243004             0.00673879366            0.000467319359           
       2.245644             0.00798935574            0.000513930038           
       2.248285             0.00705783437            0.000473364105           
       2.250925             0.00697438837              0.0004734159           
       2.253566             0.00745017074            0.000523096354           
       2.256206             0.00702580097            0.000497822775           
       2.258846             0.00683397566            0.000467057527           
       2.261487             0.00632846533            0.000471741074           
       2.264127              0.0074514151            0.000494372099           
       2.266767             0.00771049654            0.000516291633           
       2.269408             0.00705809869            0.000495989624           
       2.272048             0.00664369269            0.000478336333           
       2.274689             0.00679135568            0.000489995255           
       2.277329             0.00770730568            0.000491490332           
       2.279969             0.00714534024            0.000503729569           
       2.282610             0.00684339096            0.000479260455           
       2.285250             0.00713499006            0.000468388482           
       2.287891             0.00718237115            0.000503847831           
       2.290531             0.00748790353            0.000521368496           
       2.293171             0.00692959322            0.000488559891           
       2.295812              0.0076167632            0.000510152397           
       2.298452             0.00706732901             0.00051388234           
       2.301092             0.00749617345            0.000491732603           
       2.303733             0.00687753496            0.000490009824           
       2.306373             0.00674086973            0.000492756705           
       2.309014             0.00646359161            0.000473102995           
       2.311654             0.00856805312            0.000568423499           
       2.314294             0.00756430991              0.0004920604           
       2.316935             0.00752490796            0.000492804781           
       2.319575              0.0076248921            0.000519764394           
       2.322215             0.00753087505            0.000538332338           
       2.324856             0.00697493763            0.000476322021           
       2.327496             0.00734269759            0.000519660677           
       2.330137             0.00726980623            0.000494801991           
       2.332777             0.00769321633            0.000524840773           
       2.335417              0.0068009418            0.000478736782           
       2.338058             0.00736285835            0.000513001718           
       2.340698             0.00702918362            0.000497303707           
       2.343339             0.00786779024            0.000537711167           
       2.345979             0.00661741392            0.000466545999           
       2.348619             0.00654370584            0.000480899094           
       2.351260              0.0075359491            0.000513066132           
       2.353900              0.0068181405            0.000486473742           
       2.356540             0.00750429978             0.00050964127           
       2.359181             0.00740036489            0.000499004423           
       2.361821             0.00650197645            0.000451820227           
       2.364462             0.00819404817            0.000530483599           
       2.367102             0.00700076153            0.000503900493           
       2.369742             0.00716225354            0.000536472654           
       2.372383             0.00653290905            0.000463941607           
       2.375023             0.00739989899            0.000519057129           
       2.377663             0.00742610851            0.000497172961           
       2.380304              0.0070959309            0.000494098092           
       2.382944             0.00756004636            0.000485759464           
       2.385585             0.00689046484             0.00049459666           
       2.388225              0.0070006851            0.000496194162           
       2.390865             0.00623555444             0.00046348392           
       2.393506             0.00573350964            0.000436049364           
       2.396146             0.00724843108            0.000530116781           
       2.398787             0.00654231901            0.000464138202           
       2.401427             0.00732497131            0.000474040532           
       2.404067             0.00667955784            0.000462772036           
       2.406708             0.00714315527            0.000472823355           
       2.409348             0.00669140616            0.000485403997           
       2.411988             0.00723793155            0.000494629391           
       2.414629               0.007048961            0.000503331938           
       2.417269             0.00712581447            0.000511976851           
       2.419910             0.00735727279            0.000521432494           
       2.422550             0.00703408814            0.000487794325           
       2.425190             0.00699834479            0.000512878088           
       2.427831              0.0068880692            0.000505960973           
       2.430471             0.00706052631            0.000488022511           
       2.433112             0.00642095456            0.000453183172           
       2.435752             0.00745745037            0.000516871955           
       2.438392             0.00706120137            0.000485452062           
       2.441033             0.00738647706            0.000526198047           
       2.443673              0.0073287868            0.000524542096           
       2.446313             0.00664145448            0.000499779743           
       2.448954             0.00664120402            0.000475851205           
       2.451594             0.00649638071            0.000506041755           
       2.454235             0.00756314836            0.000512298357           
       2.456875             0.00736663697            0.000529037867           
       2.459515             0.00706881686            0.000531649195           
       2.462156             0.00719712632            0.000506485971           
       2.464796             0.00816620862            0.000532547706           
       2.467436             0.00718877512             0.00051670849           
       2.470077             0.00762993176            0.000504549354           
       2.472717             0.00662091556            0.000472040825           
       2.475358             0.00779438303            0.000517507179           
       2.477998             0.00799851904            0.000515402232           
       2.480638             0.00755945275            0.000509959787           
       2.483279             0.00713524108            0.000517818563           
       2.485919             0.00774129806            0.000519798411           
       2.488560             0.00709942913            0.000496391781           
       2.491200             0.00725952131            0.000516883465           
       2.493840             0.00630090539            0.000509541482           
       2.496481             0.00660719824            0.000513243999           
       2.499121             0.00784809638            0.000544074411           
       2.501761             0.00681335353            0.000513656749           
       2.504402             0.00710220652            0.000516770079           
       2.507042             0.00689116492            0.000505263396           
       2.509683             0.00691789142            0.000498505094           
       2.512323             0.00653807537            0.000508978849           
       2.514963             0.00744509484            0.000536427451           
       2.517604             0.00862002254            0.000598938947           
       2.520244             0.00801412247            0.000541412732           
       2.522884             0.00816365716            0.000554255085           
       2.525525             0.00935448714            0.000600038148           
       2.528165              0.0086231346            0.000567124603           
       2.530806             0.00884763858            0.000584472703           
       2.533446              0.0117852181            0.000660160102           
       2.536086              0.0081034094            0.000542512502           
       2.538727             0.00709256627            0.000486915652           
       2.541367             0.00653625612            0.000472034388           
       2.544008             0.00672049591            0.000494319167           
       2.546648             0.00736700838            0.000526427445           
       2.549288               0.007008008            0.000523902414           
       2.551929             0.00784576037            0.000545496708           
       2.554569             0.00784987381             0.00052567817           
       2.557209             0.00684336785            0.000495329059           
       2.559850             0.00684766125             0.00049707552           
       2.562490             0.00709653405            0.000523006915           
       2.565131             0.00746138376            0.000556042291           
       2.567771             0.00719928182            0.000526607927           
       2.570411             0.00712458776            0.000518200778           
       2.573052              0.0067197234             0.00050959959           
       2.575692             0.00717749396            0.000523482207           
       2.578332             0.00758702163            0.000540434897           
       2.580973              0.0062775295            0.000486911634           
       2.583613             0.00725455883            0.000510969774           
       2.586254             0.00703233253            0.000502383562           
       2.588894              0.0073490023            0.000533318259           
       2.591534             0.00758885058            0.000561021291           
       2.594175             0.00734830458            0.000541640625           
       2.596815             0.00719561596            0.000539144069           
       2.599456             0.00668569302            0.000492819272           
       2.602096             0.00736920788            0.000521335715           
       2.604736             0.00714788329             0.00052562217           
       2.607377             0.00765709585            0.000529685886           
       2.610017             0.00565228131            0.000447127067           
       2.612657             0.00599551107            0.000489814059           
       2.615298             0.00755765151            0.000536909826           
       2.617938             0.00637409259            0.000527469246           
       2.620579              0.0081688758            0.000573239037           
       2.623219             0.00645357272            0.000508786054           
       2.625859             0.00717132356            0.000521466394           
       2.628500             0.00684639912            0.000506176262           
       2.631140             0.00706362946            0.000522065903           
       2.633780             0.00693576613            0.000516869482           
       2.636421             0.00732104083            0.000544090331           
       2.639061             0.00780303947            0.000528790686           
       2.641702             0.00573068891             0.00046365493           
       2.644342             0.00711103497            0.000518685919           
       2.646982             0.00686241208            0.000501920374           
       2.649623             0.00643724972            0.000509437898           
       2.652263             0.00737984449            0.000539988528           
       2.654904             0.00808727158            0.000565846504           
       2.657544             0.00778786187            0.000523009795           
       2.660184             0.00701010151            0.000525131464           
       2.662825             0.00715942301            0.000543006916           
       2.665465             0.00670604851            0.000508276623           
       2.668105             0.00672599114            0.000536539058           
       2.670746             0.00741298075            0.000520344971           
       2.673386              0.0122053419            0.000688100195           
       2.676027              0.0122181561            0.000677411999           
       2.678667             0.00920608082            0.000573754374           
       2.681307              0.0112749929            0.000623884873           
       2.683948              0.0136565108            0.000705469808           
       2.686588              0.0107639229            0.000615929906           
       2.689229             0.00966913329            0.000570433283           
       2.691869             0.00937584237            0.000593677188           
       2.694509             0.00982325648            0.000608011129           
       2.697150             0.00680924022            0.000497999993           
       2.699790              0.0076382512            0.000552950053           
       2.702430             0.00742995002            0.000521296923           
       2.705071             0.00713506934            0.000527864532           
       2.707711             0.00663033891            0.000493878728           
       2.710352             0.00685540591            0.000530627791           
       2.712992             0.00556782019            0.000487049144           
       2.715632             0.00727254658            0.000516450329           
       2.718273             0.00677069278            0.000516433931           
       2.720913             0.00621301783            0.000493301055           
       2.723553             0.00646954459            0.000506759351           
       2.726194             0.00755066524            0.000572282914           
       2.728834             0.00707466617            0.000554210638           
       2.731475             0.00775111705            0.000535382869           
       2.734115               0.006824008            0.000517935496           
       2.736755             0.00722992387            0.000537505281           
       2.739396             0.00629404119            0.000498605553           
       2.742036             0.00690926137            0.000546731016           
       2.744677             0.00732941751            0.000546371165           
       2.747317             0.00686022531            0.000524824738           
       2.749957             0.00711703989            0.000538309405           
       2.752598              0.0069855583            0.000539101624           
       2.755238             0.00693507235            0.000546846767           
       2.757878             0.00741185741            0.000560389308           
       2.760519             0.00741712259            0.000554644267           
       2.763159             0.00849220728             0.00058755057           
       2.765800             0.00732197286            0.000519917947           
       2.768440             0.00781025645            0.000540930002           
       2.771080             0.00833811604            0.000563575941           
       2.773721             0.00600675597            0.000490681364           
       2.776361             0.00766144895            0.000561804993           
       2.779001             0.00691142664            0.000552594536           
       2.781642             0.00709480854            0.000555751554           
       2.784282             0.00781474076             0.00059285852           
       2.786923             0.00677268739            0.000556777181           
       2.789563             0.00775522549            0.000573822245           
       2.792203             0.00774042036            0.000547640618           
       2.794844             0.00632353759            0.000542497214           
       2.797484             0.00807191542            0.000578449564           
       2.800125             0.00710098052            0.000570487036           
       2.802765             0.00786887093            0.000590209892           
       2.805405             0.00685362154            0.000552685115           
       2.808046             0.00640769935            0.000543797406           
       2.810686             0.00646150741            0.000501780227           
       2.813326             0.00672985153            0.000531923937           
       2.815967             0.00728988983            0.000569355119           
       2.818607             0.00695519042            0.000530701622           
       2.821248             0.00677981586            0.000513090036           
       2.823888              0.0074045473            0.000556598261           
       2.826528             0.00712538044            0.000528778862           
       2.829169             0.00713464668            0.000554226242           
       2.831809             0.00658703338            0.000539775685           
       2.834449             0.00554813681             0.00049851467           
       2.837090             0.00764728425             0.00056528023           
       2.839730             0.00711733742            0.000542679415           
       2.842371             0.00681141349            0.000531654551           
       2.845011             0.00648495008            0.000522892321           
       2.847651              0.0071544161            0.000549894145           
       2.850292             0.00728144806             0.00056019899           
       2.852932             0.00660517169            0.000545178309           
       2.855573             0.00723120182            0.000553332414           
       2.858213             0.00755841886            0.000594067518           
       2.860853             0.00702264099            0.000532673119           
       2.863494             0.00548619824            0.000487458758           
       2.866134             0.00696252884            0.000570766317           
       2.868774             0.00736845494            0.000577066677           
       2.871415             0.00619381845            0.000537315835           
       2.874055             0.00643287734            0.000523424973           
       2.876696              0.0070089221            0.000561136364           
       2.879336             0.00719953197            0.000548132229           
       2.881976             0.00732429684            0.000570238296           
       2.884617             0.00666543494            0.000535996658           
       2.887257             0.00709854565            0.000555991814           
       2.889897             0.00755878478            0.000561924837           
       2.892538             0.00690665761            0.000588437077           
       2.895178             0.00643211155            0.000513025528           
       2.897819             0.00658649323            0.000529578293           
       2.900459             0.00711964573            0.000539884161           
       2.903099             0.00705155691            0.000531796528           
       2.905740             0.00611424624            0.000508004688           
       2.908380             0.00682083066            0.000542652315           
       2.911021             0.00663803006            0.000544034919           
       2.913661             0.00778599345            0.000589025442           
       2.916301             0.00696695755             0.00055771533           
       2.918942             0.00665601709            0.000521428007           
       2.921582             0.00670677031            0.000547639974           
       2.924222             0.00654984927            0.000524314233           
       2.926863             0.00600859364            0.000523082045           
       2.929503             0.00801355659            0.000611239038           
       2.932144             0.00622323855            0.000517071046           
       2.934784             0.00735642486            0.000552961866           
       2.937424              0.0066267891            0.000530211861           
       2.940065             0.00656917873            0.000503568742           
       2.942705             0.00720593176            0.000526748243           
       2.945346             0.00725046667            0.000560737972           
       2.947986             0.00685815486            0.000556075077           
       2.950626             0.00700323991            0.000558762365           
       2.953267             0.00677325633            0.000540632384           
       2.955907             0.00677602443            0.000560946388           
       2.958547             0.00748885624            0.000556720505           
       2.961188             0.00793005408             0.00059767914           
       2.963828             0.00723773212            0.000558537341           
       2.966469             0.00776260497            0.000567442915           
       2.969109             0.00695260973            0.000544979157           
       2.971749             0.00747336217            0.000561495419           
       2.974390             0.00668509057            0.000521861541           
       2.977030             0.00762610174            0.000569838499           
       2.979670             0.00869793097            0.000591948679           
       2.982311             0.00817920075            0.000594948993           
       2.984951             0.00736601952            0.000536984098           
       2.987592             0.00713945355            0.000539249898           
       2.990232             0.00780369823            0.000586322634           
       2.992872             0.00690930532             0.00051967098           
       2.995513              0.0084168322            0.000561139192           
       2.998153              0.0105539705            0.000638910884           
       3.000794              0.0112275278            0.000638293039           
       3.003434              0.0112076206            0.000638689806           
       3.006074              0.0431197556             0.00123521148           
       3.008715               0.116095846             0.00195650034           
       3.011355                0.18908088             0.00240778627           
       3.013995              0.0974764961             0.00173350095           
       3.016636              0.0642609768             0.00137827403           
       3.019276               0.128435802             0.00191535593           
       3.021917               0.483012227             0.00357154966           
       3.024557                1.59792211             0.00638683082           
       3.027197                1.16368216             0.00531380931           
       3.029838               0.524464265             0.00361795972           
       3.032478               0.264426856             0.00257157926           
       3.035118              0.0705855851             0.00134645837           
       3.037759               0.095996109             0.00156819852           
       3.040399               0.132637078             0.00190145675           
       3.043040                0.53446283             0.00386370249           
       3.045680               0.391662063             0.00311189428           
       3.048320              0.0893708714             0.00151884775           
       3.050961               0.107566848             0.00169566947           
       3.053601              0.0905207659             0.00149815604           
       3.056242              0.0671415552             0.00137182494           
       3.058882               0.063889207              0.0014354771           
       3.061522              0.0468854559             0.00120648901           
       3.064163              0.0595722397             0.00134283524           
       3.066803               0.124770313             0.00204595441           
       3.069443               0.112704445             0.00203445869           
       3.072084              0.0402802983             0.00118430789           
       3.074724              0.0416790345             0.00134536922           
       3.077365              0.0724489791             0.00183616786           
       3.080005              0.0129774656            0.000781529126           
       3.082645              0.0122178176            0.000796622852           
       3.085286              0.0145543744             0.00087632601           
       3.087926              0.0111814683            0.000762181154           
       3.090566              0.0102564384            0.000715233111           
       3.093207              0.0105301382            0.000754139406           
       3.095847             0.00906145711            0.000670530888           
       3.098488             0.00896762294            0.000739644369           
       3.101128             0.00863576228            0.000730497385           
       3.103768             0.00934093741            0.000745444134           
       3.106409             0.00930126718            0.000791666627           
       3.109049             0.00867788913            0.000733823153           
       3.111690             0.00766595972            0.000677871569           
       3.114330             0.00667083655            0.000645797377           
       3.116970             0.00761074975            0.000695090336           
       3.119611               0.013094282            0.000970481206           
       3.122251              0.0200289036             0.00125551092           
       3.124891              0.0384385626             0.00175550504           
       3.127532              0.0229308368             0.00132646734           
       3.130172               0.013990063             0.00105399049           
       3.132813             0.00865691301            0.000816223113           
       3.135453             0.00656054643            0.000704701484           
       3.138093             0.00478755128            0.000652281402           
       3.140734             0.00885460395            0.000818399705           
       3.143374               0.006583418            0.000746285397           
       3.146014             0.00694248284            0.000825028719           
       3.148655              0.0078694512            0.000816538259           
       3.151295             0.00557987835            0.000732712908           
       3.153936             0.00690839255            0.000787541682           
       3.156576             0.00479609373            0.000647263389           
       3.159216             0.00617757204            0.000738266156           
       3.161857             0.00540666382            0.000687856181           
       3.164497             0.00753069429             0.00085297068           
       3.167138             0.00976543097             0.00100361055           
       3.169778             0.00527255257            0.000725284112           
       3.172418              0.0042023748            0.000640921733           
       3.175059             0.00614228426            0.000686945116           
       3.177699             0.00671086084            0.000760356656           
       3.180339             0.00622376127            0.000784540637           
       3.182980             0.00589844255            0.000789651593           
       3.185620             0.00713018588            0.000884182669           
       3.188261             0.00715545787            0.000901554724           
       3.190901             0.00566483549             0.00073776463           
       3.193541             0.00647201467            0.000828603902           
       3.196182             0.00564288194            0.000806315881           
       3.198822             0.00667320799            0.000877137346           
       3.201463             0.00577488228            0.000801907641           
       3.204103             0.00647531856            0.000843981609           
       3.206743             0.00581874207            0.000799974607           
       3.209384             0.00485360378            0.000789376621           
       3.212024             0.00568656245            0.000796597688           
       3.214664               0.006185418              0.0009447427           
       3.217305             0.00649386722             0.00092016222           
       3.219945             0.00550878693            0.000872298211           
       3.222586             0.00526046473            0.000811907325           
       3.225226             0.00601199674            0.000962875423           
       3.227866             0.00554036915            0.000844834238           
       3.230507             0.00636284463            0.000938518584           
       3.233147              0.0066367666            0.000966247253           
       3.235787             0.00438614064            0.000803870517           
       3.238428             0.00444871571            0.000873644058           
       3.241068             0.00689271898             0.00101682725           
       3.243709             0.00560515844            0.000947355444           
       3.246349             0.00718964634            0.000978078846           
       3.248989             0.00741871161             0.00117314677           
       3.251630              0.0051539506            0.000941612499           
       3.254270             0.00605051528            0.000911809352           
       3.256911             0.00506784767            0.000910518054           
       3.259551             0.00531058068             0.00100345478           
       3.262191             0.00590601869              0.0010809145           
       3.264832             0.00690521802              0.0012211996           
       3.267472             0.00492139155            0.000967151556           
       3.270112             0.00273563656            0.000796878547           
       3.272753             0.00858419972             0.00129207471           
       3.275393             0.00524491486             0.00103051761           
       3.278034             0.00464404626            0.000970239396           
       3.280674             0.00524099598             0.00111846619           
       3.283314             0.00572859715             0.00104580257           
       3.285955             0.00632651696             0.00113395334           
       3.288595              0.0062799746              0.0012569165           
       3.291235             0.00610647484             0.00127412569           
       3.293876               0.006559071             0.00133947469           
       3.296516              0.0050547602             0.00112887279           
       3.299157             0.00763358031             0.00136983204           
       3.301797             0.00863403301             0.00166178827           
       3.304437             0.00574599943             0.00117452024           
       3.307078             0.00668513024             0.00139553728           
       3.309718             0.00496482663             0.00124134886           
       3.312359             0.00434881676             0.00116206525           
       3.314999             0.00690608418             0.00144182555           
       3.317639             0.00386662828             0.00103179203           
       3.320280             0.00714139562             0.00149085386           
       3.322920             0.00676865442             0.00147585423           
       3.325560             0.00415327755              0.0011568651           
       3.328201             0.00680563431             0.00133371609           
       3.330841             0.00694502609             0.00163975481           
       3.333482             0.00797407287             0.00166080779           
       3.336122             0.00482130042             0.00129199538           
       3.338762             0.00509070548             0.00153358575           
       3.341403             0.00633692441             0.00163496033           
       3.344043             0.00463048068              0.0013418054           
       3.346683             0.00522882188             0.00145569197           
       3.349324             0.00719894969             0.00192041705           
       3.351964             0.00571825742              0.0018099138           
       3.354605              0.0074919157             0.00236928167           
       3.357245             0.00538973615             0.00181284955           
       3.359885             0.00509931025             0.00141129987           
       3.362526             0.00363747325             0.00149060207           
       3.365166             0.00539664895             0.00171247694           
       3.367807              0.0124992899              0.0033353877           
       3.370447             0.00552180356             0.00183894082           
       3.373087             0.00488657761             0.00184993697           
       3.375728             0.00625289043             0.00236175134           
       3.378368             0.00386915346             0.00275722138           
       3.381008             0.00541530779             0.00243194287           
       3.383649             0.00415930278              0.0017097654           
       3.386289             0.00390119282             0.00195977181           
       3.388930             0.00497710427             0.00350137383           
       3.391570             0.00496694614             0.00247432832           
       3.394210           -2.63658369e-05                         0           
       3.396851             0.00486952259             0.00346816345           
       3.399491             0.00478376929             0.00343845677           
       3.402131             0.00972461525             0.00693603312           
       3.404772           -2.64420952e-05                         0           
       3.407412                       nan                       nan           
       3.410053             0.00926251063             0.00958723251           
       3.412693                       nan                       nan           
       3.415333           -2.65578771e-05                         0           
