################################################################################
# EDF_DataBlockID                     0.Image.Psd
# EDF_BinarySize                      2105344
# EDF_HeaderSize                      2560
# ByteOrder                           LowByteFirst
# DataType                            FloatValue
# Dim_1                               512
# Dim_2                               1028
# Image                               0
# HeaderID                            EH:000000:000000:000000
# Size                                2105344
# Center_1                            304.9000
# Center_2                            588.7000
# Comment                             Xenocs_Cell_Window - 20251028_20perc_iodine_1.23mg
# DDummy                              0.6
# Date                                2025-11-03T06:29:59
# Delta                               21.910000
# Dummy                               -1.5
# ExposureTime                        360
# Gamma                               15.360000
# Intensity1                          8.83068e-10
# PSize_1                             7.5e-05
# PSize_2                             7.5e-05
# Pressure                            0.0329561
# SampleDistance                      0.115750
# SampleEnvKind                       large
# SampleEnvPN                         ElectroChemical cell
# SampleEnvSN                         1141
# Thickness                           0
# Wavelength                          1.541891e-10
# Wavelength                          1.54189e-10
# aux                                 0
# aux_dial                            0.002375
# beamx                               588.434
# beamx_dial                          588.434
# beamz                               657.808
# beamz_dial                          657.808
# det0x                               0
# det0x_dial                          6.36945
# det0xvd                             0
# det0xvd_dial                        0
# det0y                               450.002
# det0y_dial                          481.635
# det0z                               0
# det0z_dial                          1.23302
# det0zvd                             0
# det0zvd_dial                        0
# mag                                 1.818
# mag_dial                            1.818
# om                                  0.2499
# om_dial                             -0.610199
# phi                                 -0.0120535
# phi_dial                            0
# ry                                  0.599993
# ry_dial                             0.599993
# s1bot                               0.8
# s1bot_dial                          -1.66094
# s1hl                                0.8
# s1hl_dial                           -0.608437
# s1hr                                0.8
# s1hr_dial                           0.970938
# s1top                               0.8
# s1top_dial                          -0.461562
# s2bot                               0.45
# s2bot_dial                          1.36109
# s2hl                                0.45
# s2hl_dial                           -0.83375
# s2hr                                0.45
# s2hr_dial                           -0.118594
# s2top                               0.45
# s2top_dial                          1.44734
# w2theta                             32
# w2theta_dial                        32
# waxsch                              19.2605
# waxsch_dial                         -32.7355
# waxsh                               137.085
# waxsh_dial                          -43.5338
# waxsth                              26.0607
# waxsth_dial                         -19.4086
# waxsz                               67.0407
# waxsz_dial                          -23.7954
# wind                                65.9854
# wind_dial                           66.0041
# wpsi                                124
# wpsi_dial                           124
# wstod                               115
# wstod_dial                          115
# x                                   0
# x_dial                              1.00969
# z                                   0
# z_dial                              13.3172
# CountCutoff                         6807993
# DetectorModel                       Dectris EIGER2 Si 500K, S/N E-01-0554
# ThresholdSetting                    4023.88989258
# Saturation                          0
# FlatField                           Corrected
# BackgroundReductionExtra            0.02
# BackgroundCorrectionConstant        0.0026712
# Detector                            0
# Monitor                             0
# Pil_Roi0                            0
# SumForIntensity1                    3.17905e+08
# TransmittedFlux                     883068
# det                                 0
# mon                                 0
# pilai0                              3.17905e+08
# pilai1                              796915
# pilct0                              5.49672e+08
# pilct1                              796915
# pilroi0                             0
# pilroi1                             0
# sec                                 1
# title                               20251028_20perc_iodine_1.23mg_1_01237.edf
# usaxs0                              0
# Operation                           Azimuthal average I(q)
# Error_model                         ErrorModel.poisson
# Geometrical_correction              True
# Transmission_correction             True
# Thickness_correction                False
# Binning mode                        Uniform
# Binning factor                      1.0
# Psi                                 0.0
# Omega                               0.2499
# MaskInvalidPixels                   True
# DetectorEdge                        3
# MaskFiles                           ['WAXS_corrected.edf']
################################################################################
    q(A⁻¹)                Intensity(a.u.)            Sigma_I(a.u.)            
       0.693100              0.0080063745             0.00586995734           
       0.695741              0.0134555445             0.00620976766           
       0.698381           -2.29726744e-05                         0           
       0.701021             0.00853598972             0.00856478957           
       0.703662              0.0109603266             0.00560197241           
       0.706302              0.0100558065             0.00415427102           
       0.708942             0.00277944914             0.00281894624           
       0.711583             0.00854332233             0.00427963389           
       0.714223              0.0170705203             0.00698419764           
       0.716864             0.00482258742             0.00242886837           
       0.719504             0.00570308629             0.00285027492           
       0.722144             0.00608734471             0.00272704652           
       0.724785             0.00606930306             0.00217209799           
       0.727425             0.00565094392             0.00283537528           
       0.730065             0.00567907304             0.00201061998           
       0.732706             0.00643321384             0.00179702453           
       0.735346             0.00935430653             0.00282468434           
       0.737987             0.00846445215             0.00189871867           
       0.740627              0.0150873638             0.00378228595           
       0.743267             0.00893678224             0.00194975672           
       0.745908             0.00905385155             0.00212919406           
       0.748548             0.00586044517             0.00157898607           
       0.751189             0.00697181225              0.0023206111           
       0.753829             0.00715717906             0.00216135234           
       0.756469             0.00632875601             0.00163887999           
       0.759110             0.00515807837             0.00155920235           
       0.761750             0.00771318005             0.00168591591           
       0.764390             0.00723917953             0.00170950082           
       0.767031              0.0069494565             0.00145043818           
       0.769671               0.005206674             0.00156609692           
       0.772312             0.00790100412              0.0014686927           
       0.774952              0.0069814193             0.00186432391           
       0.777592             0.00868621903             0.00151468417           
       0.780233             0.00844953485             0.00180238212           
       0.782873             0.00525340644             0.00135923204           
       0.785513              0.0100667437             0.00201150623           
       0.788154             0.00980147044             0.00166037568           
       0.790794             0.00680627718             0.00165414889           
       0.793435             0.00777042309             0.00158778733           
       0.796075              0.0075167791             0.00150436097           
       0.798715             0.00460618854             0.00139161712           
       0.801356             0.00584667216              0.0013493953           
       0.803996             0.00648600908             0.00144899309           
       0.806637             0.00655589388             0.00115932637           
       0.809277             0.00770803029             0.00136063863           
       0.811917             0.00610018683             0.00113156709           
       0.814558             0.00493777266             0.00105809373           
       0.817198             0.00739163804             0.00122991184           
       0.819838             0.00607915837             0.00112885348           
       0.822479             0.00929088221             0.00163875272           
       0.825119             0.00710557963             0.00121977134           
       0.827760             0.00863782454             0.00136230295           
       0.830400             0.00677549587             0.00113557874           
       0.833040              0.0089754778             0.00136933327           
       0.835681             0.00918056844             0.00157438248           
       0.838321             0.00589640069             0.00105901637           
       0.840961             0.00854729384             0.00138921507           
       0.843602              0.0058331939              0.0010524393           
       0.846242             0.00528557194             0.00100167091           
       0.848883             0.00835462274             0.00128875174           
       0.851523             0.00620524576             0.00109687417           
       0.854163             0.00836099471             0.00135402119           
       0.856804             0.00705208935             0.00111810175           
       0.859444             0.00732410111             0.00111645194           
       0.862085             0.00906167804             0.00129431271           
       0.864725             0.00600176612             0.00107799932           
       0.867365              0.0076669313             0.00112981058           
       0.870006             0.00722789369             0.00104534251           
       0.872646             0.00648464555             0.00103829702           
       0.875286             0.00751841212             0.00107558456           
       0.877927             0.00729852813             0.00102259924           
       0.880567             0.00861945328             0.00115131975           
       0.883208             0.00632890883            0.000977258998           
       0.885848             0.00747321365             0.00110261068           
       0.888488             0.00756430001             0.00104046416           
       0.891129             0.00903557474             0.00116762351           
       0.893769             0.00605539607            0.000914786939           
       0.896410             0.00742872118            0.000944680328           
       0.899050              0.0084269115             0.00110648974           
       0.901690             0.00824932013              0.0011925209           
       0.904331             0.00732053653            0.000995942095           
       0.906971             0.00689433288             0.00102821313           
       0.909611             0.00711298661            0.000950729856           
       0.912252             0.00906127422             0.00110836279           
       0.914892             0.00744763311             0.00109807472           
       0.917533             0.00663749116            0.000980650358           
       0.920173             0.00874401353             0.00104429592           
       0.922813             0.00765942126             0.00102565659           
       0.925454              0.0079071381            0.000938391545           
       0.928094              0.0084892082             0.00103803071           
       0.930734             0.00794038162              0.0010808264           
       0.933375             0.00819704447              0.0010873601           
       0.936015             0.00699513766               0.000912286           
       0.938656             0.00753275233              0.0010155792           
       0.941296             0.00764583943            0.000927277478           
       0.943936             0.00690606145            0.000864228516           
       0.946577             0.00649440752             0.00083253484           
       0.949217             0.00874390024            0.000888341219           
       0.951858             0.00543080737            0.000732863859           
       0.954498             0.00954858262             0.00112479903           
       0.957138             0.00824438079            0.000990149975           
       0.959779             0.00635434947            0.000856927113           
       0.962419             0.00888671636             0.00100665478           
       0.965059             0.00606309444            0.000874509999           
       0.967700             0.00910753857             0.00109774693           
       0.970340             0.00776464193            0.000896927089           
       0.972981             0.00841374041            0.000850658203           
       0.975621             0.00858479787            0.000914106646           
       0.978261             0.00649704866            0.000755603357           
       0.980902             0.00865780434             0.00104360055           
       0.983542             0.00817614139            0.000898100917           
       0.986182             0.00895829767            0.000922962378           
       0.988823             0.00745766953            0.000817697794           
       0.991463             0.00733713761            0.000865319601           
       0.994104             0.00805267333            0.000884336151           
       0.996744             0.00697686466            0.000839603528           
       0.999384             0.00800417559            0.000804270989           
       1.002025             0.00948538429            0.000977208349           
       1.004665             0.00775470707            0.000807476335           
       1.007306             0.00715739262            0.000771784154           
       1.009946              0.0085834379            0.000861965077           
       1.012586             0.00721726059            0.000769800034           
       1.015227             0.00748794022            0.000842371714           
       1.017867             0.00797998619            0.000835753683           
       1.020507             0.00863113794            0.000841921922           
       1.023148              0.0089795896            0.000926613202           
       1.025788             0.00874315191            0.000838370985           
       1.028429             0.00776162872            0.000827562632           
       1.031069             0.00923124018             0.00084930138           
       1.033709             0.00693495647            0.000782506484           
       1.036350             0.00910696282            0.000805369733           
       1.038990             0.00804988119            0.000771101552           
       1.041630             0.00827836913            0.000815601004           
       1.044271             0.00951583327              0.0008223767           
       1.046911             0.00890006541            0.000836576898           
       1.049552             0.00808979869            0.000837966454           
       1.052192             0.00854978604            0.000786622691           
       1.054832             0.00700903263            0.000718705121           
       1.057473             0.00883836626            0.000795594199           
       1.060113             0.00939850117            0.000800130143           
       1.062754             0.00801801498            0.000754541282           
       1.065394                 0.0080952            0.000801575715           
       1.068034             0.00721946697            0.000688746292           
       1.070675             0.00809543243            0.000760785446           
       1.073315             0.00815947645             0.00077473676           
       1.075955             0.00963288949            0.000794693388           
       1.078596             0.00836291428            0.000786959418           
       1.081236             0.00753684162            0.000715379667           
       1.083877             0.00819147644            0.000739110744           
       1.086517             0.00918323311            0.000839149914           
       1.089157             0.00767918982            0.000796222509           
       1.091798             0.00955883551            0.000778822364           
       1.094438             0.00793877302            0.000707470984           
       1.097078             0.00876152637            0.000712833251           
       1.099719             0.00928104826            0.000793568635           
       1.102359             0.00887219544            0.000726632565           
       1.105000             0.00809657406            0.000776188946           
       1.107640             0.00931568559            0.000796078648           
       1.110280             0.00807866153            0.000676417513           
       1.112921             0.00830011951            0.000736510626           
       1.115561             0.00880652911            0.000721029604           
       1.118202             0.00898951194            0.000729168326           
       1.120842             0.00920191852            0.000775361659           
       1.123482             0.00828724373            0.000732603851           
       1.126123             0.00833111043            0.000704547152           
       1.128763              0.0083962552            0.000712145825           
       1.131403             0.00817762834            0.000677220544           
       1.134044             0.00778241986            0.000679814106           
       1.136684             0.00811130656            0.000739956334           
       1.139325             0.00825359481            0.000687599663           
       1.141965              0.0085758819            0.000705529375           
       1.144605              0.0102871689            0.000736793327           
       1.147246             0.00859553932            0.000689263778           
       1.149886             0.00889559672            0.000698701972           
       1.152527             0.00903058119            0.000714220494           
       1.155167             0.00929554268            0.000689226391           
       1.157807             0.00786846482            0.000679886607           
       1.160448                 0.0095874             0.00073286763           
       1.163088             0.00937460675            0.000691246628           
       1.165728             0.00817014584            0.000662556561           
       1.168369             0.00859435664            0.000685817538           
       1.171009             0.00983150898            0.000711861314           
       1.173650             0.00911312944            0.000703343286           
       1.176290              0.0091704916             0.00068948394           
       1.178930             0.00870877578            0.000658525841           
       1.181571             0.00833637522            0.000657068777           
       1.184211              0.0098310303            0.000716075512           
       1.186851             0.00918229906            0.000676603492           
       1.189492             0.00975012884            0.000692519646           
       1.192132             0.00855362525            0.000641359742           
       1.194773             0.00959747162            0.000682336207           
       1.197413              0.0103335215            0.000678381285           
       1.200053             0.00909316723             0.00065253555           
       1.202694              0.0100049829            0.000650892319           
       1.205334             0.00894606089             0.00066329931           
       1.207975             0.00956674737            0.000654733464           
       1.210615             0.00947532572            0.000718822838           
       1.213255             0.00896695992            0.000626183808           
       1.215896             0.00978168713            0.000665862629           
       1.218536             0.00999059146             0.00064705616           
       1.221176             0.00881306894            0.000660726109           
       1.223817              0.0100131558            0.000661116568           
       1.226457             0.00917695104             0.00064566049           
       1.229098             0.00903773279            0.000640713085           
       1.231738             0.00921820451            0.000650263253           
       1.234378             0.00910228737            0.000607166176           
       1.237019              0.0102829764             0.00066502156           
       1.239659             0.00928749821            0.000626507045           
       1.242299              0.0102463189            0.000649691824           
       1.244940             0.00966228909            0.000613593977           
       1.247580              0.0110471517            0.000676158778           
       1.250221              0.0103755186             0.00065123897           
       1.252861              0.0102911456            0.000617456657           
       1.255501             0.00995360134            0.000659353202           
       1.258142             0.00958641728            0.000608045216           
       1.260782              0.0111009594             0.00066847426           
       1.263423             0.00951881702             0.00059479621           
       1.266063             0.00994421248            0.000623122771           
       1.268703              0.0104609787            0.000633805126           
       1.271344              0.0103726759            0.000652513698           
       1.273984              0.0100666134            0.000620832368           
       1.276624              0.0111186721            0.000640210244           
       1.279265              0.0108882528            0.000644062725           
       1.281905             0.00998241692            0.000619426982           
       1.284546              0.0100564808            0.000600949372           
       1.287186              0.0101265941            0.000591646846           
       1.289826             0.00993573393            0.000617643253           
       1.292467               0.011273411            0.000643417374           
       1.295107              0.0103980653            0.000611794694           
       1.297747               0.010481193            0.000587772197           
       1.300388              0.0105309075            0.000642263695           
       1.303028              0.0107564691            0.000619675143           
       1.305669              0.0126072903            0.000686846741           
       1.308309              0.0110041634            0.000635374094           
       1.310949              0.0115628341            0.000650648547           
       1.313590              0.0102610731            0.000593770263           
       1.316230              0.0106291295            0.000644899197           
       1.318871              0.0110079038            0.000642754752           
       1.321511              0.0100923203            0.000604036514           
       1.324151              0.0109502113            0.000610532779           
       1.326792              0.0106756588            0.000606557245           
       1.329432              0.0115338868            0.000626017823           
       1.332072              0.0112906121            0.000610149937           
       1.334713              0.0108358191             0.00061692186           
       1.337353              0.0102234048            0.000574678176           
       1.339994              0.0115817975            0.000641883374           
       1.342634              0.0105571704            0.000587668042           
       1.345274              0.0120024225             0.00064847566           
       1.347915              0.0106910555            0.000595124489           
       1.350555              0.0105970677            0.000602879769           
       1.353195              0.0107380889            0.000609858622           
       1.355836              0.0116831958            0.000626211645           
       1.358476             0.00983957616            0.000558104645           
       1.361117              0.0111665091            0.000595363033           
       1.363757              0.0114511329            0.000621312281           
       1.366397             0.00992444671            0.000560910578           
       1.369038              0.0113165105            0.000604922481           
       1.371678              0.0114532359            0.000603200677           
       1.374319               0.010643894             0.00057649049           
       1.376959              0.0115279424            0.000593920296           
       1.379599              0.0116138188            0.000638869088           
       1.382240              0.0107681797            0.000578167924           
       1.384880              0.0110973453            0.000621700946           
       1.387520              0.0104968401            0.000574251075           
       1.390161               0.011518971             0.00057133804           
       1.392801              0.0117922573            0.000602298927           
       1.395442              0.0121162027            0.000618854008           
       1.398082              0.0116916926            0.000569286929           
       1.400722              0.0115163907            0.000591827613           
       1.403363              0.0109048731            0.000606205083           
       1.406003              0.0105616355            0.000558326674           
       1.408644              0.0116138757            0.000613327396           
       1.411284              0.0119058886            0.000588022539           
       1.413924              0.0111407572            0.000566705444           
       1.416565              0.0112025897            0.000566043657           
       1.419205               0.010977909            0.000584522553           
       1.421845              0.0106784255            0.000576155863           
       1.424486              0.0103348678            0.000544836373           
       1.427126              0.0108256407            0.000579262133           
       1.429767              0.0110436033             0.00055047456           
       1.432407              0.0109247432             0.00057297596           
       1.435047              0.0117090546            0.000557101141           
       1.437688              0.0105450526            0.000536590408           
       1.440328              0.0107788922            0.000553689607           
       1.442968              0.0117712967             0.00059158161           
       1.445609             0.00996338168            0.000526993981           
       1.448249              0.0108594597            0.000564112241           
       1.450890              0.0119421183            0.000587703377           
       1.453530              0.0123290667            0.000624737806           
       1.456170              0.0101823511            0.000551014158           
       1.458811              0.0100593645            0.000523699783           
       1.461451              0.0112541094            0.000555380282           
       1.464092              0.0109332487             0.00055098478           
       1.466732              0.0107005475            0.000540405624           
       1.469372              0.0116831734            0.000551458233           
       1.472013              0.0111658268            0.000581441271           
       1.474653               0.010783406            0.000562583039           
       1.477293              0.0115072381            0.000593406851           
       1.479934              0.0109992895            0.000553595803           
       1.482574               0.010717239            0.000528606824           
       1.485215              0.0109739933            0.000544863958           
       1.487855              0.0115929287            0.000567405995           
       1.490495              0.0114912617            0.000562831992           
       1.493136              0.0111656695            0.000547196491           
       1.495776              0.0111029977            0.000543174085           
       1.498416              0.0105626788            0.000547125991           
       1.501057              0.0108044627            0.000541157457           
       1.503697              0.0110129029            0.000534146752           
       1.506338              0.0111639606            0.000547625013           
       1.508978              0.0101473559            0.000516961801           
       1.511618              0.0106821898            0.000564884648           
       1.514259              0.0105251394            0.000541345786           
       1.516899              0.0115193924            0.000551425369           
       1.519540               0.010651414            0.000538794362           
       1.522180              0.0111484222            0.000556063654           
       1.524820              0.0102112561             0.00052919281           
       1.527461              0.0100307258            0.000527087984           
       1.530101              0.0107790955            0.000540932181           
       1.532741              0.0105687737            0.000532520393           
       1.535382                0.01141855             0.00056242595           
       1.538022              0.0104595414            0.000507097537           
       1.540663              0.0109207008            0.000557308652           
       1.543303              0.0112754009            0.000525806639           
       1.545943             0.00998189893            0.000523633255           
       1.548584              0.0114428619            0.000570708939           
       1.551224               0.011464754            0.000528178873           
       1.553864              0.0107613437            0.000540727197           
       1.556505               0.010109242            0.000506282627           
       1.559145              0.0104740369            0.000521649171           
       1.561786             0.00988115147            0.000507060285           
       1.564426              0.0112976157            0.000525322887           
       1.567066              0.0107547801            0.000537050839           
       1.569707              0.0105537915            0.000522452336           
       1.572347              0.0118785474            0.000572619902           
       1.574988             0.00940706837            0.000485034215           
       1.577628              0.0101068175            0.000524244719           
       1.580268             0.00986931674            0.000501933795           
       1.582909               0.010142111            0.000539332567           
       1.585549             0.00960657101            0.000509661231           
       1.588189             0.00941678946            0.000493588713           
       1.590830              0.0102035616             0.00051314991           
       1.593470             0.00914110106            0.000504931155           
       1.596111             0.00998908608            0.000515328094           
       1.598751             0.00843621891            0.000458884741           
       1.601391               0.010038246            0.000511606647           
       1.604032             0.00996223142            0.000520320544           
       1.606672             0.00946806824               0.000492843           
       1.609312              0.0098313869            0.000524248435           
       1.611953             0.00901654008            0.000491290316           
       1.614593             0.00971419831            0.000500213804           
       1.617234             0.00944156987            0.000511083608           
       1.619874             0.00869697915             0.00048857933           
       1.622514             0.00919800971            0.000495601498           
       1.625155             0.00993456244            0.000518105371           
       1.627795             0.00919468577            0.000486226522           
       1.630436              0.0100402322            0.000505438587           
       1.633076              0.0101659105            0.000515262543           
       1.635716             0.00993009882            0.000501327866           
       1.638357             0.00913566254            0.000482123512           
       1.640997             0.00966319338            0.000510868309           
       1.643637             0.00938097008            0.000489819024           
       1.646278             0.00876710608            0.000488399818           
       1.648918             0.00936138329            0.000506058229           
       1.651559             0.00822247035             0.00047795762           
       1.654199             0.00901978786            0.000486872481           
       1.656839             0.00960767265            0.000502663946           
       1.659480             0.00861288173            0.000493801832           
       1.662120             0.00919145944            0.000480447169           
       1.664761             0.00886627291            0.000490152918           
       1.667401             0.00852163587            0.000459285932           
       1.670041             0.00870667365            0.000471324291           
       1.672682             0.00923400622            0.000483392678           
       1.675322             0.00866702939            0.000465305708           
       1.677962             0.00874710497            0.000462293694           
       1.680603             0.00907814378            0.000472409594           
       1.683243              0.0086766755            0.000481849804           
       1.685884             0.00848735682            0.000480083261           
       1.688524               0.009041797            0.000485937638           
       1.691164             0.00853980236            0.000472362741           
       1.693805             0.00969846967            0.000508918469           
       1.696445             0.00888144064            0.000489835499           
       1.699085              0.0086988385            0.000468529987           
       1.701726             0.00876164669            0.000452973351           
       1.704366             0.00910354672            0.000486416541           
       1.707007             0.00869225131             0.00046470649           
       1.709647             0.00812054894            0.000454236817           
       1.712287             0.00808672962            0.000457235506           
       1.714928             0.00925703176            0.000493147531           
       1.717568             0.00906140042            0.000459612021           
       1.720209              0.0088080835            0.000474634937           
       1.722849             0.00823172983            0.000456484498           
       1.725489             0.00885040155              0.0004737252           
       1.728130             0.00904697891            0.000508997384           
       1.730770             0.00823551434            0.000461221826           
       1.733410             0.00822325151            0.000453633754           
       1.736051             0.00837087726            0.000460873225           
       1.738691             0.00876394518            0.000462010291           
       1.741332             0.00906084344            0.000483507338           
       1.743972             0.00858467515            0.000486006608           
       1.746612             0.00814598886            0.000454609695           
       1.749253             0.00849577631            0.000473436077           
       1.751893             0.00860772409            0.000473047147           
       1.754533             0.00808931326            0.000458152769           
       1.757174             0.00852582446            0.000465947059           
       1.759814             0.00826487679            0.000451807159           
       1.762455             0.00759888836            0.000441176308           
       1.765095             0.00800906302            0.000433279538           
       1.767735             0.00804915643            0.000447762766           
       1.770376             0.00850323232            0.000461432551           
       1.773016             0.00830494839            0.000452966273           
       1.775657             0.00834725917            0.000447584511           
       1.778297             0.00893335661            0.000459044288           
       1.780937             0.00822487223            0.000464911105           
       1.783578             0.00797359396            0.000446308468           
       1.786218              0.0094362005            0.000506692685           
       1.788858             0.00878378429            0.000464301589           
       1.791499             0.00873689653            0.000457860111           
       1.794139             0.00891964669            0.000458870519           
       1.796780             0.00965504011            0.000475110486           
       1.799420             0.00824692811            0.000436668615           
       1.802060             0.00876293477            0.000453758213           
       1.804701             0.00863487788            0.000432253623           
       1.807341             0.00910505529            0.000466406575           
       1.809981             0.00861512628            0.000455197367           
       1.812622             0.00941870896            0.000467384881           
       1.815262             0.00917100813            0.000470995011           
       1.817903             0.00890743903            0.000457299958           
       1.820543             0.00863329651            0.000457223101           
       1.823183             0.00819259625            0.000445155552           
       1.825824             0.00927760908            0.000452570119           
       1.828464             0.00882481364            0.000460166169           
       1.831105              0.0080914103            0.000428447487           
       1.833745             0.00804508621            0.000436343384           
       1.836385             0.00827234997            0.000455090766           
       1.839026             0.00796434723            0.000445127436           
       1.841666             0.00834571397            0.000454044379           
       1.844306             0.00888141968            0.000455609894           
       1.846947             0.00783647095            0.000431720366           
       1.849587             0.00791435295            0.000479087021           
       1.852228             0.00792898245            0.000433613598           
       1.854868             0.00788572225             0.00045679738           
       1.857508             0.00828774451            0.000463703637           
       1.860149             0.00739833561            0.000446076173           
       1.862789               0.008890947            0.000472005873           
       1.865429             0.00860146073            0.000484614433           
       1.868070             0.00884759853            0.000484948521           
       1.870710             0.00879016564            0.000472228032           
       1.873351             0.00830686169             0.00046473746           
       1.875991             0.00788182901            0.000460079896           
       1.878631             0.00742964752            0.000438132506           
       1.881272             0.00802305469            0.000452242694           
       1.883912             0.00783043457            0.000464968987           
       1.886553             0.00783584392            0.000459929407           
       1.889193             0.00750037189            0.000449207492           
       1.891833             0.00887035727            0.000507339828           
       1.894474              0.0076927651              0.0004683503           
       1.897114             0.00778447502            0.000455906312           
       1.899754              0.0076687254            0.000454397429           
       1.902395             0.00781078927            0.000449621068           
       1.905035             0.00803091595             0.00048288801           
       1.907676             0.00812201989            0.000457697586           
       1.910316             0.00757525278            0.000453759772           
       1.912956             0.00810722554             0.00045909478           
       1.915597             0.00689695139             0.00042580942           
       1.918237             0.00742464712            0.000456270724           
       1.920878             0.00782812525            0.000466586406           
       1.923518             0.00882835355            0.000495709551           
       1.926158             0.00813025371            0.000469533927           
       1.928799             0.00823544174            0.000467091515           
       1.931439             0.00878344034            0.000495034117           
       1.934079             0.00793318938            0.000490447503           
       1.936720             0.00794247322            0.000454679671           
       1.939360             0.00863536009            0.000505796175           
       1.942001             0.00795593221            0.000444977036           
       1.944641             0.00816276079             0.00045960216           
       1.947281             0.00777149271            0.000444318173           
       1.949922             0.00659553479            0.000422795147           
       1.952562              0.0079858762            0.000479811333           
       1.955202             0.00775152975            0.000472142626           
       1.957843             0.00760523022            0.000455537957           
       1.960483             0.00792144355            0.000486064644           
       1.963124             0.00765738451            0.000468090359           
       1.965764             0.00757533312            0.000439050959           
       1.968404             0.00735207796            0.000428446129           
       1.971045             0.00756883604            0.000443215917           
       1.973685             0.00826926596            0.000485935762           
       1.976326             0.00730089661            0.000450322097           
       1.978966             0.00681021144            0.000438742932           
       1.981606              0.0073532329            0.000465407449           
       1.984247             0.00785170047            0.000477761697           
       1.986887             0.00886253245            0.000501504268           
       1.989527             0.00735592683            0.000451972451           
       1.992168             0.00736644178            0.000469294781           
       1.994808             0.00717053849            0.000461027775           
       1.997449             0.00687071082            0.000442018334           
       2.000089             0.00787804527            0.000471436743           
       2.002729             0.00813061402             0.00047922135           
       2.005370             0.00735031775            0.000450743369           
       2.008010             0.00767264793            0.000480619106           
       2.010650             0.00671421678            0.000452954604           
       2.013291             0.00810536611            0.000477488859           
       2.015931             0.00725526244            0.000448562129           
       2.018572             0.00748106651            0.000487188454           
       2.021212             0.00684283636            0.000457572072           
       2.023852             0.00656796031            0.000424283063           
       2.026493             0.00654503627            0.000442464954           
       2.029133              0.0073733262            0.000460177816           
       2.031774             0.00784741132            0.000498230614           
       2.034414             0.00772739702            0.000454922287           
       2.037054              0.0082162184            0.000480980349           
       2.039695             0.00738063517            0.000452424098           
       2.042335             0.00780694119             0.00048355582           
       2.044975             0.00692449123            0.000449884568           
       2.047616             0.00715368799            0.000456133534           
       2.050256             0.00805404967            0.000488567758           
       2.052897             0.00838230275            0.000507613175           
       2.055537             0.00798613254            0.000478855243           
       2.058177             0.00767623011            0.000459739985           
       2.060818             0.00778035308            0.000484868623           
       2.063458             0.00776700013            0.000504847491           
       2.066098             0.00720159917            0.000458578786           
       2.068739              0.0074363339            0.000473235883           
       2.071379             0.00731590553            0.000481630109           
       2.074020             0.00825633805            0.000500530813           
       2.076660              0.0075471076            0.000482418615           
       2.079300             0.00774984976            0.000500833352           
       2.081941             0.00754602529            0.000452499512           
       2.084581              0.0080413841            0.000493045097           
       2.087222             0.00727948862            0.000452408619           
       2.089862             0.00666851899            0.000471610926           
       2.092502             0.00749070327            0.000484522911           
       2.095143             0.00788700741            0.000513407384           
       2.097783             0.00748307214            0.000484168822           
       2.100423              0.0067836305            0.000444202658           
       2.103064             0.00770665951            0.000491278209           
       2.105704             0.00814536729             0.00050256615           
       2.108345             0.00793718698            0.000476621612           
       2.110985             0.00754174109            0.000496223026           
       2.113625             0.00691337755            0.000479247273           
       2.116266             0.00762829566            0.000510559763           
       2.118906             0.00753773095            0.000472980186           
       2.121546             0.00736065145            0.000458467503           
       2.124187             0.00660176687            0.000455766145           
       2.126827             0.00756222582            0.000493238526           
       2.129468             0.00701652561            0.000476322555           
       2.132108             0.00792238644            0.000492432801           
       2.134748             0.00848879146            0.000507754346           
       2.137389             0.00727145597            0.000490263013           
       2.140029             0.00762242532            0.000449381006           
       2.142670             0.00780324236            0.000485926111           
       2.145310             0.00755025407             0.00046523051           
       2.147950             0.00765301981            0.000482096744           
       2.150591             0.00798296278            0.000487403334           
       2.153231             0.00659146419            0.000455887991           
       2.155871             0.00694363113            0.000452030302           
       2.158512             0.00803738951            0.000507451658           
       2.161152             0.00811626342            0.000493955326           
       2.163793             0.00702998376              0.0004576434           
       2.166433             0.00858344909            0.000519286285           
       2.169073              0.0070710177            0.000460827906           
       2.171714             0.00766617733            0.000476242868           
       2.174354              0.0070631771            0.000477657941           
       2.176995             0.00784634312            0.000501324975           
       2.179635             0.00744916463            0.000516175545           
       2.182275             0.00597041517            0.000436305708           
       2.184916             0.00813037891            0.000491770815           
       2.187556             0.00688235569            0.000447920651           
       2.190196             0.00776404535            0.000497149781           
       2.192837             0.00734209753            0.000480821552           
       2.195477              0.0078457964            0.000473869727           
       2.198118              0.0062669711             0.00043436745           
       2.200758             0.00678260433             0.00046360524           
       2.203398             0.00699464877             0.00047380816           
       2.206039             0.00626861355            0.000424509193           
       2.208679             0.00758524137             0.00047783447           
       2.211319             0.00748795721            0.000477497824           
       2.213960             0.00744479479            0.000482498835           
       2.216600             0.00652624327            0.000467328929           
       2.219241             0.00716148151            0.000467872582           
       2.221881             0.00675335238            0.000455279276           
       2.224521             0.00722999799            0.000476844415           
       2.227162             0.00728344998            0.000469021079           
       2.229802             0.00711004677            0.000477910652           
       2.232443             0.00712493815            0.000470864932           
       2.235083             0.00743035312            0.000495034791           
       2.237723             0.00711262434            0.000464789833           
       2.240364             0.00715169782            0.000477546608           
       2.243004             0.00602530578            0.000434830564           
       2.245644             0.00764087961            0.000494569836           
       2.248285             0.00720105659            0.000470506391           
       2.250925              0.0078204977            0.000493304181           
       2.253566             0.00590000858            0.000458070924           
       2.256206             0.00769597338             0.00051270369           
       2.258846              0.0063092577             0.00044160158           
       2.261487             0.00768701636            0.000511612582           
       2.264127             0.00757420578            0.000490468305           
       2.266767             0.00716604887            0.000489780647           
       2.269408             0.00717090404             0.00049195288           
       2.272048             0.00697463322            0.000482277625           
       2.274689              0.0069208343            0.000486744089           
       2.277329             0.00725151077            0.000469121956           
       2.279969             0.00730364932            0.000501145424           
       2.282610                0.00786887            0.000505708123           
       2.285250             0.00715460474            0.000461540874           
       2.287891             0.00768040875            0.000512702532           
       2.290531             0.00791903544            0.000527604672           
       2.293171             0.00801830662            0.000517145909           
       2.295812             0.00708173294            0.000484052315           
       2.298452             0.00636648378            0.000479947442           
       2.301092             0.00691821083            0.000464851152           
       2.303733             0.00584713821            0.000444598392           
       2.306373             0.00684600823            0.000488653606           
       2.309014             0.00744412231            0.000499612526           
       2.311654             0.00760323519            0.000526911873           
       2.314294             0.00767247998            0.000487651388           
       2.316935             0.00719694822            0.000474248897           
       2.319575             0.00696855502             0.00048895497           
       2.322215             0.00711471367            0.000514889797           
       2.324856             0.00706288142             0.00047166025           
       2.327496             0.00818970004            0.000540049858           
       2.330137              0.0078959656            0.000507435058           
       2.332777             0.00817228182            0.000532295856           
       2.335417             0.00689445668            0.000474318555           
       2.338058             0.00824238106            0.000534108839           
       2.340698             0.00684707846            0.000482980647           
       2.343339             0.00719302615            0.000505925201           
       2.345979             0.00658692343            0.000458035829           
       2.348619             0.00674023029            0.000480271998           
       2.351260             0.00672754563            0.000477024318           
       2.353900             0.00699534092            0.000484884942           
       2.356540             0.00713549914            0.000489023247           
       2.359181             0.00687536376            0.000473296718           
       2.361821             0.00760124284            0.000480721007           
       2.364462             0.00760726317            0.000502973089           
       2.367102             0.00656834055            0.000480294702           
       2.369742              0.0064628783            0.000501468384           
       2.372383              0.0075679625            0.000491368516           
       2.375023             0.00646393781            0.000477373903           
       2.377663             0.00683768694            0.000469449939           
       2.380304             0.00706752324             0.00048523256           
       2.382944             0.00735298541             0.00047140992           
       2.385585             0.00770477552            0.000514653272           
       2.388225             0.00688795381            0.000484322133           
       2.390865             0.00706806472            0.000485573768           
       2.393506              0.0077979547            0.000500407214           
       2.396146             0.00846778739            0.000563822421           
       2.398787               0.007365064            0.000484593454           
       2.401427             0.00701512526             0.00045649713           
       2.404067             0.00664814876            0.000454309103           
       2.406708             0.00688390792            0.000456750704           
       2.409348             0.00749961284            0.000505675484           
       2.411988             0.00717157429            0.000484493281           
       2.414629             0.00661077464            0.000479651642           
       2.417269             0.00698045814            0.000498635113           
       2.419910             0.00666682677            0.000488435332           
       2.422550             0.00730862704            0.000489281241           
       2.425190             0.00706985632            0.000507258806           
       2.427831             0.00802507434            0.000537403666           
       2.430471             0.00831029314            0.000520999509           
       2.433112             0.00665408379            0.000453968724           
       2.435752             0.00603522478            0.000457553974           
       2.438392             0.00755529713            0.000494129349           
       2.441033             0.00696512978            0.000502808934           
       2.443673             0.00734429797            0.000516710483           
       2.446313             0.00659065922            0.000489913381           
       2.448954             0.00655630133            0.000465248562           
       2.451594              0.0067042024            0.000505861936           
       2.454235             0.00696120033            0.000483639255           
       2.456875             0.00727353034            0.000517288206           
       2.459515             0.00778664501            0.000549078967           
       2.462156             0.00782919883            0.000519821626           
       2.464796             0.00801152215            0.000519055296           
       2.467436              0.0082649316            0.000545187143           
       2.470077             0.00737424556            0.000488101283           
       2.472717             0.00761854405            0.000498269555           
       2.475358             0.00770695214            0.000506377805           
       2.477998             0.00771760792            0.000498185042           
       2.480638             0.00728867744            0.000492745813           
       2.483279             0.00733929836            0.000516783198           
       2.485919             0.00742468466             0.00050092751           
       2.488560             0.00683995973            0.000479454573           
       2.491200             0.00706037081            0.000501603117           
       2.493840             0.00642566202            0.000506343023           
       2.496481             0.00695143589            0.000518036424           
       2.499121             0.00741180851            0.000520290692           
       2.501761             0.00798104819            0.000547054163           
       2.504402             0.00779487221            0.000532737215           
       2.507042             0.00700135949            0.000501153223           
       2.509683             0.00660481911            0.000479314997           
       2.512323             0.00759210516            0.000539714027           
       2.514963              0.0065799945            0.000496245369           
       2.517604             0.00705144072            0.000533058788           
       2.520244             0.00751145507            0.000515786936           
       2.522884             0.00782982914            0.000534135292           
       2.525525               0.010138434            0.000614698473           
       2.528165             0.00772406964            0.000528173759           
       2.530806             0.00796196889            0.000545592773           
       2.533446              0.0075191459            0.000518886703           
       2.536086             0.00693499065            0.000493863153           
       2.538727             0.00563310558            0.000427005829           
       2.541367             0.00744309322            0.000495671172           
       2.544008             0.00720990585            0.000503824648           
       2.546648             0.00666855067            0.000492851966           
       2.549288              0.0073221826            0.000526964316           
       2.551929             0.00734804621            0.000519479457           
       2.554569             0.00766782327            0.000511249006           
       2.557209             0.00774188255            0.000518429825           
       2.559850             0.00672819231            0.000484850965           
       2.562490             0.00686892026            0.000506333133           
       2.565131              0.0079088731            0.000563330496           
       2.567771             0.00690390319            0.000507455513           
       2.570411             0.00608813253            0.000471376648           
       2.573052              0.0068500619            0.000506300602           
       2.575692             0.00728447841             0.00051894647           
       2.578332             0.00674737454             0.00050151388           
       2.580973             0.00710742765            0.000509823463           
       2.583613             0.00661699902            0.000480206536           
       2.586254             0.00747547343            0.000509697962           
       2.588894              0.0077597134            0.000539265859           
       2.591534             0.00650934827            0.000511290732           
       2.594175             0.00681318104            0.000513216304           
       2.596815             0.00692328109            0.000520396839           
       2.599456             0.00556092762            0.000442278586           
       2.602096             0.00659819052            0.000485430796           
       2.604736             0.00612992488            0.000478983274           
       2.607377             0.00667095276            0.000486505905           
       2.610017             0.00684741117            0.000484272831           
       2.612657             0.00770853565            0.000546527361           
       2.615298             0.00701532519            0.000509025629           
       2.617938              0.0074768332            0.000562153125           
       2.620579             0.00665119694            0.000508993621           
       2.623219              0.0067108397            0.000510541854           
       2.625859             0.00716364255             0.00051286309           
       2.628500             0.00709780202            0.000507154674           
       2.631140             0.00597530595            0.000472497237           
       2.633780             0.00638576494            0.000488031617           
       2.636421             0.00753947443            0.000543329086           
       2.639061             0.00700028358             0.00049285315           
       2.641702             0.00671058871            0.000493718727           
       2.644342             0.00670131691              0.0004954798           
       2.646982             0.00739740085            0.000512795055           
       2.649623             0.00717113734            0.000529106279           
       2.652263             0.00717787566            0.000524042751           
       2.654904             0.00659291509            0.000502740866           
       2.657544             0.00712738533            0.000492349664           
       2.660184             0.00704536361            0.000518042532           
       2.662825             0.00822557978            0.000572739892           
       2.665465             0.00560467523            0.000457245922           
       2.668105             0.00749909157            0.000557487777           
       2.670746             0.00731998924            0.000508812733           
       2.673386             0.00670638169            0.000501913254           
       2.676027             0.00819991684            0.000546087957           
       2.678667                0.01013098             0.00059227332           
       2.681307              0.0112294956            0.000612680793           
       2.683948              0.0143562962            0.000711766568           
       2.686588              0.0112107985            0.000618546139           
       2.689229              0.0100163695            0.000571312962           
       2.691869             0.00908385009            0.000575026708           
       2.694509             0.00854075545            0.000557878667           
       2.697150             0.00708571279            0.000499895936           
       2.699790             0.00879812904            0.000583971865           
       2.702430             0.00801032454            0.000532629352           
       2.705071             0.00788480543            0.000546042816           
       2.707711              0.0071663831            0.000505254618           
       2.710352             0.00667992254            0.000515426735           
       2.712992             0.00754773185            0.000558015471           
       2.715632             0.00646076305            0.000478999471           
       2.718273             0.00727832509            0.000526892193           
       2.720913             0.00674927314            0.000505937733           
       2.723553             0.00673180693            0.000508672859           
       2.726194             0.00595222497            0.000499995004           
       2.728834             0.00634009108            0.000516270672           
       2.731475             0.00708343941             0.00050363075           
       2.734115             0.00706286484            0.000518506475           
       2.736755             0.00699357986            0.000520203736           
       2.739396             0.00678950124            0.000509587869           
       2.742036             0.00728694093            0.000552507719           
       2.744677             0.00669458764            0.000513833933           
       2.747317             0.00691323182             0.00051843402           
       2.749957             0.00736309644            0.000538791005           
       2.752598             0.00733199562            0.000543486802           
       2.755238             0.00750165234            0.000559662801           
       2.757878             0.00754874354            0.000556508077           
       2.760519             0.00815364848            0.000572243168           
       2.763159              0.0101484706            0.000632037844           
       2.765800             0.00807900061            0.000537412045           
       2.768440             0.00804699297            0.000540297624           
       2.771080             0.00869802989            0.000566417614           
       2.773721             0.00775635418            0.000548676311           
       2.776361             0.00730120567            0.000539678671           
       2.779001               0.007688848            0.000573536678           
       2.781642             0.00652498407            0.000524454599           
       2.784282             0.00747774654            0.000570672536           
       2.786923             0.00621216233            0.000524723041           
       2.789563              0.0073985523            0.000551520124           
       2.792203             0.00670182391            0.000501438538           
       2.794844             0.00606315889             0.00052272679           
       2.797484             0.00729213094            0.000541018667           
       2.800125             0.00691845593            0.000554113885           
       2.802765             0.00749550248            0.000566837369           
       2.805405              0.0070665511            0.000552241812           
       2.808046             0.00741528674            0.000575649149           
       2.810686             0.00735286869            0.000526723688           
       2.813326             0.00634881873            0.000508394778           
       2.815967             0.00761126511            0.000572478257           
       2.818607             0.00646023326            0.000503301038           
       2.821248             0.00702196402            0.000513832719           
       2.823888             0.00769714862            0.000558425639           
       2.826528             0.00710684049            0.000519656263           
       2.829169             0.00762291019            0.000563727311           
       2.831809             0.00707521473            0.000550485675           
       2.834449             0.00692636707            0.000548106482           
       2.837090             0.00655237146            0.000514893322           
       2.839730             0.00677690531            0.000521084439           
       2.842371             0.00678417441            0.000522116286           
       2.845011             0.00718260741            0.000541511687           
       2.847651             0.00728720122            0.000546110093           
       2.850292             0.00683903583            0.000534242836           
       2.852932             0.00722769578            0.000561182693           
       2.855573             0.00679783662            0.000527927222           
       2.858213             0.00646784178            0.000540764094           
       2.860853             0.00637143165            0.000499271627           
       2.863494              0.0061970062            0.000509801277           
       2.866134              0.0076983164            0.000590582448           
       2.868774             0.00685544866            0.000547726239           
       2.871415             0.00677212255            0.000552866955           
       2.874055             0.00598278118            0.000496719476           
       2.876696             0.00766233785            0.000577339498           
       2.879336             0.00721654883            0.000540014981           
       2.881976             0.00597381888            0.000506765757           
       2.884617             0.00816481287            0.000583752532           
       2.887257              0.0074167398            0.000559239776           
       2.889897             0.00743002806            0.000548220523           
       2.892538             0.00772371567            0.000612332103           
       2.895178             0.00666497915             0.00051388911           
       2.897819             0.00563173594            0.000481872361           
       2.900459             0.00701553026            0.000527362774           
       2.903099             0.00749151413            0.000539380965           
       2.905740              0.0065851667             0.00051878507           
       2.908380             0.00626857954            0.000511912131           
       2.911021             0.00742806739            0.000566308278           
       2.913661              0.0072855834            0.000560682535           
       2.916301             0.00608905762            0.000513066745           
       2.918942              0.0068752399            0.000521481484           
       2.921582             0.00780046337            0.000581174364           
       2.924222             0.00678455303            0.000525102927           
       2.926863             0.00759584283            0.000578734277           
       2.929503             0.00717456364            0.000569120199           
       2.932144             0.00649332218            0.000519736594           
       2.934784             0.00651931165            0.000512236447           
       2.937424             0.00797288302            0.000572286346           
       2.940065             0.00736821568            0.000524798053           
       2.942705             0.00641527713            0.000489072854           
       2.945346             0.00777390267            0.000571352801           
       2.947986             0.00724571433            0.000562442611           
       2.950626             0.00734476328            0.000563085535           
       2.953267             0.00681122501            0.000533486875           
       2.955907             0.00692339871            0.000557957822           
       2.958547             0.00548176103             0.00046870258           
       2.961188             0.00601748783            0.000512324894           
       2.963828             0.00863767693            0.000600422921           
       2.966469             0.00708230341            0.000533351503           
       2.969109             0.00620418146            0.000506589328           
       2.971749              0.0062877306             0.00050680745           
       2.974390             0.00802149537            0.000562518924           
       2.977030             0.00779223425            0.000566812363           
       2.979670             0.00892830766             0.00059015824           
       2.982311             0.00811299788            0.000583072832           
       2.984951             0.00811431882            0.000554598704           
       2.987592             0.00750420728            0.000544023701           
       2.990232             0.00734150057            0.000559611549           
       2.992872             0.00686982988            0.000509908309           
       2.995513             0.00800562969            0.000538520005           
       2.998153              0.0111615783            0.000646551284           
       3.000794              0.0121660804            0.000653824519           
       3.003434              0.0125300901            0.000664535516           
       3.006074              0.0441373077             0.00122974175           
       3.008715                0.12048244             0.00196128763           
       3.011355               0.187722395             0.00236080434           
       3.013995               0.101326421             0.00173917509           
       3.016636              0.0612158179             0.00132373656           
       3.019276               0.121629255              0.0018341434           
       3.021917               0.469470007             0.00346488943           
       3.024557                1.60439502             0.00629754219           
       3.027197                1.17217402             0.00524798577           
       3.029838               0.514867513             0.00352745389           
       3.032478               0.273163703             0.00257197329           
       3.035118              0.0707873196             0.00132684587           
       3.037759              0.0966332525             0.00154826518           
       3.040399                0.13001162             0.00185247727           
       3.043040               0.507520475             0.00370492595           
       3.045680               0.413938908              0.0031480747           
       3.048320              0.0888237674             0.00149000822           
       3.050961               0.107115937             0.00166508669           
       3.053601              0.0834357761             0.00141536001           
       3.056242              0.0562551456             0.00123563997           
       3.058882              0.0446700383             0.00118113219           
       3.061522              0.0359520999             0.00103961911           
       3.064163              0.0425181282             0.00111633787           
       3.066803               0.101629663             0.00181701447           
       3.069443              0.0995482381             0.00188149456           
       3.072084              0.0587323939             0.00140722959           
       3.074724              0.0403180843             0.00130208828           
       3.077365              0.0826068882             0.00192935526           
       3.080005              0.0197131448            0.000947842123           
       3.082645             0.00964583262            0.000696520059           
       3.085286              0.0131679527            0.000820230441           
       3.087926             0.00991134494            0.000706127147           
       3.090566              0.0103189301            0.000705950881           
       3.093207              0.0102882027             0.00073352037           
       3.095847             0.00773134813            0.000609474034           
       3.098488             0.00838661067            0.000703858486           
       3.101128             0.00981032837            0.000766157262           
       3.103768             0.00863792613            0.000705395098           
       3.106409              0.0081481041            0.000729134061           
       3.109049             0.00810422487            0.000697827254           
       3.111690             0.00759350113            0.000663885232           
       3.114330             0.00784124303            0.000688979672           
       3.116970             0.00738000956            0.000673540657           
       3.119611              0.0132220738            0.000959630177           
       3.122251              0.0175679606             0.00115707206           
       3.124891              0.0383623042             0.00172575316           
       3.127532              0.0252402773             0.00136943522           
       3.130172              0.0146019068             0.00105959394           
       3.132813             0.00758652329            0.000751893938           
       3.135453             0.00744826898            0.000738874502           
       3.138093             0.00628229705            0.000735267441           
       3.140734             0.00614392732            0.000670828882           
       3.143374             0.00776984303            0.000797798426           
       3.146014             0.00740248467            0.000838316939           
       3.148655             0.00663711612            0.000737907369           
       3.151295             0.00568093299             0.00072751028           
       3.153936             0.00544578832            0.000688055147           
       3.156576             0.00649310193             0.00074109033           
       3.159216             0.00562182896            0.000693027853           
       3.161857             0.00565521671              0.0006922539           
       3.164497             0.00710612636            0.000815344003           
       3.167138             0.00816993092            0.000903309396           
       3.169778             0.00568907072            0.000741354956           
       3.172418             0.00603726793            0.000755937092           
       3.175059             0.00570631385            0.000651542479           
       3.177699             0.00608327324            0.000712368524           
       3.180339             0.00670163367            0.000801100767           
       3.182980             0.00632513878             0.00080465496           
       3.185620             0.00701280317            0.000862869704           
       3.188261             0.00582240707            0.000800262536           
       3.190901             0.00575275303            0.000731593551           
       3.193541             0.00656225268            0.000821034727           
       3.196182                0.00512936            0.000756474244           
       3.198822             0.00668486137            0.000863881749           
       3.201463             0.00668171348            0.000848798362           
       3.204103             0.00648872621            0.000831361603           
       3.206743             0.00576052615            0.000783250263           
       3.209384             0.00546996686            0.000824616977           
       3.212024             0.00614556592             0.00081489734           
       3.214664              0.0057309044            0.000894846253           
       3.217305             0.00640840664            0.000899488367           
       3.219945             0.00615646343            0.000907424436           
       3.222586             0.00593971753            0.000848955885           
       3.225226             0.00491733716            0.000856906726           
       3.227866             0.00511979005            0.000799164264           
       3.230507             0.00536719434            0.000848200848           
       3.233147             0.00531924297            0.000851221802           
       3.235787             0.00539692609            0.000877457083           
       3.238428             0.00612792781             0.00100897835           
       3.241068             0.00769910906             0.00105749897           
       3.243709             0.00526229368            0.000903263317           
       3.246349             0.00656095793            0.000919414933           
       3.248989             0.00574407756             0.00101579501           
       3.251630             0.00651035123             0.00104138693           
       3.254270             0.00450451002            0.000774175573           
       3.256911              0.0068155712             0.00103904831           
       3.259551             0.00569679365             0.00102270379           
       3.262191             0.00707098233             0.00116383559           
       3.264832             0.00585423239             0.00110647285           
       3.267472             0.00551178967             0.00100717449           
       3.270112             0.00535525813             0.00109713726           
       3.272753             0.00491212449            0.000961789933           
       3.275393             0.00588854106             0.00107447886           
       3.278034             0.00431497725            0.000920296385           
       3.280674              0.0046101856             0.00103224545           
       3.283314              0.0057315062             0.00102936114           
       3.285955             0.00474769448            0.000966633972           
       3.288595             0.00635594696             0.00124430098           
       3.291235              0.0048621184             0.00111876166           
       3.293876             0.00686852381             0.00134881652           
       3.296516             0.00584402316             0.00119442398           
       3.299157             0.00762947464             0.00134759168           
       3.301797             0.00833446452             0.00160662867           
       3.304437             0.00487715126              0.0010648015           
       3.307078               0.007024508             0.00140767463           
       3.309718             0.00840918483             0.00158974174           
       3.312359             0.00570039096             0.00130919731           
       3.314999              0.0081579772             0.00154204075           
       3.317639             0.00588720287             0.00125281886           
       3.320280             0.00813625211              0.0015658983           
       3.322920             0.00562063751             0.00132340541           
       3.325560             0.00339694089             0.00102953013           
       3.328201             0.00606348156             0.00123879071           
       3.330841             0.00595822859             0.00149454287           
       3.333482             0.00533685873             0.00133699552           
       3.336122             0.00634964507             0.00145902056           
       3.338762             0.00221198494            0.000994759251           
       3.341403             0.00529244283             0.00147029293           
       3.344043             0.00448596517             0.00129960768           
       3.346683             0.00391047519              0.0012387685           
       3.349324             0.00745366361             0.00192288673           
       3.351964             0.00665013779             0.00192065423           
       3.354605             0.00288935994             0.00144786777           
       3.357245             0.00528438054             0.00176637487           
       3.359885             0.00418212066             0.00125767865           
       3.362526             0.00352042314             0.00144300247           
       3.365166             0.00632734094             0.00182465639           
       3.367807             0.00601806066             0.00227740231           
       3.370447             0.00471513797             0.00167217722           
       3.373087              0.0067572431             0.00214065721           
       3.375728             0.00252333937              0.0014763503           
       3.378368             0.00368006776              0.0026460582           
       3.381008             0.00104039343             0.00104893462           
       3.383649             0.00477555139             0.00180279291           
       3.386289              0.0038314041             0.00191114484           
       3.388930             0.00944816086             0.00474713493           
       3.391570             0.00345951696             0.00203202083           
       3.394210             0.00384835087             0.00271223754           
       3.396851             0.00234483243             0.00236820937           
       3.399491             0.00449052767              0.0032781964           
       3.402131             0.00466025058             0.00472484323           
       3.404772             0.00935180025             0.00946782361           
       3.407412                       nan                       nan           
       3.410053           -2.56672812e-05                         0           
       3.412693                       nan                       nan           
       3.415333             0.00871343205             0.00915895483           
