################################################################################
# EDF_DataBlockID                     0.Image.Psd
# EDF_BinarySize                      2105344
# EDF_HeaderSize                      2560
# ByteOrder                           LowByteFirst
# DataType                            FloatValue
# Dim_1                               512
# Dim_2                               1028
# Image                               0
# HeaderID                            EH:000000:000000:000000
# Size                                2105344
# Center_1                            304.9000
# Center_2                            588.7000
# Comment                             Xenocs_Cell_Window - 20251028_20perc_iodine_1.23mg
# DDummy                              0.6
# Date                                2025-10-29T19:44:20
# Delta                               21.910000
# Dummy                               -1.5
# ExposureTime                        360
# Gamma                               15.360000
# Intensity1                          8.47109e-10
# PSize_1                             7.5e-05
# PSize_2                             7.5e-05
# Pressure                            0.0326233
# SampleDistance                      0.115750
# SampleEnvKind                       large
# SampleEnvPN                         ElectroChemical cell
# SampleEnvSN                         1141
# Thickness                           0
# Wavelength                          1.541891e-10
# Wavelength                          1.54189e-10
# aux                                 0
# aux_dial                            0.002375
# beamx                               588.434
# beamx_dial                          588.434
# beamz                               657.808
# beamz_dial                          657.808
# det0x                               0
# det0x_dial                          6.36945
# det0xvd                             0
# det0xvd_dial                        0
# det0y                               450.002
# det0y_dial                          481.635
# det0z                               0
# det0z_dial                          1.23302
# det0zvd                             0
# det0zvd_dial                        0
# mag                                 1.818
# mag_dial                            1.818
# om                                  0.2499
# om_dial                             -0.610199
# phi                                 -0.0120535
# phi_dial                            0
# ry                                  0.599993
# ry_dial                             0.599993
# s1bot                               0.8
# s1bot_dial                          -1.66094
# s1hl                                0.8
# s1hl_dial                           -0.608437
# s1hr                                0.8
# s1hr_dial                           0.970938
# s1top                               0.8
# s1top_dial                          -0.461562
# s2bot                               0.45
# s2bot_dial                          1.36109
# s2hl                                0.45
# s2hl_dial                           -0.83375
# s2hr                                0.45
# s2hr_dial                           -0.118594
# s2top                               0.45
# s2top_dial                          1.44734
# w2theta                             32
# w2theta_dial                        32
# waxsch                              19.2605
# waxsch_dial                         -32.7355
# waxsh                               137.085
# waxsh_dial                          -43.5338
# waxsth                              26.0607
# waxsth_dial                         -19.4086
# waxsz                               67.0407
# waxsz_dial                          -23.7954
# wind                                65.9854
# wind_dial                           66.0041
# wpsi                                124
# wpsi_dial                           124
# wstod                               115
# wstod_dial                          115
# x                                   0
# x_dial                              1.00969
# z                                   0
# z_dial                              13.3172
# CountCutoff                         6807993
# DetectorModel                       Dectris EIGER2 Si 500K, S/N E-01-0554
# ThresholdSetting                    4023.88989258
# Saturation                          0
# FlatField                           Corrected
# BackgroundReductionExtra            0.02
# BackgroundCorrectionConstant        0.0026712
# Detector                            0
# Monitor                             0
# Pil_Roi0                            0
# SumForIntensity1                    3.04959e+08
# TransmittedFlux                     847109
# det                                 0
# mon                                 0
# pilai0                              3.04959e+08
# pilai1                              770999
# pilct0                              5.27965e+08
# pilct1                              770999
# pilroi0                             0
# pilroi1                             0
# sec                                 1
# title                               20251028_20perc_iodine_1.23mg_1_00267.edf
# usaxs0                              0
# Operation                           Azimuthal average I(q)
# Error_model                         ErrorModel.poisson
# Geometrical_correction              True
# Transmission_correction             True
# Thickness_correction                False
# Binning mode                        Uniform
# Binning factor                      1.0
# Psi                                 0.0
# Omega                               0.2499
# MaskInvalidPixels                   True
# DetectorEdge                        3
# MaskFiles                           ['WAXS_corrected.edf']
################################################################################
    q(A⁻¹)                Intensity(a.u.)            Sigma_I(a.u.)            
       0.693100           -2.39676391e-05                         0           
       0.695741             0.00277265582             0.00287806184           
       0.698381              0.0128814264             0.00759883432           
       0.701021             0.00889833465             0.00892835703           
       0.703662              0.0057483508             0.00414217341           
       0.706302             0.00520006299             0.00305012825           
       0.708942             0.00573160325             0.00413307146           
       0.711583             0.00437606053             0.00312724789           
       0.714223             0.00881165112             0.00512329324           
       0.716864             0.00883392564             0.00335635756           
       0.719504             0.00440559569             0.00255777021           
       0.722144             0.00378918214             0.00219674054           
       0.724785             0.00807163197              0.0025575145           
       0.727425              0.0104424371             0.00393530511           
       0.730065             0.00952006474             0.00265790004           
       0.732706             0.00875678093              0.0021406205           
       0.735346             0.00973927267             0.00294275978           
       0.737987             0.00707688996             0.00177259631           
       0.740627             0.00985308684             0.00312076638           
       0.743267              0.0061726276             0.00165444488           
       0.745908              0.0104899086             0.00233997835           
       0.748548             0.00926970745             0.00202755869           
       0.751189             0.00563751914             0.00213059529           
       0.753829             0.00679446175             0.00215010458           
       0.756469             0.00571595944             0.00159023011           
       0.759110             0.00980163585             0.00219449815           
       0.761750             0.00764218847             0.00171338702           
       0.764390             0.00922095998             0.00196988165           
       0.767031             0.00469571855             0.00121731299           
       0.769671              0.0069085666             0.00184187368           
       0.772312             0.00652973014              0.0013632165           
       0.774952              0.0103823135             0.00232126116           
       0.777592             0.00573415385             0.00125651824           
       0.780233             0.00638967738              0.0016002851           
       0.782873             0.00581893501             0.00146056968           
       0.785513             0.00876685097              0.0019165763           
       0.788154             0.00756325326             0.00148916388           
       0.790794             0.00418723709             0.00132468001           
       0.793435             0.00709654255             0.00154924759           
       0.796075             0.00816505329             0.00160082221           
       0.798715             0.00876296426             0.00195975533           
       0.801356             0.00868550747             0.00167922869           
       0.803996             0.00742361303             0.00158275111           
       0.806637             0.00724061314             0.00124395553           
       0.809277             0.00879614196             0.00148403667           
       0.811917             0.00722515904             0.00125736067           
       0.814558             0.00680234823             0.00126798891           
       0.817198             0.00640619515             0.00116904477           
       0.819838             0.00762860305             0.00129111755           
       0.822479             0.00541376647             0.00127720948           
       0.825119             0.00760694748             0.00128857976           
       0.827760             0.00808642065             0.00134578938           
       0.830400             0.00746369271             0.00121688913           
       0.833040             0.00868806497             0.00137552766           
       0.835681              0.0081887008             0.00151813498           
       0.838321             0.00810499251             0.00126768956           
       0.840961              0.0088938267             0.00144686139           
       0.843602             0.00687379629             0.00116645934           
       0.846242             0.00749703405             0.00121801107           
       0.848883              0.0062054298             0.00113401605           
       0.851523             0.00664164892             0.00115862447           
       0.854163             0.00547367628             0.00111857077           
       0.856804             0.00699814059             0.00113721134           
       0.859444             0.00671535716             0.00109150279           
       0.862085             0.00694603764             0.00115699343           
       0.864725              0.0101223525             0.00142937804           
       0.867365              0.0069583802               0.001098946           
       0.870006             0.00836040589               0.001147873           
       0.872646             0.00813698922             0.00118751139           
       0.875286             0.00832655069             0.00115569034           
       0.877927             0.00489070276            0.000854674771           
       0.880567             0.00626084319             0.00100184362           
       0.883208             0.00928065579              0.0012082645           
       0.885848             0.00641147067             0.00104273692           
       0.888488             0.00623548544            0.000964506846           
       0.891129             0.00579762911            0.000954943282           
       0.893769             0.00719129967             0.00101784066           
       0.896410             0.00623202002            0.000883425006           
       0.899050             0.00742449762             0.00106041079           
       0.901690             0.00862849306             0.00124523645           
       0.904331             0.00592955302            0.000915168445           
       0.906971             0.00687049967             0.00104799355           
       0.909611              0.0071582682            0.000973783801           
       0.912252             0.00747553825             0.00102786473           
       0.914892             0.00674553162              0.0010669849           
       0.917533             0.00706180392             0.00103275538           
       0.920173             0.00896798545             0.00107979931           
       0.922813              0.0071484899             0.00101166931           
       0.925454             0.00754312815            0.000935788261           
       0.928094             0.00832029394             0.00104923645           
       0.930734             0.00767725397             0.00108508969           
       0.933375             0.00613471234            0.000960437863           
       0.936015             0.00803932539            0.000998550669           
       0.938656             0.00613562968            0.000935823501           
       0.941296             0.00715980358            0.000916167971           
       0.943936             0.00674418781            0.000871978199           
       0.946577             0.00978409902             0.00104332711           
       0.949217             0.00875523347            0.000907587505           
       0.951858             0.00712046061            0.000856786422           
       0.954498             0.00788698469             0.00104373057           
       0.957138             0.00854317257             0.00102910331           
       0.959779             0.00698722718            0.000917462228           
       0.962419             0.00734641623            0.000934490936           
       0.965059               0.007221279            0.000974433263           
       0.967700             0.00785869135             0.00104112833           
       0.970340             0.00690213147            0.000863406798           
       0.972981             0.00750062358            0.000820043048           
       0.975621             0.00608639742            0.000785849549           
       0.978261             0.00713157462            0.000808269071           
       0.980902             0.00823003234              0.0010388638           
       0.983542             0.00770615004            0.000890219492           
       0.986182              0.0072323508            0.000846717276           
       0.988823             0.00814368681            0.000872427238           
       0.991463             0.00905355506            0.000981409389           
       0.994104             0.00749626367            0.000871158525           
       0.996744             0.00811603948            0.000924578109           
       0.999384             0.00935490609            0.000887751146           
       1.002025             0.00722913845            0.000871024559           
       1.004665             0.00789776799            0.000832006494           
       1.007306             0.00919769815            0.000893275534           
       1.009946             0.00648338004             0.00076486925           
       1.012586              0.0073639979            0.000793918617           
       1.015227             0.00691318386            0.000826397644           
       1.017867             0.00997801227            0.000954172009           
       1.020507             0.00909665412            0.000882482407           
       1.023148             0.00846719062            0.000918686498           
       1.025788             0.00852559786            0.000845263421           
       1.028429             0.00819297157            0.000868105663           
       1.031069             0.00667329795            0.000737274966           
       1.033709             0.00733083894            0.000821429584           
       1.036350             0.00741011058             0.00074173418           
       1.038990             0.00792335535            0.000781085966           
       1.041630             0.00813032765            0.000825252422           
       1.044271              0.0074674589            0.000743808662           
       1.046911             0.00828657001            0.000824183843           
       1.049552             0.00661135689            0.000773446898           
       1.052192             0.00815029645            0.000784156913           
       1.054832             0.00837323885            0.000802039697           
       1.057473             0.00875012354            0.000808239607           
       1.060113             0.00809674851            0.000758252904           
       1.062754             0.00672765477            0.000705681689           
       1.065394              0.0084358804            0.000835455635           
       1.068034             0.00926274213            0.000796533268           
       1.070675             0.00813966779            0.000778884274           
       1.073315             0.00859905275            0.000812036871           
       1.075955             0.00928662638            0.000796668642           
       1.078596             0.00773491643            0.000772731744           
       1.081236             0.00828499991            0.000765800379           
       1.083877             0.00952549555            0.000813766181           
       1.086517             0.00645808433            0.000718490503           
       1.089157             0.00973299562            0.000915224082           
       1.091798              0.0081784975            0.000735529521           
       1.094438              0.0085268956            0.000748608646           
       1.097078              0.0081646844            0.000702579041           
       1.099719             0.00982682268             0.00083371951           
       1.102359             0.00949862649             0.00076763919           
       1.105000             0.00939905759            0.000853859448           
       1.107640              0.0100562686            0.000844489827           
       1.110280             0.00765635344            0.000672331639           
       1.112921             0.00953495985            0.000805978959           
       1.115561             0.00725971608            0.000668402326           
       1.118202             0.00820824377            0.000711397421           
       1.120842              0.0082317882            0.000748754851           
       1.123482             0.00864232952            0.000763848056           
       1.126123               0.008909188            0.000743883808           
       1.128763             0.00874989053            0.000742257941           
       1.131403             0.00911916605              0.0007301657           
       1.134044             0.00872542873            0.000734942998           
       1.136684             0.00843898762            0.000770607594           
       1.139325             0.00960916161            0.000757502826           
       1.141965             0.00833631744            0.000710215673           
       1.144605             0.00918180875            0.000710704878           
       1.147246             0.00763526198            0.000663266844           
       1.149886             0.00933044957            0.000730605835           
       1.152527             0.00899057164            0.000727604767           
       1.155167             0.00852682295             0.00067397777           
       1.157807             0.00875101005            0.000732062229           
       1.160448             0.00936854357            0.000739670984           
       1.163088              0.0101948566            0.000735994352           
       1.165728             0.00951043578            0.000729853489           
       1.168369              0.0094636032            0.000734780441           
       1.171009             0.00955800829            0.000716632383           
       1.173650             0.00938878384            0.000728896178           
       1.176290             0.00799742195            0.000657400874           
       1.178930             0.00819404899            0.000652185248           
       1.181571             0.00841632413             0.00067407909           
       1.184211             0.00994062072            0.000735179659           
       1.186851             0.00831719355            0.000657467588           
       1.189492              0.0100079296            0.000716351982           
       1.192132             0.00872030291            0.000661180136           
       1.194773             0.00970990222            0.000700736682           
       1.197413             0.00934451459            0.000658651196           
       1.200053               0.009436327            0.000678696336           
       1.202694              0.0101088404            0.000668004007           
       1.205334             0.00937451237            0.000693258798           
       1.207975              0.0107776829             0.00070953286           
       1.210615             0.00973245965            0.000743812588           
       1.213255             0.00998226484            0.000674560938           
       1.215896              0.0098652599            0.000682746447           
       1.218536              0.0096314206            0.000648662776           
       1.221176             0.00965711078            0.000706169437           
       1.223817             0.00903433961            0.000641162605           
       1.226457             0.00955881411            0.000672797607           
       1.229098             0.00956968635            0.000673147323           
       1.231738              0.0102658487            0.000700633498           
       1.234378              0.0102028044            0.000656325843           
       1.237019             0.00989104062            0.000665924086           
       1.239659              0.0109722776            0.000695268264           
       1.242299              0.0102028843             0.00066193047           
       1.244940              0.0100981583            0.000640456426           
       1.247580               0.011090175            0.000691703791           
       1.250221               0.010128669            0.000656960245           
       1.252861             0.00999634488            0.000621330478           
       1.255501             0.00946830575            0.000656585914           
       1.258142              0.0109282714            0.000662843302           
       1.260782              0.0107284392            0.000670965407           
       1.263423             0.00992618861            0.000620148061           
       1.266063               0.011267006            0.000677204931           
       1.268703              0.0101119315              0.0006362299           
       1.271344              0.0113736111            0.000697623082           
       1.273984              0.0103334295            0.000642217776           
       1.276624              0.0111325677            0.000654065518           
       1.279265              0.0101216902             0.00063402008           
       1.281905              0.0108068505            0.000658035411           
       1.284546             0.00943141312            0.000594197311           
       1.287186               0.010295902            0.000609102636           
       1.289826             0.00956945789            0.000618883378           
       1.292467             0.00965488439            0.000607947501           
       1.295107              0.0101973627            0.000618587009           
       1.297747              0.0108579586            0.000610808675           
       1.300388              0.0108170679            0.000664603584           
       1.303028              0.0110455487            0.000641136177           
       1.305669              0.0105099553            0.000640290159           
       1.308309              0.0106757734            0.000638966498           
       1.310949              0.0105533736            0.000634654549           
       1.313590             0.00969418234            0.000589257436           
       1.316230              0.0110328817            0.000670833735           
       1.318871              0.0111224701            0.000659661342           
       1.321511              0.0104088478            0.000626320222           
       1.324151              0.0102421607            0.000602866226           
       1.326792              0.0106964523            0.000619900171           
       1.329432              0.0109578725            0.000623001946           
       1.332072              0.0108102382            0.000609569017           
       1.334713              0.0115788287            0.000651116987           
       1.337353              0.0116382292            0.000626033831           
       1.339994              0.0102786911            0.000617396943           
       1.342634              0.0105999667            0.000601226321           
       1.345274              0.0118837436            0.000658814707           
       1.347915              0.0110150148            0.000616761844           
       1.350555              0.0108263749            0.000622166772           
       1.353195               0.011599698            0.000647167111           
       1.355836              0.0104550217            0.000604825659           
       1.358476              0.0109775022            0.000601875456           
       1.361117              0.0111097069            0.000606319981           
       1.363757              0.0113095897            0.000630429548           
       1.366397              0.0117596442            0.000623397412           
       1.369038              0.0119742898             0.00063532474           
       1.371678              0.0107784129            0.000597451356           
       1.374319              0.0113111657             0.00060676844           
       1.376959              0.0114856214             0.00060528086           
       1.379599              0.0103944238            0.000617094943           
       1.382240              0.0117841372            0.000617531574           
       1.384880              0.0112805699            0.000639977824           
       1.387520              0.0107107025            0.000592255267           
       1.390161              0.0112122245            0.000575518935           
       1.392801              0.0107023801            0.000585842976           
       1.395442              0.0109107639            0.000599597686           
       1.398082              0.0114959656             0.00057635846           
       1.400722              0.0110117447            0.000590870794           
       1.403363              0.0112665968            0.000629119386           
       1.406003              0.0111018131             0.00058444974           
       1.408644              0.0111665456            0.000614031464           
       1.411284               0.011081081            0.000579204005           
       1.413924              0.0114936618            0.000587701316           
       1.416565              0.0114502881            0.000584287164           
       1.419205              0.0110644397            0.000599147289           
       1.421845              0.0104568234            0.000582121564           
       1.424486              0.0108006754            0.000568678111           
       1.427126              0.0110793344            0.000598318728           
       1.429767              0.0117212135            0.000579022669           
       1.432407              0.0106296142            0.000577054668           
       1.435047              0.0102772691            0.000532892272           
       1.437688              0.0101674752            0.000537963138           
       1.440328               0.012012611            0.000596795362           
       1.442968              0.0114562159            0.000595868644           
       1.445609              0.0119047838            0.000588153187           
       1.448249              0.0111131427            0.000582649379           
       1.450890              0.0111175062            0.000578960078           
       1.453530               0.010806371            0.000597172841           
       1.456170              0.0094683561             0.00054250462           
       1.458811              0.0108280671            0.000554753455           
       1.461451              0.0107040728            0.000553014915           
       1.464092              0.0105285079            0.000552046712           
       1.466732              0.0101637051            0.000537737487           
       1.469372              0.0104338608              0.0005320864           
       1.472013              0.0106260464            0.000579126839           
       1.474653              0.0100463353             0.00055442131           
       1.477293              0.0106789975            0.000583659656           
       1.479934              0.0113861443            0.000575077318           
       1.482574              0.0108062037            0.000541945118           
       1.485215                0.01119656            0.000561921265           
       1.487855              0.0107041157            0.000556673005           
       1.490495              0.0113163311            0.000570262963           
       1.493136              0.0108243818             0.00055008512           
       1.495776              0.0115196085            0.000564891712           
       1.498416              0.0111583285            0.000574152563           
       1.501057              0.0100181389            0.000532038438           
       1.503697              0.0107205104            0.000538077516           
       1.506338              0.0109653752            0.000554132092           
       1.508978             0.00986215723            0.000520349803           
       1.511618              0.0112258709            0.000591244446           
       1.514259             0.00966470027            0.000529642045           
       1.516899              0.0109303803            0.000548424714           
       1.519540              0.0107916502            0.000553720709           
       1.522180              0.0105199155            0.000551507418           
       1.524820              0.0111196641            0.000563829259           
       1.527461              0.0107093831            0.000556066316           
       1.530101             0.00939301809            0.000515562909           
       1.532741              0.0101505308            0.000532838682           
       1.535382              0.0104212752            0.000548589803           
       1.538022              0.0114388199             0.00054144359           
       1.540663              0.0106045759            0.000560718143           
       1.543303              0.0103589478            0.000514571014           
       1.545943             0.00982790541            0.000530491642           
       1.548584              0.0103816474            0.000555019076           
       1.551224              0.0100170442            0.000504075833           
       1.553864             0.00919222449            0.000510249631           
       1.556505              0.0101970671            0.000519157093           
       1.559145              0.0102318043            0.000526411066           
       1.561786               0.011732397            0.000564126653           
       1.564426              0.0105410077            0.000518085472           
       1.567066              0.0108852348            0.000551646618           
       1.569707             0.00991517395            0.000517035085           
       1.572347              0.0101265812            0.000539813351           
       1.574988             0.00898954139            0.000484107063           
       1.577628             0.00962357762            0.000522303042           
       1.580268             0.00983593194            0.000511608884           
       1.582909             0.00980095761            0.000541320092           
       1.585549              0.0096937945            0.000522723145           
       1.588189               0.010865347            0.000541331146           
       1.590830             0.00899831723             0.00049201284           
       1.593470              0.0109507141            0.000564262981           
       1.596111             0.00974378463            0.000519651524           
       1.598751             0.00904959919            0.000485256984           
       1.601391             0.00952892372            0.000508928311           
       1.604032             0.00857187972            0.000492785728           
       1.606672             0.00901397784             0.00049097974           
       1.609312             0.00881866916            0.000506942497           
       1.611953             0.00942889094            0.000512951113           
       1.614593             0.00918994328             0.00049674789           
       1.617234              0.0101600834            0.000541309824           
       1.619874             0.00865936644            0.000497761566           
       1.622514             0.00942226234            0.000512142362           
       1.625155              0.0092619538            0.000510766557           
       1.627795             0.00901217875            0.000491487552           
       1.630436             0.00933044256            0.000497479356           
       1.633076             0.00873574427            0.000487677607           
       1.635716             0.00852642566             0.00047430313           
       1.638357             0.00871980113            0.000480915753           
       1.640997               0.010366807            0.000540254707           
       1.643637             0.00931700955            0.000498399352           
       1.646278             0.00794498155             0.00047470219           
       1.648918             0.00846698925             0.00049138558           
       1.651559              0.0080153393            0.000481810892           
       1.654199             0.00944332549            0.000508635856           
       1.656839              0.0101664535            0.000527935424           
       1.659480              0.0078785055            0.000482200662           
       1.662120             0.00879513166            0.000479846134           
       1.664761             0.00898682063            0.000503838682           
       1.667401             0.00825424248            0.000461516991           
       1.670041             0.00872124908            0.000481626595           
       1.672682             0.00915029382            0.000491303584           
       1.675322             0.00940117333            0.000494790897           
       1.677962             0.00896033914            0.000477722229           
       1.680603             0.00793861804            0.000451045194           
       1.683243             0.00887403948            0.000497534399           
       1.685884             0.00969798573            0.000523960478           
       1.688524             0.00790077227            0.000463783571           
       1.691164             0.00843592447            0.000479342009           
       1.693805             0.00768474365            0.000462528741           
       1.696445             0.00872327183            0.000495650645           
       1.699085             0.00847375597            0.000472141484           
       1.701726             0.00873397437            0.000461756659           
       1.704366             0.00808162535            0.000467928831           
       1.707007             0.00810366206            0.000458121514           
       1.709647             0.00874828312            0.000481369399           
       1.712287             0.00775572715            0.000457185211           
       1.714928             0.00888283199            0.000493223926           
       1.717568             0.00886408109            0.000464128251           
       1.720209             0.00849889893            0.000476022794           
       1.722849             0.00884529122            0.000483129964           
       1.725489             0.00845073958            0.000472628368           
       1.728130             0.00838547444            0.000500328229           
       1.730770             0.00849789161            0.000478351904           
       1.733410             0.00821133208            0.000462826065           
       1.736051             0.00894002067            0.000486287021           
       1.738691             0.00905729037            0.000479543926           
       1.741332             0.00815232809            0.000468259942           
       1.743972             0.00915803772            0.000512517714           
       1.746612             0.00857046766            0.000476098128           
       1.749253             0.00863293097            0.000487266299           
       1.751893             0.00772223389            0.000457466356           
       1.754533             0.00870553521            0.000485265765           
       1.757174             0.00722930011            0.000438070425           
       1.759814             0.00833590814            0.000463274933           
       1.762455              0.0086976861            0.000481910558           
       1.765095             0.00770881074            0.000434008706           
       1.767735             0.00867691663            0.000474660323           
       1.770376             0.00829661259            0.000465365343           
       1.773016             0.00817029827            0.000458715884           
       1.775657             0.00898164527            0.000474032889           
       1.778297             0.00864767657            0.000461131083           
       1.780937             0.00953411572            0.000511061277           
       1.783578              0.0082818502            0.000464407452           
       1.786218             0.00954386137            0.000520278095           
       1.788858             0.00918092101            0.000484651867           
       1.791499             0.00856406302            0.000462830069           
       1.794139              0.0093961186            0.000480859279           
       1.796780             0.00862421784            0.000458463599           
       1.799420             0.00879187905            0.000460335166           
       1.802060             0.00886468013            0.000465970765           
       1.804701              0.0091163437            0.000453469741           
       1.807341             0.00897173886            0.000472703816           
       1.809981             0.00932614373            0.000483556689           
       1.812622             0.00854075285            0.000454416899           
       1.815262             0.00909779342            0.000478964393           
       1.817903             0.00915459278             0.00047333833           
       1.820543             0.00900496979            0.000476769421           
       1.823183             0.00851352825            0.000463322333           
       1.825824             0.00901319884            0.000455443746           
       1.828464             0.00920509382            0.000479847737           
       1.831105             0.00897818581            0.000460794416           
       1.833745             0.00962373549            0.000487261737           
       1.836385             0.00857468222            0.000473064127           
       1.839026             0.00904872143             0.00048442919           
       1.841666             0.00959695762            0.000497119466           
       1.844306             0.00876731709            0.000462181687           
       1.846947             0.00941287653             0.00048309315           
       1.849587             0.00904247724            0.000522850872           
       1.852228             0.00931517571            0.000479862835           
       1.854868             0.00948857823            0.000511600385           
       1.857508             0.00878266256            0.000487374552           
       1.860149             0.00869725002            0.000493810608           
       1.862789             0.00895305862            0.000483600266           
       1.865429             0.00886912194            0.000502432793           
       1.868070             0.00880888189             0.00049404983           
       1.870710             0.00961731048            0.000504321495           
       1.873351             0.00939962737            0.000504744895           
       1.875991             0.00847750852            0.000487170851           
       1.878631             0.00861503661            0.000481700791           
       1.881272             0.00979038494            0.000510069074           
       1.883912              0.0090289351            0.000509772902           
       1.886553             0.00888998705            0.000500179951           
       1.889193             0.00919635649            0.000507856385           
       1.891833             0.00900543665            0.000521925138           
       1.894474             0.00781056763            0.000481834942           
       1.897114             0.00904199666            0.000501672779           
       1.899754             0.00889140997            0.000499559263           
       1.902395              0.0085990446            0.000481672352           
       1.905035             0.00924296106            0.000528928379           
       1.907676             0.00924201504            0.000498491042           
       1.910316             0.00909637704            0.000507678859           
       1.912956             0.00837297153            0.000476357996           
       1.915597             0.00872776029            0.000489063794           
       1.918237             0.00915202082            0.000517214416           
       1.920878             0.00930006712            0.000519246605           
       1.923518             0.00861332149            0.000499919621           
       1.926158             0.00841134507             0.00048761278           
       1.928799             0.00971753589            0.000518040879           
       1.931439             0.00923371506            0.000518225123           
       1.934079             0.00931265125            0.000542541186           
       1.936720             0.00903547489            0.000495142921           
       1.939360              0.0090400038            0.000528380823           
       1.942001              0.0088361653            0.000478796982           
       1.944641             0.00870349675            0.000484549152           
       1.947281             0.00841707412            0.000472117236           
       1.949922             0.00815426114            0.000479981744           
       1.952562             0.00864864062            0.000509812602           
       1.955202             0.00894805369            0.000517930181           
       1.957843             0.00806289318            0.000478896062           
       1.960483             0.00902791874            0.000529801414           
       1.963124             0.00819448696            0.000494399222           
       1.965764             0.00822666865            0.000467146921           
       1.968404             0.00893630613            0.000482278183           
       1.971045              0.0086816737             0.00048465194           
       1.973685             0.00812988563            0.000491943272           
       1.976326             0.00859739937            0.000498937487           
       1.978966             0.00854921748            0.000501903754           
       1.981606             0.00779561817             0.00048926807           
       1.984247             0.00771540025            0.000483544138           
       1.986887              0.0084796661            0.000500855579           
       1.989527             0.00760793911            0.000469303943           
       1.992168             0.00856662883             0.00051671283           
       1.994808             0.00793148035            0.000495057628           
       1.997449             0.00841722186            0.000499518137           
       2.000089              0.0077387478             0.00047706435           
       2.002729             0.00839191182            0.000497086957           
       2.005370             0.00811702414             0.00048361764           
       2.008010             0.00712050381            0.000472727844           
       2.010650             0.00844128257            0.000518547619           
       2.013291             0.00853280818            0.000500207664           
       2.015931             0.00811162089            0.000484258541           
       2.018572             0.00819707791            0.000520681547           
       2.021212             0.00815578863            0.000510037184           
       2.023852             0.00873298235            0.000499515712           
       2.026493              0.0086932887            0.000520645748           
       2.029133             0.00831882499            0.000499059554           
       2.031774             0.00841561091            0.000526789913           
       2.034414             0.00838707311            0.000483897347           
       2.037054             0.00789228344            0.000481304706           
       2.039695             0.00768884899            0.000471473136           
       2.042335             0.00769866867            0.000490276866           
       2.044975             0.00835080511            0.000504427507           
       2.047616             0.00907610344            0.000524570844           
       2.050256             0.00743631471            0.000479318242           
       2.052897              0.0076184878            0.000494097924           
       2.055537             0.00804542529            0.000490724701           
       2.058177             0.00731181964             0.00045811915           
       2.060818             0.00823167031            0.000509208726           
       2.063458             0.00827077822            0.000531905106           
       2.066098             0.00722953838            0.000469118107           
       2.068739             0.00841526673            0.000513995829           
       2.071379             0.00716156937            0.000486531666           
       2.074020             0.00784867708            0.000498267707           
       2.076660             0.00870714062            0.000529052768           
       2.079300               0.007593347            0.000506163296           
       2.081941              0.0076154637            0.000464124601           
       2.084581             0.00758947546            0.000489051446           
       2.087222             0.00746316203            0.000467702074           
       2.089862             0.00792052702            0.000524775592           
       2.092502             0.00824057052            0.000518870627           
       2.095143             0.00794122708            0.000525989675           
       2.097783             0.00799989657            0.000511124225           
       2.100423             0.00799989652            0.000492515237           
       2.103064             0.00849098591            0.000526503062           
       2.105704             0.00782615586             0.00050296709           
       2.108345             0.00800094459            0.000488583147           
       2.110985             0.00742129961             0.00050258383           
       2.113625             0.00737821749            0.000505495932           
       2.116266             0.00748565544            0.000516386844           
       2.118906             0.00798451194            0.000497020434           
       2.121546              0.0079367493            0.000486070415           
       2.124187             0.00803185443            0.000513271688           
       2.126827              0.0075123644            0.000501935507           
       2.129468             0.00762080969            0.000506836722           
       2.132108              0.0072130073            0.000479738501           
       2.134748             0.00847676245            0.000518051754           
       2.137389             0.00761124998            0.000512122503           
       2.140029             0.00791429086            0.000467521461           
       2.142670             0.00784859282            0.000497572092           
       2.145310             0.00743705386            0.000471427914           
       2.147950             0.00721983176            0.000478088992           
       2.150591             0.00656039745            0.000451127129           
       2.153231             0.00740843896             0.00049346685           
       2.155871             0.00695164935            0.000461791125           
       2.158512             0.00725259492            0.000492165656           
       2.161152             0.00749396721            0.000484610618           
       2.163793             0.00726669763            0.000475057318           
       2.166433             0.00822691106            0.000519065018           
       2.169073             0.00783434174            0.000495252287           
       2.171714             0.00814880901            0.000501318291           
       2.174354             0.00737302048            0.000498272708           
       2.176995             0.00701683536            0.000484042797           
       2.179635             0.00768967914            0.000535457708           
       2.182275             0.00757032775            0.000501618327           
       2.184916             0.00713185407              0.0004702578           
       2.187556             0.00710574238            0.000464691452           
       2.190196             0.00778950644            0.000508423501           
       2.192837             0.00791551808            0.000509730887           
       2.195477             0.00754578214            0.000474482288           
       2.198118             0.00825091412            0.000508870045           
       2.200758             0.00704221299            0.000482316476           
       2.203398             0.00782284596            0.000511598656           
       2.206039             0.00727708983            0.000466990069           
       2.208679             0.00718728638            0.000474900551           
       2.211319              0.0075716121            0.000490242912           
       2.213960             0.00698529126            0.000477188083           
       2.216600             0.00777569695            0.000520820566           
       2.219241             0.00775204939            0.000497006249           
       2.221881             0.00791279769            0.000503165242           
       2.224521             0.00793646282            0.000510092022           
       2.227162             0.00717041054            0.000475141787           
       2.229802             0.00740395989            0.000497931884           
       2.232443             0.00701671838            0.000477089926           
       2.235083             0.00680952833            0.000483856898           
       2.237723             0.00610722553            0.000439735055           
       2.240364             0.00724263628            0.000490667113           
       2.243004             0.00689690396            0.000474990618           
       2.245644             0.00738753723             0.00049651596           
       2.248285             0.00783132319            0.000500970802           
       2.250925             0.00662452459            0.000463556189           
       2.253566             0.00748380445             0.00052673848           
       2.256206             0.00744803212            0.000514971104           
       2.258846             0.00728557259            0.000484507781           
       2.261487             0.00785629979            0.000528078837           
       2.264127             0.00768685708            0.000504480317           
       2.266767             0.00666679634            0.000482333868           
       2.269408             0.00747055283            0.000512672886           
       2.272048              0.0070584088            0.000495355805           
       2.274689             0.00764825814            0.000522432463           
       2.277329             0.00737416818            0.000483009259           
       2.279969             0.00663580501            0.000487717171           
       2.282610             0.00700399501            0.000487129111           
       2.285250             0.00760636474            0.000485884835           
       2.287891             0.00734882272            0.000512046741           
       2.290531             0.00741441205            0.000521240646           
       2.293171             0.00783252169            0.000521855173           
       2.295812             0.00741492397            0.000505712055           
       2.298452             0.00765743675            0.000537418977           
       2.301092             0.00664019971            0.000464980791           
       2.303733             0.00779259405            0.000524040268           
       2.306373              0.0075442802            0.000523743602           
       2.309014             0.00874077022             0.00055275012           
       2.311654             0.00731268742            0.000527599898           
       2.314294             0.00672288503            0.000466065387           
       2.316935             0.00675133042             0.00046897992           
       2.319575             0.00744275944            0.000515931346           
       2.322215             0.00795292404            0.000555810076           
       2.324856              0.0072023177            0.000486297327           
       2.327496             0.00737725542             0.00052332887           
       2.330137             0.00727385228            0.000497264562           
       2.332777             0.00729904854            0.000513620051           
       2.335417             0.00789358668            0.000518184846           
       2.338058             0.00637914718            0.000479746879           
       2.340698             0.00660994836            0.000484510882           
       2.343339             0.00716505903            0.000515546456           
       2.345979              0.0060787896            0.000449256247           
       2.348619              0.0069833289            0.000499124138           
       2.351260               0.007751784            0.000522805865           
       2.353900             0.00644937052            0.000475357494           
       2.356540             0.00779520929            0.000521865566           
       2.359181             0.00787174036             0.00051706895           
       2.361821             0.00687164004            0.000466668432           
       2.364462             0.00687564648            0.000488219053           
       2.367102             0.00714120073            0.000511320272           
       2.369742             0.00682082505            0.000525988742           
       2.372383             0.00699064574            0.000482174139           
       2.375023             0.00749967471            0.000524999304           
       2.377663             0.00771625695            0.000509173094           
       2.380304             0.00761404823            0.000514223062           
       2.382944             0.00651098096            0.000452915834           
       2.385585             0.00722534488            0.000508851969           
       2.388225             0.00713622635            0.000503327822           
       2.390865             0.00688204447            0.000489205264           
       2.393506             0.00659722693            0.000469938846           
       2.396146              0.0079586478            0.000558090253           
       2.398787             0.00677717873             0.00047461469           
       2.401427             0.00687087347            0.000461268436           
       2.404067             0.00640796993            0.000455395498           
       2.406708             0.00772277719            0.000493941911           
       2.409348              0.0061473093              0.0004674363           
       2.411988             0.00771570697            0.000513092653           
       2.414629             0.00671114498            0.000493429937           
       2.417269             0.00805387083            0.000546853064           
       2.419910             0.00712303073             0.00051547466           
       2.422550             0.00686450749            0.000484142025           
       2.425190             0.00733029101            0.000527366253           
       2.427831             0.00751321737            0.000530904609           
       2.430471             0.00815160549            0.000526839276           
       2.433112              0.0074647172            0.000490925856           
       2.435752             0.00669776394            0.000492139191           
       2.438392             0.00740426389            0.000499439913           
       2.441033              0.0075315438            0.000533835939           
       2.443673             0.00800893276            0.000550917892           
       2.446313             0.00739845144            0.000529971741           
       2.448954             0.00745764669            0.000506621848           
       2.451594             0.00735111972            0.000540832295           
       2.454235             0.00743721541            0.000510401666           
       2.456875             0.00750818348            0.000536605122           
       2.459515             0.00726697684            0.000541581641           
       2.462156             0.00729848422            0.000512435778           
       2.464796             0.00764590117            0.000517723494           
       2.467436             0.00707488435            0.000515006928           
       2.470077             0.00820505163            0.000525677316           
       2.472717             0.00780446218            0.000514905198           
       2.475358              0.0070297885             0.00049377817           
       2.477998             0.00806848851            0.000520083225           
       2.480638             0.00735747932            0.000505464347           
       2.483279             0.00675516643            0.000506205158           
       2.485919             0.00761131092            0.000517836948           
       2.488560             0.00706926281            0.000497662804           
       2.491200             0.00772765204             0.00053579379           
       2.493840             0.00739751303            0.000554697471           
       2.496481             0.00695739519            0.000529143905           
       2.499121             0.00702658769              0.0005172299           
       2.501761             0.00672066022            0.000512547071           
       2.504402             0.00758343928            0.000536499188           
       2.507042             0.00714034241            0.000516733103           
       2.509683             0.00710697883            0.000507645442           
       2.512323             0.00650319601             0.00051000384           
       2.514963             0.00682017108            0.000515832572           
       2.517604             0.00708668824            0.000545613701           
       2.520244             0.00746141717            0.000524863519           
       2.522884             0.00755141653            0.000535570652           
       2.525525             0.00757375305            0.000542449972           
       2.528165             0.00699238997            0.000513090504           
       2.530806             0.00670048494            0.000511021196           
       2.533446             0.00793377474            0.000544196374           
       2.536086             0.00799162228            0.000541288231           
       2.538727             0.00716555668            0.000491713635           
       2.541367             0.00749444481            0.000507825016           
       2.544008             0.00696689954            0.000505663741           
       2.546648             0.00690352045            0.000511992382           
       2.549288             0.00742302564            0.000541724947           
       2.551929             0.00726602265            0.000527421996           
       2.554569             0.00692327469             0.00049599767           
       2.557209             0.00781397884            0.000531777833           
       2.559850             0.00734357877            0.000517178391           
       2.562490             0.00695968182            0.000520372369           
       2.565131             0.00560362155            0.000484136452           
       2.567771             0.00746802878            0.000538866327           
       2.570411             0.00719500025            0.000523201339           
       2.573052             0.00690380273            0.000518958713           
       2.575692             0.00708416967            0.000522510756           
       2.578332             0.00695479149            0.000519858358           
       2.580973             0.00713212774            0.000521435478           
       2.583613              0.0078160614            0.000532867138           
       2.586254             0.00728290843            0.000513657219           
       2.588894             0.00699148142            0.000522627328           
       2.591534             0.00703260939             0.00054260631           
       2.594175             0.00672445382            0.000520572729           
       2.596815             0.00615537965            0.000500995144           
       2.599456             0.00660059542            0.000491973006           
       2.602096             0.00685206263            0.000505071643           
       2.604736             0.00533841631            0.000456379804           
       2.607377              0.0069099873            0.000505545482           
       2.610017             0.00645332977            0.000480005547           
       2.612657             0.00678345395            0.000523454374           
       2.615298             0.00623244648            0.000489860532           
       2.617938              0.0075319778            0.000576073271           
       2.620579             0.00640570934            0.000510003875           
       2.623219             0.00647819202            0.000512150089           
       2.625859             0.00669669303            0.000506281563           
       2.628500             0.00710482341            0.000518062982           
       2.631140             0.00657997627            0.000506242718           
       2.633780             0.00629990882            0.000494921194           
       2.636421             0.00625207001            0.000505163263           
       2.639061             0.00770267791            0.000527846947           
       2.641702             0.00722344662            0.000522996701           
       2.644342             0.00729739443            0.000527906746           
       2.646982             0.00663834064            0.000495976895           
       2.649623             0.00839041523            0.000584343272           
       2.652263             0.00653990537            0.000510718877           
       2.654904             0.00587484208            0.000484541491           
       2.657544             0.00740012357             0.00051221871           
       2.660184             0.00699278552            0.000526946157           
       2.662825             0.00665185632            0.000525863502           
       2.665465             0.00796858625            0.000556663415           
       2.668105             0.00738949975            0.000565022792           
       2.670746             0.00781254755            0.000536693719           
       2.673386              0.0102117192            0.000632355628           
       2.676027               0.012470292            0.000687580597           
       2.678667             0.00864523281            0.000558614512           
       2.681307              0.0111020603            0.000621989936           
       2.683948              0.0117838169            0.000658395416           
       2.686588              0.0115338446            0.000640572516           
       2.689229              0.0109865911            0.000610910815           
       2.691869             0.00943377784              0.0005983059           
       2.694509              0.0091615019            0.000589932571           
       2.697150             0.00812932372            0.000546691685           
       2.699790             0.00763057022            0.000555268047           
       2.702430             0.00742256094            0.000523485132           
       2.705071             0.00834746603            0.000573635425           
       2.707711             0.00789031249            0.000541295989           
       2.710352             0.00668204067            0.000526336165           
       2.712992             0.00648859222            0.000528251422           
       2.715632             0.00744413619            0.000524961807           
       2.718273             0.00710939185            0.000531679224           
       2.720913             0.00679041766             0.00051813656           
       2.723553               0.007985232            0.000565644977           
       2.726194             0.00744924609            0.000571096611           
       2.728834              0.0073640211            0.000568086729           
       2.731475             0.00716311375            0.000517092807           
       2.734115             0.00669676839            0.000515494222           
       2.736755             0.00690112403            0.000527607596           
       2.739396             0.00851926319            0.000582812138           
       2.742036             0.00636538071            0.000527236348           
       2.744677             0.00736204331            0.000550158054           
       2.747317             0.00789645779            0.000565713467           
       2.749957             0.00603003524            0.000497825848           
       2.752598             0.00767424057            0.000567705412           
       2.755238             0.00682635648            0.000545092094           
       2.757878             0.00743742563            0.000563991918           
       2.760519             0.00640416653            0.000517801564           
       2.763159             0.00823210939            0.000581200228           
       2.765800             0.00737803582            0.000524356168           
       2.768440             0.00695011947            0.000512672247           
       2.771080             0.00876224972            0.000580445623           
       2.773721             0.00711657115            0.000536599443           
       2.776361             0.00602020534            0.000500346701           
       2.779001             0.00689678748            0.000554601968           
       2.781642             0.00689654556            0.000550505168           
       2.784282              0.0070709186            0.000566587445           
       2.786923             0.00693786983            0.000566173106           
       2.789563              0.0074036479             0.00056329811           
       2.792203             0.00640621008            0.000500552018           
       2.794844             0.00722006799            0.000582402665           
       2.797484              0.0080217739            0.000579358863           
       2.800125             0.00591793204            0.000523247131           
       2.802765             0.00732267918            0.000572032267           
       2.805405             0.00605710737             0.00052201814           
       2.808046             0.00673893965            0.000560295458           
       2.810686             0.00569565864              0.0004733189           
       2.813326             0.00777579645            0.000574452977           
       2.815967             0.00668134337            0.000547633357           
       2.818607             0.00685176292            0.000529215208           
       2.821248             0.00716889229            0.000530085481           
       2.823888             0.00696285643            0.000542277468           
       2.826528             0.00731039553            0.000538115801           
       2.829169             0.00733609397            0.000564635972           
       2.831809             0.00643760963             0.00053612487           
       2.834449             0.00623345932             0.00053088955           
       2.837090             0.00759452572            0.000565973059           
       2.839730             0.00768578938            0.000566583679           
       2.842371             0.00716424899            0.000547811946           
       2.845011             0.00730774006            0.000557680862           
       2.847651             0.00649021222            0.000526207092           
       2.850292             0.00629979899            0.000523518508           
       2.852932              0.0063466265            0.000536912151           
       2.855573             0.00743340497            0.000563650657           
       2.858213             0.00793132685             0.00061140432           
       2.860853             0.00778238069            0.000563380788           
       2.863494             0.00745443007            0.000570879703           
       2.866134             0.00678084598            0.000565916065           
       2.868774             0.00619899536            0.000531782065           
       2.871415             0.00747947286            0.000593227329           
       2.874055             0.00744039011            0.000565568103           
       2.876696             0.00603923077             0.00052332184           
       2.879336             0.00701815888            0.000543725942           
       2.881976             0.00631320535            0.000531904445           
       2.884617             0.00808620068            0.000593137446           
       2.887257             0.00813395832            0.000597956965           
       2.889897             0.00720089869            0.000551037099           
       2.892538             0.00571253359            0.000537669869           
       2.895178             0.00695574121            0.000536005382           
       2.897819             0.00728947855            0.000559740243           
       2.900459             0.00698991955            0.000537455775           
       2.903099             0.00838439846            0.000582604983           
       2.905740             0.00741095731            0.000561912462           
       2.908380             0.00653806131            0.000533780582           
       2.911021               0.006526449            0.000541977045           
       2.913661             0.00615178889             0.00052603301           
       2.916301             0.00716471982            0.000568232221           
       2.918942              0.0073011095            0.000548677083           
       2.921582               0.007538502            0.000583332537           
       2.924222             0.00673292641             0.00053408844           
       2.926863             0.00755143197            0.000589160068           
       2.929503             0.00790225504            0.000609830583           
       2.932144              0.0061123981            0.000514852779           
       2.934784             0.00845046811            0.000595439189           
       2.937424             0.00669324494            0.000535366846           
       2.940065             0.00557546128            0.000466099758           
       2.942705             0.00602256308             0.00048382015           
       2.945346             0.00732770581            0.000566364794           
       2.947986             0.00687684513            0.000559447915           
       2.950626             0.00810811506            0.000604049941           
       2.953267              0.0069185019            0.000548964908           
       2.955907             0.00608874921            0.000534236022           
       2.958547             0.00691985417            0.000537666765           
       2.961188             0.00645257777            0.000541666401           
       2.963828             0.00735837697            0.000565818609           
       2.966469             0.00728946542            0.000552460872           
       2.969109             0.00728645763            0.000560530745           
       2.971749             0.00671422841            0.000534713943           
       2.974390             0.00782199496            0.000567147028           
       2.977030             0.00774914603            0.000577115399           
       2.979670             0.00913628789            0.000609531586           
       2.982311             0.00929227399            0.000637118996           
       2.984951             0.00775848552              0.0005536926           
       2.987592             0.00738896469            0.000551168807           
       2.990232             0.00751411755            0.000578043695           
       2.992872             0.00851151936            0.000579495502           
       2.995513              0.0096100815            0.000602413996           
       2.998153              0.0133409844            0.000721708029           
       3.000794              0.0124135968             0.00067431389           
       3.003434                0.01106365            0.000637555122           
       3.006074              0.0374820397             0.00115704442           
       3.008715               0.110718851             0.00191963041           
       3.011355               0.214460246             0.00257633763           
       3.013995               0.121124088             0.00194144298           
       3.016636               0.072398093              0.0014698084           
       3.019276                0.13407082             0.00196611458           
       3.021917               0.498746946              0.0036463051           
       3.024557                1.44317652             0.00609821294           
       3.027197                1.14997576             0.00530723563           
       3.029838               0.548815941             0.00371838526           
       3.032478               0.268070451             0.00260139833           
       3.035118              0.0684900125             0.00133255086           
       3.037759              0.0839408614             0.00147331695           
       3.040399               0.114661594             0.00177622597           
       3.043040               0.485195095              0.0036986086           
       3.045680               0.394274895             0.00313692325           
       3.048320               0.101158381             0.00162350052           
       3.050961               0.113164554             0.00174740043           
       3.053601               0.101131534             0.00159096816           
       3.056242              0.0824078761             0.00152694223           
       3.058882                0.08503172             0.00166382732           
       3.061522               0.065862127             0.00143667133           
       3.064163              0.0818934619               0.001581833           
       3.066803                0.15600284             0.00229848578           
       3.069443               0.107603278             0.00199722205           
       3.072084               0.033529839             0.00108559858           
       3.074724              0.0469361475             0.00143440448           
       3.077365              0.0481934823             0.00150461591           
       3.080005             0.00907946429            0.000656773449           
       3.082645              0.0162623278            0.000923384431           
       3.085286              0.0145317022            0.000879756381           
       3.087926              0.0103889694            0.000738125608           
       3.090566              0.0118112825            0.000771139773           
       3.093207             0.00979851001            0.000730886381           
       3.095847             0.00891284512            0.000668133425           
       3.098488             0.00701807227            0.000657398114           
       3.101128              0.0099702452            0.000788599497           
       3.103768             0.00918667336             0.00074273563           
       3.106409             0.00876811957            0.000772253276           
       3.109049             0.00868866013            0.000737727574           
       3.111690             0.00809862213            0.000700011171           
       3.114330             0.00938552853            0.000769610075           
       3.116970             0.00802471829            0.000717096623           
       3.119611              0.0105680835            0.000875950675           
       3.122251              0.0182175452             0.00120301789           
       3.124891              0.0363793865             0.00171585841           
       3.127532              0.0246165894             0.00138081597           
       3.130172              0.0144383768             0.00107577461           
       3.132813              0.0116802899            0.000952553599           
       3.135453               0.006484534            0.000703898136           
       3.138093             0.00709301778            0.000797680639           
       3.140734             0.00687440686            0.000724492276           
       3.143374             0.00759936606             0.00080556977           
       3.146014             0.00622224206            0.000784730188           
       3.148655             0.00622549752            0.000729670179           
       3.151295             0.00728745052            0.000841287695           
       3.153936             0.00659574648             0.00077312955           
       3.156576             0.00608307434            0.000732375864           
       3.159216             0.00587073895            0.000723078894           
       3.161857              0.0056260904            0.000704971506           
       3.164497             0.00711786194            0.000833156571           
       3.167138             0.00727748786            0.000870453359           
       3.169778             0.00674210978            0.000824006931           
       3.172418             0.00630851328            0.000788962511           
       3.175059             0.00705104266            0.000739467355           
       3.177699             0.00589588956            0.000716041437           
       3.180339             0.00518994029            0.000719789342           
       3.182980             0.00565177136            0.000776594626           
       3.185620              0.0056489934            0.000790701123           
       3.188261             0.00653826427            0.000865844423           
       3.190901             0.00542050373            0.000725068859           
       3.193541             0.00555556313            0.000771305666           
       3.196182             0.00499407889            0.000762110036           
       3.198822             0.00720865973            0.000915931056           
       3.201463             0.00687031069            0.000878772024           
       3.204103             0.00600291308            0.000816429505           
       3.206743              0.0054524337             0.00077802239           
       3.209384             0.00476550014            0.000785853502           
       3.212024             0.00382788866            0.000656642569           
       3.214664             0.00377205858            0.000741230843           
       3.217305             0.00615653861            0.000900152827           
       3.219945             0.00543758433            0.000870713438           
       3.222586              0.0053013775            0.000818887078           
       3.225226             0.00576558863            0.000947366034           
       3.227866             0.00520449075            0.000822671639           
       3.230507                0.00584826            0.000903994531           
       3.233147             0.00553962855            0.000886922296           
       3.235787             0.00533201028            0.000890482858           
       3.238428             0.00536140356            0.000963588704           
       3.241068             0.00436442838             0.00081292565           
       3.243709             0.00727318397             0.00108421783           
       3.246349             0.00456297181            0.000782851243           
       3.248989              0.0069441183             0.00114033357           
       3.251630             0.00469173331            0.000902618016           
       3.254270             0.00596758034            0.000909792282           
       3.256911             0.00725162821             0.00109428337           
       3.259551             0.00610652168             0.00108108291           
       3.262191             0.00498850659            0.000998077947           
       3.264832             0.00718937979             0.00125192675           
       3.267472             0.00708417964              0.0011658176           
       3.270112              0.0074476959             0.00132101927           
       3.272753             0.00627654142             0.00111002605           
       3.275393             0.00429525616            0.000936949061           
       3.278034             0.00346197978            0.000841643454           
       3.280674             0.00602828864             0.00120516974           
       3.283314              0.0052001892             0.00100108369           
       3.285955             0.00534785614             0.00104746123           
       3.288595             0.00534566145             0.00116510069           
       3.291235             0.00321403777            0.000928704873           
       3.293876             0.00578721506             0.00126410575           
       3.296516              0.0048441596             0.00111029708           
       3.299157             0.00668815644             0.00128822476           
       3.301797             0.00710467849             0.00151452449           
       3.304437             0.00506632836             0.00110805071           
       3.307078             0.00499200952             0.00121160054           
       3.309718             0.00755240975             0.00153822486           
       3.312359             0.00846466035             0.00162886457           
       3.314999             0.00544814056             0.00128663744           
       3.317639             0.00669938302             0.00136451594           
       3.320280             0.00376320476             0.00108732082           
       3.322920             0.00618531089             0.00141745183           
       3.325560             0.00420234848              0.0011691454           
       3.328201             0.00554590088             0.00120962398           
       3.330841             0.00507832571             0.00140876158           
       3.333482             0.00311702313             0.00104324073           
       3.336122             0.00451432337             0.00125606017           
       3.338762             0.00325236421              0.0012315553           
       3.341403             0.00678512189             0.00169973819           
       3.344043              0.0054530909             0.00146296224           
       3.346683             0.00286950663              0.0010834439           
       3.349324             0.00516399886             0.00163414016           
       3.351964              0.0086626796             0.00223814087           
       3.354605             0.00834468593             0.00251223638           
       3.357245             0.00670291105               0.002031164           
       3.359885             0.00314779299              0.0011140429           
       3.362526             0.00487435318             0.00173362661           
       3.365166            0.000531244982            0.000539815461           
       3.367807             0.00269242914              0.0015552888           
       3.370447              0.0030663051             0.00137679794           
       3.373087             0.00412762422             0.00170820449           
       3.375728             0.00351730953              0.0017796488           
       3.378368              0.0080552643             0.00399704288           
       3.381008             0.00994586233             0.00331129801           
       3.383649              0.0063458871             0.00212181579           
       3.386289             0.00694388618             0.00262689881           
       3.388930              0.0148785959             0.00608227899           
       3.391570              0.0097202655             0.00347765835           
       3.394210             0.00799982328             0.00399262034           
       3.396851              0.0124533145             0.00557229491           
       3.399491              0.0123920201             0.00556012762           
       3.402131             0.00974282571              0.0069751357           
       3.404772           -2.66910934e-05                         0           
       3.407412                       nan                       nan           
       3.410053           -2.67568337e-05                         0           
       3.412693                       nan                       nan           
       3.415333             0.00908330925             0.00954774406           
