################################################################################
# EDF_DataBlockID                     0.Image.Psd
# EDF_BinarySize                      2105344
# EDF_HeaderSize                      2560
# ByteOrder                           LowByteFirst
# DataType                            FloatValue
# Dim_1                               512
# Dim_2                               1028
# Image                               0
# HeaderID                            EH:000000:000000:000000
# Size                                2105344
# Center_1                            304.9000
# Center_2                            588.7000
# Comment                             Xenocs_Cell_Window - 20251028_20perc_iodine_1.23mg
# DDummy                              0.6
# Date                                2025-11-01T01:05:22
# Delta                               21.910000
# Dummy                               -1.5
# ExposureTime                        360
# Gamma                               15.360000
# Intensity1                          8.59985e-10
# PSize_1                             7.5e-05
# PSize_2                             7.5e-05
# Pressure                            0.0327339
# SampleDistance                      0.115750
# SampleEnvKind                       large
# SampleEnvPN                         ElectroChemical cell
# SampleEnvSN                         1141
# Thickness                           0
# Wavelength                          1.541891e-10
# Wavelength                          1.54189e-10
# aux                                 0
# aux_dial                            0.002375
# beamx                               588.434
# beamx_dial                          588.434
# beamz                               657.808
# beamz_dial                          657.808
# det0x                               0
# det0x_dial                          6.36945
# det0xvd                             0
# det0xvd_dial                        0
# det0y                               450.002
# det0y_dial                          481.635
# det0z                               0
# det0z_dial                          1.23302
# det0zvd                             0
# det0zvd_dial                        0
# mag                                 1.818
# mag_dial                            1.818
# om                                  0.2499
# om_dial                             -0.610199
# phi                                 -0.0120535
# phi_dial                            0
# ry                                  0.599993
# ry_dial                             0.599993
# s1bot                               0.8
# s1bot_dial                          -1.66094
# s1hl                                0.8
# s1hl_dial                           -0.608437
# s1hr                                0.8
# s1hr_dial                           0.970938
# s1top                               0.8
# s1top_dial                          -0.461562
# s2bot                               0.45
# s2bot_dial                          1.36109
# s2hl                                0.45
# s2hl_dial                           -0.83375
# s2hr                                0.45
# s2hr_dial                           -0.118594
# s2top                               0.45
# s2top_dial                          1.44734
# w2theta                             32
# w2theta_dial                        32
# waxsch                              19.2605
# waxsch_dial                         -32.7355
# waxsh                               137.085
# waxsh_dial                          -43.5338
# waxsth                              26.0607
# waxsth_dial                         -19.4086
# waxsz                               67.0407
# waxsz_dial                          -23.7954
# wind                                65.9854
# wind_dial                           66.0041
# wpsi                                124
# wpsi_dial                           124
# wstod                               115
# wstod_dial                          115
# x                                   0
# x_dial                              1.00969
# z                                   0
# z_dial                              13.3172
# CountCutoff                         6807993
# DetectorModel                       Dectris EIGER2 Si 500K, S/N E-01-0554
# ThresholdSetting                    4023.88989258
# Saturation                          0
# FlatField                           Corrected
# BackgroundReductionExtra            0.02
# BackgroundCorrectionConstant        0.0026712
# Detector                            0
# Monitor                             0
# Pil_Roi0                            0
# SumForIntensity1                    3.09595e+08
# TransmittedFlux                     859985
# det                                 0
# mon                                 0
# pilai0                              3.09595e+08
# pilai1                              788581
# pilct0                              5.35224e+08
# pilct1                              788581
# pilroi0                             0
# pilroi1                             0
# sec                                 1
# title                               20251028_20perc_iodine_1.23mg_1_00752.edf
# usaxs0                              0
# Operation                           Azimuthal average I(q)
# Error_model                         ErrorModel.poisson
# Geometrical_correction              True
# Transmission_correction             True
# Thickness_correction                False
# Binning mode                        Uniform
# Binning factor                      1.0
# Psi                                 0.0
# Omega                               0.2499
# MaskInvalidPixels                   True
# DetectorEdge                        3
# MaskFiles                           ['WAXS_corrected.edf']
################################################################################
    q(A⁻¹)                Intensity(a.u.)            Sigma_I(a.u.)            
       0.693100           -2.36087871e-05                         0           
       0.695741             0.00555253343             0.00404223856           
       0.698381              0.0168602201             0.00862821239           
       0.701021           -2.35716075e-05                         0           
       0.703662             0.00564088232               0.004072437           
       0.706302             0.00856726136             0.00388560829           
       0.708942             0.00566995626             0.00407989436           
       0.711583              0.0153471053              0.0058124348           
       0.714223             0.00575113624             0.00410791648           
       0.716864             0.00494243717             0.00249164485           
       0.719504             0.00435675924             0.00252444084           
       0.722144             0.00877298066             0.00331744568           
       0.724785             0.00315633499             0.00158727868           
       0.727425             0.00440661253             0.00253719658           
       0.730065              0.0107025022             0.00279695555           
       0.732706             0.00976934622             0.00224400798           
       0.735346             0.00436963536             0.00195631307           
       0.737987              0.0103354957             0.00212607453           
       0.740627             0.00676529272             0.00256650792           
       0.743267             0.00956271143              0.0020437699           
       0.745908             0.00464754448             0.00154583087           
       0.748548             0.00780706276             0.00184675152           
       0.751189               0.010351858             0.00286543336           
       0.753829             0.00535564582             0.00189457669           
       0.756469             0.00782450079             0.00184657917           
       0.759110             0.00775180239             0.00193691915           
       0.761750             0.00640529941             0.00155682762           
       0.764390             0.00620532171             0.00160383035           
       0.767031             0.00807574463              0.0015844069           
       0.769671              0.0106762426             0.00227247594           
       0.772312             0.00807990812             0.00150502821           
       0.774952             0.00869763539             0.00210863661           
       0.777592              0.0064976697             0.00132750801           
       0.780233             0.00671482546             0.00162816896           
       0.782873               0.006833575             0.00157090065           
       0.785513             0.00698072099             0.00169737832           
       0.788154             0.00490065056              0.0011897049           
       0.790794             0.00743105491              0.0017514456           
       0.793435             0.00864706547             0.00169728983           
       0.796075             0.00618721495              0.0013830421           
       0.798715             0.00775514071             0.00182976529           
       0.801356             0.00925241249             0.00172014061           
       0.803996             0.00364309488             0.00110043505           
       0.806637             0.00479538403              0.0010047386           
       0.809277              0.0076537356              0.0013739137           
       0.811917              0.0068989361             0.00121941473           
       0.814558             0.00672078813              0.0012508935           
       0.817198             0.00861387318             0.00134540955           
       0.819838             0.00559119799             0.00109703358           
       0.822479              0.0104088562             0.00175767303           
       0.825119             0.00752707468             0.00127216493           
       0.827760             0.00619549992               0.001169126           
       0.830400              0.0069953869             0.00116924149           
       0.833040             0.00728808535             0.00125037054           
       0.835681             0.00837065876             0.00152337532           
       0.838321             0.00663589498              0.0011384411           
       0.840961             0.00714910219             0.00128745648           
       0.843602             0.00776993946             0.00123084766           
       0.846242              0.0083301473             0.00127425705           
       0.848883             0.00755110067             0.00124154541           
       0.851523             0.00575480483             0.00107039544           
       0.854163             0.00562189838              0.0011250961           
       0.856804              0.0059782137             0.00104318126           
       0.859444             0.00819490479             0.00119670321           
       0.862085              0.0085528655             0.00127421396           
       0.864725             0.00738777667             0.00121195771           
       0.867365             0.00937784217             0.00126618728           
       0.870006             0.00898336873             0.00118092953           
       0.872646             0.00596303528             0.00100893645           
       0.875286             0.00519692579            0.000906163129           
       0.877927             0.00647129042            0.000975741789           
       0.880567             0.00742673622             0.00108294583           
       0.883208             0.00664321038             0.00101457907           
       0.885848             0.00782450023             0.00114326902           
       0.888488             0.00761337317             0.00105774979           
       0.891129             0.00663988204             0.00101427742           
       0.893769             0.00722146891             0.00101230897           
       0.896410             0.00441100184             0.00073764618           
       0.899050             0.00745608351             0.00105467875           
       0.901690             0.00865831999             0.00123801348           
       0.904331             0.00779817519             0.00104162348           
       0.906971             0.00595824796             0.00096860776           
       0.909611             0.00781926127             0.00101010294           
       0.912252             0.00862452466             0.00109573749           
       0.914892             0.00648033049             0.00103794172           
       0.917533             0.00666314402            0.000995642552           
       0.920173             0.00728002149            0.000965575279           
       0.922813             0.00815249905             0.00107226223           
       0.925454             0.00628010747            0.000847441246           
       0.928094             0.00830004146             0.00104008391           
       0.930734              0.0075596673             0.00106865675           
       0.933375             0.00902333918             0.00115605906           
       0.936015             0.00755996181            0.000961046307           
       0.938656             0.00915866055             0.00113476144           
       0.941296             0.00773712131            0.000945232104           
       0.943936             0.00710564515            0.000888314531           
       0.946577             0.00787383861            0.000928918342           
       0.949217             0.00655256897            0.000779264071           
       0.951858             0.00922464428            0.000967871174           
       0.954498             0.00776061558             0.00102755529           
       0.957138             0.00977479771             0.00109251519           
       0.959779             0.00771556356            0.000956849861           
       0.962419             0.00677386022             0.00089059377           
       0.965059             0.00672042332            0.000932969752           
       0.967700             0.00774149509             0.00102557111           
       0.970340             0.00861052682            0.000957112353           
       0.972981             0.00721057914            0.000797989634           
       0.975621             0.00739441919            0.000859677377           
       0.978261             0.00703699753            0.000796858398           
       0.980902             0.00834110297             0.00103799149           
       0.983542             0.00749668333             0.00087143934           
       0.986182             0.00802645761            0.000885288551           
       0.988823             0.00800764136            0.000858608535           
       0.991463             0.00659926921            0.000831596719           
       0.994104             0.00787595954            0.000886238703           
       0.996744             0.00737941913            0.000874997536           
       0.999384             0.00805752917            0.000817705047           
       1.002025             0.00817016563            0.000919023823           
       1.004665             0.00708951891            0.000782360873           
       1.007306             0.00802776468            0.000828261337           
       1.009946             0.00763562132            0.000823821008           
       1.012586             0.00917773047             0.00087965225           
       1.015227              0.0085729993            0.000913357124           
       1.017867             0.00665677354            0.000773500781           
       1.020507             0.00599536673            0.000711045352           
       1.023148             0.00981402703            0.000981624749           
       1.025788             0.00774904425            0.000799793616           
       1.028429             0.00760917235            0.000830318637           
       1.031069             0.00810814866            0.000806574135           
       1.033709             0.00750233637            0.000824737946           
       1.036350             0.00913606697            0.000817409715           
       1.038990             0.00849303288            0.000802601339           
       1.041630             0.00801086228            0.000813011383           
       1.044271             0.00847449426            0.000786422474           
       1.046911             0.00913976385             0.00085906968           
       1.049552             0.00812457929            0.000850961383           
       1.052192             0.00878187539            0.000807856303           
       1.054832             0.00900461806            0.000825478911           
       1.057473             0.00617697158            0.000673976956           
       1.060113             0.00930631871            0.000806811218           
       1.062754             0.00773145569            0.000750813107           
       1.065394             0.00846297905            0.000830508398           
       1.068034             0.00878621765            0.000769944322           
       1.070675             0.00823846113            0.000777708514           
       1.073315             0.00815127461            0.000784670661           
       1.075955             0.00953757167            0.000801293931           
       1.078596             0.00798515698             0.00077923218           
       1.081236              0.0100452053            0.000836898793           
       1.083877             0.00999143562            0.000827168533           
       1.086517             0.00802559872            0.000794935893           
       1.089157             0.00933407713            0.000889537124           
       1.091798             0.00871639039            0.000753626033           
       1.094438             0.00847886515            0.000740887793           
       1.097078             0.00803336202             0.00069166909           
       1.099719             0.00760787085            0.000728063368           
       1.102359             0.00923155749            0.000751083865           
       1.105000             0.00917369879            0.000837222094           
       1.107640              0.0104626235            0.000854910201           
       1.110280              0.0104354279            0.000779025911           
       1.112921             0.00723809048            0.000696948172           
       1.115561             0.00795231115            0.000694302976           
       1.118202             0.00905448207             0.00074155468           
       1.120842             0.00964092965            0.000804222505           
       1.123482             0.00816616975            0.000736927865           
       1.126123             0.00849519505            0.000720936362           
       1.128763             0.00985456353             0.00078180141           
       1.131403             0.00834173794            0.000693100715           
       1.134044             0.00879515435            0.000732328965           
       1.136684              0.0088793994            0.000784520172           
       1.139325             0.00958516807            0.000750871437           
       1.141965             0.00803195077            0.000691891283           
       1.144605              0.0094128981            0.000714185557           
       1.147246             0.00878716059            0.000706195276           
       1.149886              0.0104317233             0.00076671523           
       1.152527             0.00974167455            0.000751697145           
       1.155167              0.0092346817             0.00069612483           
       1.157807             0.00844673144            0.000713817945           
       1.160448             0.00996295239            0.000757043403           
       1.163088             0.00888953679            0.000682099447           
       1.165728             0.00904068945             0.00070625326           
       1.168369             0.00813221958            0.000676017727           
       1.171009             0.00866458071            0.000677190276           
       1.173650             0.00858145717            0.000691617115           
       1.176290              0.0087249447            0.000681492096           
       1.178930              0.0097203602            0.000704996696           
       1.181571             0.00940660808            0.000707278349           
       1.184211             0.00973236905            0.000721971784           
       1.186851             0.00922567618             0.00068724131           
       1.189492             0.00961263559             0.00069678661           
       1.192132             0.00847401575            0.000646878707           
       1.194773             0.00931356394            0.000681129334           
       1.197413             0.00818332594            0.000611739108           
       1.200053             0.00985489429            0.000688373603           
       1.202694             0.00934124613            0.000637316283           
       1.205334             0.00974953797            0.000701677053           
       1.207975             0.00926468431            0.000652904007           
       1.210615              0.0097912022            0.000740447784           
       1.213255              0.0109126977             0.00069999819           
       1.215896             0.00934681547            0.000659570506           
       1.218536              0.0101282899            0.000660185641           
       1.221176              0.0100165058            0.000713785374           
       1.223817             0.00926828327            0.000644531041           
       1.226457              0.0103971692            0.000696408713           
       1.229098              0.0110967138            0.000719420276           
       1.231738             0.00959190365            0.000672156004           
       1.234378              0.0106692699            0.000666118178           
       1.237019              0.0107595942            0.000689327946           
       1.239659             0.00949649659            0.000641962902           
       1.242299             0.00920089465            0.000623864296           
       1.244940              0.0109134883              0.0006608068           
       1.247580              0.0098136017            0.000645787121           
       1.250221             0.00959381648            0.000634574788           
       1.252861             0.00954076503             0.00060244562           
       1.255501              0.0107194429            0.000693371109           
       1.258142              0.0101283836            0.000633329062           
       1.260782             0.00995224451            0.000641381733           
       1.263423             0.00999785126            0.000617705793           
       1.266063              0.0109722715            0.000663266912           
       1.268703              0.0101905545            0.000633899098           
       1.271344              0.0112048112            0.000687223713           
       1.273984              0.0101737043            0.000632446579           
       1.276624              0.0106989951            0.000636384051           
       1.279265              0.0111247808            0.000659699923           
       1.281905              0.0100845331            0.000630887324           
       1.284546              0.0110586817            0.000638584226           
       1.287186              0.0110190101            0.000625394098           
       1.289826             0.00988984866            0.000624430609           
       1.292467             0.00965129543            0.000603266978           
       1.295107             0.00982371416            0.000602585851           
       1.297747              0.0105797701            0.000598402544           
       1.300388               0.010075799            0.000636607655           
       1.303028               0.010035651            0.000606531863           
       1.305669             0.00974833922            0.000612020428           
       1.308309              0.0105843515            0.000631443867           
       1.310949              0.0122739511            0.000679294575           
       1.313590              0.0108892931            0.000619831343           
       1.316230             0.00957790129            0.000620340023           
       1.318871             0.00900236744            0.000589010433           
       1.321511               0.010128175            0.000613175669           
       1.324151              0.0105127018            0.000606186895           
       1.326792              0.0104695263            0.000608680802           
       1.329432              0.0104125798            0.000602739514           
       1.332072              0.0105196195             0.00059680091           
       1.334713              0.0100406223            0.000601770976           
       1.337353              0.0105673071            0.000592053189           
       1.339994             0.00992840952            0.000602226164           
       1.342634             0.00996470916            0.000578551811           
       1.345274              0.0120107021            0.000657347562           
       1.347915              0.0112159856            0.000617686183           
       1.350555              0.0116668584            0.000641012435           
       1.353195              0.0106336967            0.000614977805           
       1.355836              0.0112640614            0.000623073743           
       1.358476              0.0106564052            0.000588551459           
       1.361117             0.00993568967            0.000569080624           
       1.363757              0.0103088105            0.000597367546           
       1.366397              0.0120147629            0.000625388248           
       1.369038              0.0103976623            0.000587574512           
       1.371678              0.0106271592            0.000588786639           
       1.374319              0.0110144813            0.000594258685           
       1.376959              0.0109582021            0.000586777639           
       1.379599              0.0125715784            0.000673551631           
       1.382240              0.0109017902            0.000589499434           
       1.384880              0.0108382032             0.00062259017           
       1.387520             0.00986970965            0.000564256214           
       1.390161              0.0119445833            0.000589553791           
       1.392801              0.0116149117            0.000605721806           
       1.395442              0.0116257291            0.000614280428           
       1.398082              0.0115471058            0.000573298394           
       1.400722              0.0112312179            0.000592245939           
       1.403363              0.0105731294            0.000604870878           
       1.406003              0.0112023944            0.000582679653           
       1.408644              0.0117676811            0.000625605933           
       1.411284              0.0115401555            0.000586638461           
       1.413924              0.0123251203             0.00060401434           
       1.416565              0.0109148131            0.000566174754           
       1.419205              0.0106349586            0.000582989855           
       1.421845              0.0106748087            0.000583738127           
       1.424486              0.0125877001            0.000609310214           
       1.427126              0.0104054205            0.000575479409           
       1.429767              0.0114845757            0.000568841099           
       1.432407              0.0103584862            0.000565367138           
       1.435047              0.0103071314            0.000529655729           
       1.437688              0.0112465514            0.000561538907           
       1.440328              0.0106804535             0.00055850336           
       1.442968              0.0107934292            0.000574029051           
       1.445609             0.00997440998            0.000534315182           
       1.448249              0.0113112337            0.000583402168           
       1.450890              0.0101577938            0.000549248441           
       1.453530              0.0108717501            0.000594475627           
       1.456170              0.0105459649            0.000568242248           
       1.458811              0.0106470902            0.000545964272           
       1.461451              0.0106593513            0.000547711569           
       1.464092              0.0098548584            0.000530080489           
       1.466732              0.0100937217            0.000531856118           
       1.469372                0.01041734            0.000527669836           
       1.472013              0.0109146425            0.000582527999           
       1.474653              0.0110103438            0.000576050729           
       1.477293              0.0107789237            0.000581977697           
       1.479934              0.0108659379            0.000557565272           
       1.482574              0.0110027522            0.000542742223           
       1.485215              0.0105216275            0.000540628372           
       1.487855              0.0099785138            0.000533435487           
       1.490495              0.0124739175            0.000594220986           
       1.493136              0.0100969443            0.000527287573           
       1.495776              0.0110841819            0.000549948948           
       1.498416              0.0108766845            0.000562600626           
       1.501057              0.0103721131            0.000537288217           
       1.503697               0.010370601            0.000525246642           
       1.506338              0.0107459854            0.000544438576           
       1.508978              0.0105002219            0.000532884247           
       1.511618              0.0103878983            0.000564475513           
       1.514259             0.00979910913            0.000529304719           
       1.516899             0.00948609995            0.000507069443           
       1.519540             0.00984397019            0.000524875367           
       1.522180              0.0102466604            0.000540207505           
       1.524820              0.0111086383            0.000559314912           
       1.527461             0.00989745479            0.000530554905           
       1.530101              0.0102039828            0.000533320348           
       1.532741              0.0112751447            0.000557361082           
       1.535382              0.0103231445            0.000541897953           
       1.538022              0.0113059592             0.00053424507           
       1.540663             0.00945035655            0.000525347008           
       1.543303              0.0113761655            0.000535192052           
       1.545943              0.0106205576            0.000547325813           
       1.548584             0.00983467696            0.000536141015           
       1.551224              0.0101646108            0.000503959537           
       1.553864              0.0108979557             0.00055140299           
       1.556505             0.00996257116            0.000509296958           
       1.559145              0.0100089743            0.000516735018           
       1.561786             0.00987979801            0.000513785077           
       1.564426              0.0104807544            0.000512720676           
       1.567066             0.00955236794            0.000512887116           
       1.569707              0.0109039001            0.000538127255           
       1.572347              0.0112608128            0.000564964651           
       1.574988              0.0109650155            0.000530641835           
       1.577628             0.00933537744            0.000510557228           
       1.580268             0.00944562801            0.000497588058           
       1.582909             0.00953182989            0.000529824751           
       1.585549             0.00993124616             0.00052511075           
       1.588189             0.00997600534            0.000514806192           
       1.590830             0.00987365575            0.000511515723           
       1.593470              0.0099267582            0.000533197703           
       1.596111             0.00981876246            0.000517727167           
       1.598751             0.00874088713            0.000473324613           
       1.601391             0.00886396562            0.000487161464           
       1.604032             0.00937187277            0.000511396191           
       1.606672             0.00983318891            0.000508951888           
       1.609312             0.00912982185            0.000511932304           
       1.611953             0.00901472087            0.000497789833           
       1.614593             0.00934602288            0.000497184116           
       1.617234             0.00847192574            0.000490583065           
       1.619874              0.0084207762            0.000487167798           
       1.622514              0.0093116323            0.000505301076           
       1.625155             0.00912272411            0.000503103837           
       1.627795             0.00908141087            0.000489664361           
       1.630436             0.00845767131            0.000470081925           
       1.633076             0.00921812841            0.000497196937           
       1.635716             0.00870604358            0.000475671481           
       1.638357             0.00890505461            0.000482345483           
       1.640997             0.00953956304            0.000514356821           
       1.643637             0.00848371793            0.000472015781           
       1.646278             0.00858625414            0.000489779798           
       1.648918             0.00870215664            0.000494419467           
       1.651559              0.0087038003            0.000498303946           
       1.654199             0.00923362033            0.000499177164           
       1.656839             0.00952799352            0.000507248767           
       1.659480             0.00956903576            0.000527429212           
       1.662120             0.00988285476            0.000504831265           
       1.664761             0.00874407925            0.000493252986           
       1.667401             0.00955529872             0.00049282806           
       1.670041             0.00915554021            0.000489764511           
       1.672682             0.00828984815              0.0004641196           
       1.675322             0.00849402824            0.000466779454           
       1.677962             0.00855554709            0.000463298964           
       1.680603             0.00949104982            0.000489473228           
       1.683243             0.00885076087            0.000493147627           
       1.685884             0.00952353452            0.000515324807           
       1.688524              0.0085586482            0.000479079277           
       1.691164             0.00858210415            0.000479844201           
       1.693805             0.00790031973            0.000465447365           
       1.696445             0.00815570261            0.000475653693           
       1.699085             0.00771901497            0.000447238657           
       1.701726             0.00945338946            0.000476787867           
       1.704366             0.00899976558            0.000490083698           
       1.707007             0.00869191955            0.000470892838           
       1.709647             0.00889043898            0.000481618185           
       1.712287             0.00902373316             0.00048943863           
       1.714928             0.00839039739            0.000475755576           
       1.717568             0.00889980902            0.000461568006           
       1.720209             0.00819327867            0.000463873422           
       1.722849             0.00884585873             0.00047951491           
       1.725489             0.00830484844            0.000465010213           
       1.728130             0.00855359491            0.000501521708           
       1.730770             0.00932795635            0.000497404117           
       1.733410              0.0079649971            0.000452405652           
       1.736051              0.0075206809            0.000442666042           
       1.738691             0.00837580479            0.000457685056           
       1.741332             0.00815873415            0.000464923804           
       1.743972             0.00827417648            0.000483497537           
       1.746612             0.00883339206            0.000479713761           
       1.749253             0.00942307845            0.000505251782           
       1.751893             0.00840879512            0.000473782243           
       1.754533             0.00853204297            0.000476796042           
       1.757174             0.00807478403            0.000459499956           
       1.759814             0.00793172672            0.000448508236           
       1.762455             0.00845981805            0.000471703716           
       1.765095             0.00904540157            0.000466598014           
       1.767735             0.00923947717            0.000486125191           
       1.770376             0.00847636153            0.000466844855           
       1.773016             0.00856596479            0.000466162329           
       1.775657              0.0092385641            0.000477152247           
       1.778297             0.00930166583            0.000474656305           
       1.780937             0.00869004122            0.000484248065           
       1.783578             0.00913318174              0.0004840283           
       1.786218              0.0084582485            0.000486113755           
       1.788858             0.00843831604            0.000461146448           
       1.791499             0.00924091129            0.000477159143           
       1.794139              0.0088219186            0.000462433714           
       1.796780             0.00866133984            0.000455996752           
       1.799420             0.00899054405            0.000462009065           
       1.802060               0.010183049            0.000495667293           
       1.804701             0.00940048491             0.00045702221           
       1.807341             0.00900313103            0.000469971791           
       1.809981              0.0094636033            0.000483446941           
       1.812622             0.00962576882            0.000478793582           
       1.815262             0.00931175968            0.000480922707           
       1.817903             0.00947517413            0.000477936246           
       1.820543             0.00920099055            0.000478309233           
       1.823183             0.00940948218            0.000483432135           
       1.825824             0.00910492191            0.000454315537           
       1.828464             0.00901708562            0.000471353404           
       1.831105              0.0085837825            0.000447173929           
       1.833745             0.00866853749            0.000458973483           
       1.836385             0.00956858816            0.000495974262           
       1.839026             0.00830426748            0.000460586888           
       1.841666             0.00877117642            0.000471679622           
       1.844306             0.00902862433            0.000465494311           
       1.846947             0.00880561967            0.000463739265           
       1.849587             0.00785982038            0.000483798642           
       1.852228              0.0089091656            0.000465762282           
       1.854868             0.00895528714            0.000493280854           
       1.857508             0.00851765976            0.000476358703           
       1.860149             0.00897893873            0.000497973407           
       1.862789             0.00877325175              0.0004751222           
       1.865429             0.00843177178            0.000486207099           
       1.868070             0.00988407133             0.00051940067           
       1.870710             0.00928829941             0.00049189564           
       1.873351             0.00873584037            0.000482939993           
       1.875991             0.00848814924            0.000483813398           
       1.878631             0.00837188325            0.000471286053           
       1.881272             0.00818100622            0.000462760924           
       1.883912             0.00881528393            0.000499920381           
       1.886553             0.00807018447             0.00047297878           
       1.889193              0.0080321033            0.000471055274           
       1.891833             0.00886807301            0.000514037339           
       1.894474             0.00872828348            0.000505528476           
       1.897114             0.00922881934            0.000503020457           
       1.899754             0.00957692608            0.000514563499           
       1.902395             0.00863075987            0.000478933642           
       1.905035             0.00895258844             0.00051664214           
       1.907676              0.0101169544            0.000517634399           
       1.910316             0.00903170786            0.000502069689           
       1.912956             0.00921040338            0.000495857844           
       1.915597             0.00811500116            0.000468039612           
       1.918237             0.00866540023            0.000499494423           
       1.920878             0.00967180053            0.000525543294           
       1.923518             0.00854124429            0.000494082686           
       1.926158             0.00938141241            0.000511093878           
       1.928799             0.00807467982            0.000468676113           
       1.931439             0.00975465269            0.000528640393           
       1.934079             0.00849504565            0.000514284116           
       1.936720               0.008259577             0.00046984888           
       1.939360             0.00779119389             0.00048684303           
       1.942001              0.0080028082            0.000452235761           
       1.944641             0.00884382368            0.000484769401           
       1.947281             0.00876993748            0.000478290482           
       1.949922             0.00855887708            0.000488050786           
       1.952562             0.00864053305            0.000505744442           
       1.955202              0.0087976525             0.00050969989           
       1.957843             0.00808500865            0.000475948833           
       1.960483              0.0081355966            0.000499158194           
       1.963124             0.00828884293            0.000493501025           
       1.965764             0.00859424785            0.000473881369           
       1.968404              0.0076648706            0.000443297437           
       1.971045             0.00775647291            0.000454657726           
       1.973685             0.00895618772            0.000512458393           
       1.976326             0.00906746995            0.000508545548           
       1.978966             0.00880625961            0.000505565248           
       1.981606             0.00816074458            0.000496833301           
       1.984247             0.00832029975            0.000498368505           
       1.986887             0.00739699402            0.000464274664           
       1.989527             0.00774542718            0.000469967241           
       1.992168             0.00806721509            0.000497657207           
       1.994808             0.00788737024            0.000489969395           
       1.997449             0.00729627896            0.000461574491           
       2.000089             0.00843506428            0.000494322098           
       2.002729             0.00832073123             0.00049125487           
       2.005370             0.00862001398            0.000494631659           
       2.008010             0.00754393628            0.000482924276           
       2.010650             0.00737193616            0.000480949434           
       2.013291             0.00782595667            0.000475441711           
       2.015931              0.0081850679            0.000482790615           
       2.018572             0.00749341339            0.000494090735           
       2.021212             0.00815557806             0.00050619802           
       2.023852             0.00764350189            0.000463808027           
       2.026493             0.00828062044            0.000504319689           
       2.029133             0.00757281301            0.000472578769           
       2.031774             0.00858874998            0.000528182268           
       2.034414             0.00786182616            0.000464979659           
       2.037054             0.00800423321            0.000481063989           
       2.039695             0.00865722101            0.000496523432           
       2.042335              0.0084225822            0.000508956219           
       2.044975              0.0085855786            0.000507625676           
       2.047616             0.00755470959            0.000474993347           
       2.050256              0.0079637967            0.000492299471           
       2.052897              0.0076962506            0.000492881424           
       2.055537             0.00819195356            0.000491452293           
       2.058177             0.00853406774            0.000491210864           
       2.060818             0.00706737875            0.000468279608           
       2.063458             0.00852478788            0.000535953328           
       2.066098             0.00855018122            0.000506335972           
       2.068739             0.00766601942            0.000486894445           
       2.071379             0.00770791427            0.000500956087           
       2.074020             0.00819429434            0.000505294418           
       2.076660             0.00817211362             0.00050868932           
       2.079300             0.00737019525             0.00049492311           
       2.081941             0.00810596625            0.000475240034           
       2.084581             0.00770105993            0.000488931623           
       2.087222             0.00747697465            0.000464616923           
       2.089862             0.00718280421            0.000495984166           
       2.092502             0.00788794928            0.000503833118           
       2.095143             0.00832204994             0.00053440779           
       2.097783             0.00769170622            0.000497416095           
       2.100423             0.00707557843            0.000459708645           
       2.103064              0.0080326474            0.000508247677           
       2.105704             0.00713407554             0.00047660477           
       2.108345             0.00743418251            0.000467421485           
       2.110985             0.00753247879            0.000502529658           
       2.113625             0.00685133829            0.000483452549           
       2.116266             0.00772348614            0.000520584398           
       2.118906             0.00795295804            0.000492309949           
       2.121546             0.00744111688            0.000467112113           
       2.124187             0.00774952769            0.000500381474           
       2.126827             0.00776067344            0.000506329825           
       2.129468             0.00744399089             0.00049715824           
       2.132108             0.00747979373            0.000484858941           
       2.134748             0.00809876608            0.000502564468           
       2.137389             0.00671752695            0.000477501549           
       2.140029             0.00711163704            0.000439849953           
       2.142670             0.00726534027            0.000475129836           
       2.145310             0.00780422805            0.000479296234           
       2.147950             0.00723620032            0.000475034012           
       2.150591             0.00774509443            0.000486487222           
       2.153231             0.00691423859            0.000473141476           
       2.155871             0.00812869302            0.000495605623           
       2.158512              0.0072998018            0.000490054451           
       2.161152             0.00667040043            0.000453771477           
       2.163793             0.00749774656            0.000478924502           
       2.166433             0.00895776235            0.000537560486           
       2.169073             0.00760436391            0.000484262556           
       2.171714             0.00766000982            0.000482397839           
       2.174354             0.00740689443             0.00049566319           
       2.176995             0.00753832803            0.000497937511           
       2.179635             0.00758069055            0.000527654516           
       2.182275             0.00794803537            0.000510117426           
       2.184916             0.00740173807            0.000475472988           
       2.187556             0.00721316425            0.000464672611           
       2.190196             0.00796011585            0.000510099092           
       2.192837             0.00754091623            0.000493784605           
       2.195477              0.0073783189            0.000465661995           
       2.198118             0.00723912015            0.000473067328           
       2.200758             0.00725346205            0.000485818894           
       2.203398              0.0075794755            0.000499793717           
       2.206039             0.00713187329            0.000458833159           
       2.208679             0.00760061698            0.000484695327           
       2.211319             0.00689826072             0.00046442026           
       2.213960             0.00769009654            0.000496921097           
       2.216600             0.00752143245            0.000508385262           
       2.219241             0.00662749243            0.000456091956           
       2.221881              0.0073107589            0.000480010837           
       2.224521             0.00712696318            0.000479746158           
       2.227162             0.00775591074            0.000490446711           
       2.229802             0.00739227267            0.000493800023           
       2.232443             0.00774445859            0.000497454042           
       2.235083             0.00793811285            0.000518491052           
       2.237723             0.00794725284             0.00049785381           
       2.240364             0.00711354175            0.000482620499           
       2.243004             0.00631432922             0.00045107189           
       2.245644             0.00734641556            0.000491411513           
       2.248285             0.00678632693             0.00046284592           
       2.250925             0.00793127045            0.000503408582           
       2.253566             0.00789324946             0.00053689079           
       2.256206             0.00649425957            0.000477255697           
       2.258846             0.00739031712            0.000484311363           
       2.261487             0.00777287524            0.000521320494           
       2.264127             0.00819377544            0.000516935148           
       2.266767              0.0071427044            0.000495501202           
       2.269408              0.0069061867            0.000489223539           
       2.272048             0.00630658395            0.000464713354           
       2.274689             0.00829213766            0.000539891323           
       2.277329             0.00710605049            0.000470584146           
       2.279969             0.00852510593            0.000548649945           
       2.282610             0.00804656798            0.000518203954           
       2.285250             0.00726990597            0.000471447544           
       2.287891              0.0066411976            0.000483112342           
       2.290531              0.0067520259            0.000493675045           
       2.293171             0.00675582599            0.000481019439           
       2.295812             0.00669389322            0.000476884882           
       2.298452             0.00627471702            0.000482828137           
       2.301092             0.00725614602            0.000482415949           
       2.303733             0.00679819805            0.000485785726           
       2.306373              0.0063444715            0.000476685301           
       2.309014             0.00698201753            0.000490307652           
       2.311654             0.00751296949            0.000530757599           
       2.314294             0.00799410227            0.000504403473           
       2.316935             0.00663954564            0.000461586349           
       2.319575             0.00732644703            0.000508037582           
       2.322215             0.00741104072            0.000532508823           
       2.324856             0.00725950002            0.000484555258           
       2.327496             0.00694871219            0.000504084862           
       2.330137             0.00658996485            0.000469754587           
       2.332777             0.00715181747             0.00050459305           
       2.335417             0.00713385515            0.000488915572           
       2.338058             0.00714644968            0.000503964826           
       2.340698             0.00784298576            0.000523804742           
       2.343339             0.00888026275            0.000569632864           
       2.345979             0.00693297439            0.000476178274           
       2.348619             0.00671399099            0.000485726627           
       2.351260              0.0074240414            0.000507789857           
       2.353900             0.00745525152            0.000507244142           
       2.356540             0.00719478493            0.000497597133           
       2.359181             0.00759179506            0.000503975618           
       2.361821             0.00718757988            0.000473689518           
       2.364462             0.00704453875             0.00049046548           
       2.367102             0.00699516479            0.000502262294           
       2.369742             0.00739205574            0.000543456541           
       2.372383             0.00724525135            0.000487187576           
       2.375023             0.00684742404            0.000497880751           
       2.377663             0.00729041551            0.000491204635           
       2.380304             0.00773700164            0.000514463174           
       2.382944             0.00785539666             0.00049374483           
       2.385585             0.00621147615            0.000468256473           
       2.388225             0.00779805501            0.000522196535           
       2.390865             0.00737708104            0.000502688409           
       2.393506             0.00678809339            0.000473106318           
       2.396146             0.00755880404            0.000539803316           
       2.398787             0.00676787545            0.000470724817           
       2.401427             0.00765160769             0.00048311255           
       2.404067              0.0067618581            0.000464286159           
       2.406708             0.00734781945            0.000478181283           
       2.409348              0.0062258088            0.000466876486           
       2.411988             0.00729928636             0.00049530458           
       2.414629             0.00689660488             0.00049644263           
       2.417269              0.0069859085            0.000505479999           
       2.419910               0.007358487            0.000519988077           
       2.422550             0.00726856913            0.000494443604           
       2.425190             0.00684982725             0.00050595949           
       2.427831             0.00762179843            0.000530709006           
       2.430471             0.00692168216            0.000481821975           
       2.433112             0.00693097615             0.00046949464           
       2.435752             0.00658764556            0.000484409169           
       2.438392             0.00763064314            0.000503207474           
       2.441033             0.00704680785            0.000512490984           
       2.443673             0.00698317295            0.000510563969           
       2.446313             0.00731848165            0.000523138886           
       2.448954             0.00775685876            0.000512802535           
       2.451594             0.00653924888            0.000506260463           
       2.454235             0.00658064134            0.000476502544           
       2.456875             0.00770054886            0.000539352163           
       2.459515             0.00799592853             0.00056382679           
       2.462156             0.00776628303            0.000524630971           
       2.464796             0.00687690769            0.000487308897           
       2.467436             0.00805180833            0.000545285969           
       2.470077             0.00775653331            0.000507267009           
       2.472717             0.00795711313            0.000516009577           
       2.475358             0.00897570393            0.000553756996           
       2.477998             0.00785148993            0.000509186643           
       2.480638             0.00806318596            0.000525174404           
       2.483279             0.00773736275            0.000537686619           
       2.485919             0.00727212752            0.000502363706           
       2.488560             0.00707037168            0.000493961897           
       2.491200             0.00695546886            0.000504500164           
       2.493840              0.0065926111            0.000519716201           
       2.496481             0.00724523357            0.000535921113           
       2.499121             0.00640910912            0.000490268996           
       2.501761             0.00670037074            0.000507927133           
       2.504402             0.00765553772            0.000534992904           
       2.507042              0.0074857125            0.000525106684           
       2.509683             0.00778116452            0.000527186753           
       2.512323              0.0069630927            0.000523763611           
       2.514963             0.00694582958            0.000516651148           
       2.517604              0.0066571429            0.000524845833           
       2.520244             0.00737767755            0.000517988087           
       2.522884             0.00968431429             0.00060195109           
       2.525525              0.0099915423            0.000618364567           
       2.528165             0.00748496469            0.000526866085           
       2.530806             0.00817860811            0.000560337522           
       2.533446             0.00741898177            0.000522290436           
       2.536086             0.00798022853            0.000536837672           
       2.538727             0.00704128452            0.000483768337           
       2.541367             0.00734494402            0.000498956647           
       2.544008             0.00693724907            0.000500794895           
       2.546648             0.00691989297            0.000508747267           
       2.549288             0.00697298478            0.000521101021           
       2.551929             0.00749730807            0.000531724599           
       2.554569             0.00702923114            0.000496023185           
       2.557209             0.00719873712            0.000506578183           
       2.559850             0.00662794322            0.000487640863           
       2.562490             0.00685754211            0.000512658293           
       2.565131             0.00717264476             0.00054362229           
       2.567771             0.00746877701            0.000534843856           
       2.570411             0.00757078347             0.00053265752           
       2.573052              0.0070661217             0.00052107878           
       2.575692             0.00705869772            0.000517651241           
       2.578332             0.00681124669            0.000510599622           
       2.580973             0.00675875809            0.000503789001           
       2.583613             0.00654388082            0.000483912519           
       2.586254             0.00692659684            0.000497170254           
       2.588894             0.00754347304            0.000538787352           
       2.591534             0.00693108444            0.000534627627           
       2.594175             0.00602630741            0.000489105736           
       2.596815             0.00634472538            0.000504820192           
       2.599456             0.00730538888            0.000513683477           
       2.602096             0.00663529501            0.000493283572           
       2.604736             0.00783637758            0.000548784814           
       2.607377             0.00734535813            0.000517311707           
       2.610017             0.00776571779            0.000522599919           
       2.612657             0.00720945664            0.000535585572           
       2.615298             0.00728785792            0.000525735531           
       2.617938             0.00784790768            0.000583612199           
       2.620579             0.00703215462            0.000530344754           
       2.623219             0.00749222719            0.000546638257           
       2.625859             0.00724431852            0.000522618639           
       2.628500             0.00662261593            0.000496415018           
       2.631140             0.00728688682            0.000528739611           
       2.633780             0.00666420429            0.000505204582           
       2.636421             0.00756172983            0.000551384599           
       2.639061             0.00740774671            0.000513753055           
       2.641702             0.00726713221            0.000520633916           
       2.644342             0.00702961884            0.000514237092           
       2.646982             0.00660952914            0.000491180536           
       2.649623             0.00836567528            0.000579096623           
       2.652263              0.0076472317            0.000548116042           
       2.654904             0.00630080813            0.000498029663           
       2.657544             0.00736046593            0.000507005669           
       2.660184             0.00726992259            0.000533249234           
       2.662825             0.00769087292            0.000561194786           
       2.665465             0.00746621878            0.000534781785           
       2.668105             0.00770375383            0.000572576943           
       2.670746             0.00773666204            0.000530067526           
       2.673386              0.0106911057            0.000642166252           
       2.676027              0.0110355962            0.000641959176           
       2.678667             0.00950268627            0.000581261118           
       2.681307                0.01173417             0.00063464661           
       2.683948               0.014951241            0.000736048847           
       2.686588              0.0108733366            0.000617286641           
       2.689229              0.0101869703            0.000583838949           
       2.691869             0.00891916814            0.000577386797           
       2.694509             0.00888153668             0.00057648406           
       2.697150              0.0081921668            0.000544676781           
       2.699790             0.00794461699            0.000562321745           
       2.702430             0.00691110566            0.000501332017           
       2.705071             0.00695666485            0.000519736699           
       2.707711             0.00640853652            0.000484162722           
       2.710352             0.00702079313            0.000535458667           
       2.712992             0.00728217743            0.000555418412           
       2.715632             0.00667558036            0.000493388788           
       2.718273             0.00668851421            0.000511826186           
       2.720913             0.00669164719            0.000510489391           
       2.723553              0.0069516133            0.000523802032           
       2.726194             0.00745965252            0.000567200926           
       2.728834             0.00677240293            0.000540695476           
       2.731475               0.007791964            0.000535260569           
       2.734115             0.00742802147            0.000538830223           
       2.736755             0.00700214885            0.000527461788           
       2.739396             0.00686312786            0.000519173868           
       2.742036             0.00705963122             0.00055107203           
       2.744677             0.00679317699            0.000524504195           
       2.747317             0.00658619855            0.000512769255           
       2.749957             0.00763519425            0.000555970531           
       2.752598             0.00789488696            0.000571481923           
       2.755238             0.00675333993             0.00053809495           
       2.757878             0.00779871232            0.000573188175           
       2.760519             0.00848580875            0.000591565557           
       2.763159             0.00782734186            0.000562472858           
       2.765800             0.00778450859            0.000534559205           
       2.768440              0.0081918187            0.000552405569           
       2.771080               0.008972789            0.000582963904           
       2.773721             0.00705017242            0.000530076924           
       2.776361             0.00745565199            0.000552627398           
       2.779001             0.00697102727             0.00055338908           
       2.781642             0.00688227653            0.000545802933           
       2.784282              0.0072707867            0.000570221962           
       2.786923             0.00687036271            0.000559178166           
       2.789563             0.00644286021            0.000521529621           
       2.792203             0.00695783856            0.000517737965           
       2.794844             0.00730206545            0.000581299274           
       2.797484             0.00691007624            0.000533676496           
       2.800125             0.00632347985            0.000536814389           
       2.802765             0.00619902336            0.000522361751           
       2.805405              0.0067280948            0.000546038443           
       2.808046             0.00664184962            0.000552064787           
       2.810686               0.007119713            0.000525215245           
       2.813326             0.00736421006             0.00055484201           
       2.815967              0.0076951267            0.000583297473           
       2.818607             0.00740048919            0.000545865412           
       2.821248             0.00709589979            0.000523417005           
       2.823888              0.0069869054            0.000539131219           
       2.826528             0.00683683182            0.000516484111           
       2.829169              0.0065941284            0.000531299013           
       2.831809             0.00607050409            0.000516702096           
       2.834449             0.00600706884            0.000517243601           
       2.837090             0.00659136941            0.000523308111           
       2.839730             0.00633407274            0.000510488019           
       2.842371             0.00659546964            0.000521666845           
       2.845011             0.00687115322             0.00053670201           
       2.847651              0.0062706015            0.000513341126           
       2.850292             0.00693661427            0.000545213594           
       2.852932             0.00728203565            0.000570797908           
       2.855573             0.00622389124            0.000511883732           
       2.858213             0.00719626899            0.000578007512           
       2.860853             0.00726853104            0.000540372615           
       2.863494              0.0080971055            0.000590508956           
       2.866134             0.00706786569            0.000573427394           
       2.868774             0.00600915513            0.000519641644           
       2.871415             0.00746131208             0.00058805435           
       2.874055             0.00749365076            0.000563323656           
       2.876696             0.00728104865            0.000570294553           
       2.879336             0.00810011777            0.000579746763           
       2.881976             0.00746357748            0.000573992733           
       2.884617             0.00731606337            0.000559945842           
       2.887257             0.00727499484            0.000561254081           
       2.889897              0.0072225749            0.000547718897           
       2.892538             0.00672795003            0.000579117788           
       2.895178             0.00695991265             0.00053213711           
       2.897819             0.00613278527            0.000509555378           
       2.900459             0.00678595487            0.000525576984           
       2.903099             0.00729614517            0.000539397816           
       2.905740              0.0070036398            0.000542147699           
       2.908380             0.00729935819            0.000559763819           
       2.911021             0.00746303426            0.000575207243           
       2.913661             0.00703645343            0.000558358852           
       2.916301             0.00665563948            0.000543557328           
       2.918942             0.00677460201            0.000524551935           
       2.921582             0.00760822938             0.00058162047           
       2.924222             0.00814299979            0.000582945113           
       2.926863             0.00693086365            0.000560191524           
       2.929503             0.00699296659             0.00056936218           
       2.932144             0.00684532654            0.000540752505           
       2.934784             0.00623325613            0.000507549877           
       2.937424             0.00773566091             0.00057122346           
       2.940065             0.00761701163            0.000540698288           
       2.942705              0.0068978699            0.000513895698           
       2.945346             0.00750838349            0.000568996598           
       2.947986             0.00653299505            0.000541184578           
       2.950626             0.00687286765             0.00055195808           
       2.953267             0.00818927778            0.000592769108           
       2.955907             0.00647072975            0.000546600425           
       2.958547             0.00729058396             0.00054773449           
       2.961188             0.00510258374            0.000478062363           
       2.963828             0.00800700451            0.000585794725           
       2.966469             0.00722529923            0.000545890848           
       2.969109             0.00785932142            0.000577773943           
       2.971749             0.00713183543            0.000546950872           
       2.974390             0.00714981399            0.000538156359           
       2.977030             0.00818135185            0.000588535257           
       2.979670             0.00864832194            0.000588574526           
       2.982311             0.00856093881            0.000606938178           
       2.984951             0.00740151353            0.000536740938           
       2.987592             0.00754061395            0.000552612111           
       2.990232             0.00687243521            0.000548657365           
       2.992872             0.00787505787            0.000553219666           
       2.995513             0.00825668702            0.000554189941           
       2.998153               0.010721563            0.000642126894           
       3.000794              0.0121588934            0.000662345398           
       3.003434              0.0130088857            0.000686140072           
       3.006074              0.0567794179             0.00141337727           
       3.008715               0.131119768             0.00207331425           
       3.011355               0.158617788             0.00219902178           
       3.013995              0.0781228612              0.0015474715           
       3.016636              0.0557629444             0.00128024834           
       3.019276               0.120923976             0.00185319922           
       3.021917               0.497072059             0.00361282367           
       3.024557                 1.8181585             0.00679333355           
       3.027197                1.09180641             0.00513240664           
       3.029838               0.503321702             0.00353417511           
       3.032478               0.261128767             0.00254820259           
       3.035118              0.0737220043             0.00137212269           
       3.037759               0.105365717             0.00163826196           
       3.040399               0.154966421               0.002049426           
       3.043040               0.569167875              0.0039758004           
       3.045680               0.377454352             0.00304621645           
       3.048320              0.0742394175             0.00138036197           
       3.050961               0.112606301             0.00172998679           
       3.053601               0.086473604             0.00146010531           
       3.056242              0.0614749525             0.00130891534           
       3.058882              0.0553369189             0.00133213876           
       3.061522               0.042995916               0.001152066           
       3.064163              0.0518200695             0.00124884696           
       3.066803               0.115051033             0.00195904784           
       3.069443               0.111838638             0.00202084846           
       3.072084               0.043148461             0.00122225099           
       3.074724              0.0431912424             0.00136565176           
       3.077365               0.084789499             0.00198073667           
       3.080005              0.0142105828            0.000815484346           
       3.082645              0.0115965008            0.000773889375           
       3.085286              0.0139428219            0.000855270968           
       3.087926              0.0110092492            0.000754131532           
       3.090566              0.0116934555            0.000761518079           
       3.093207              0.0106858731            0.000757528655           
       3.095847             0.00837385216            0.000642749686           
       3.098488             0.00846836203            0.000716709982           
       3.101128             0.00859475316            0.000726682146           
       3.103768             0.00945526634            0.000747852954           
       3.106409             0.00815983867            0.000739386512           
       3.109049             0.00788935582            0.000697693365           
       3.111690             0.00826299761            0.000701766166           
       3.114330             0.00773972036            0.000693630565           
       3.116970             0.00826056105            0.000722090718           
       3.119611              0.0143740256              0.0010138996           
       3.122251              0.0208578919              0.0012775755           
       3.124891              0.0362171005             0.00169916209           
       3.127532              0.0226706125             0.00131515729           
       3.130172              0.0124314117            0.000990709985           
       3.132813             0.00853702131            0.000808239375           
       3.135453             0.00719954088            0.000736117326           
       3.138093             0.00687129007            0.000779214235           
       3.140734             0.00586309839            0.000664054837           
       3.143374             0.00613729636            0.000718500766           
       3.146014             0.00700222818            0.000826207719           
       3.148655             0.00606381336            0.000714721239           
       3.151295             0.00669569329            0.000800347721           
       3.153936             0.00660857851            0.000768065985           
       3.156576             0.00660864289            0.000757622412           
       3.159216             0.00472369537            0.000643731041           
       3.161857             0.00529970989            0.000679076136           
       3.164497             0.00880419025            0.000919646163           
       3.167138             0.00758248071            0.000881829509           
       3.169778             0.00672749327            0.000816928036           
       3.172418             0.00591461442            0.000758193899           
       3.175059             0.00724461511             0.00074391652           
       3.177699              0.0052022104            0.000667546698           
       3.180339             0.00579773072            0.000755053041           
       3.182980              0.0079690649            0.000915229438           
       3.185620             0.00665962173            0.000852071056           
       3.188261             0.00677275596            0.000874612242           
       3.190901              0.0065850842            0.000793166394           
       3.193541             0.00620555064            0.000809052771           
       3.196182             0.00641082867            0.000856981164           
       3.198822             0.00503775234             0.00075993796           
       3.201463             0.00575488736              0.0007982348           
       3.204103             0.00690299948            0.000868922001           
       3.206743              0.0045961824            0.000708956741           
       3.209384             0.00561146471            0.000846349375           
       3.212024             0.00566224941            0.000792625596           
       3.214664               0.006030619            0.000930185196           
       3.217305              0.0064684684            0.000915741479           
       3.219945             0.00577538486             0.00089060867           
       3.222586             0.00635564501            0.000889884575           
       3.225226             0.00612685761            0.000969257314           
       3.227866             0.00665048868             0.00092297172           
       3.230507             0.00535847463            0.000858810344           
       3.233147             0.00658815451            0.000959956045           
       3.235787             0.00761207116             0.00105598003           
       3.238428             0.00647455635             0.00105094907           
       3.241068             0.00580722715            0.000930670093           
       3.243709             0.00637432057             0.00100738486           
       3.246349             0.00568448649            0.000867211806           
       3.248989             0.00554397894             0.00101124957           
       3.251630             0.00632543025             0.00104017541           
       3.254270             0.00601514955             0.00090654744           
       3.256911             0.00747576509               0.001102717           
       3.259551             0.00548241917             0.00101665213           
       3.262191             0.00313138554            0.000784822897           
       3.264832             0.00535626177             0.00107247781           
       3.267472              0.0046990756            0.000942358715           
       3.270112             0.00503817394             0.00107834809           
       3.272753             0.00638735375             0.00111136743           
       3.275393             0.00766321376             0.00124208445           
       3.278034             0.00538263681             0.00104156802           
       3.280674             0.00332022566             0.00088768567           
       3.283314             0.00302072956              0.0007572529           
       3.285955             0.00588780808             0.00109081005           
       3.288595             0.00552948488             0.00117605947           
       3.291235             0.00552060153             0.00120800755           
       3.293876             0.00624572632             0.00130335968           
       3.296516             0.00498919728             0.00111832884           
       3.299157              0.0063496278             0.00124576686           
       3.301797             0.00476358395             0.00123082188           
       3.304437             0.00453642938               0.001040625           
       3.307078             0.00574739527             0.00129027267           
       3.309718             0.00617335459              0.0013802631           
       3.312359             0.00555360538             0.00130945907           
       3.314999             0.00388368946             0.00107814827           
       3.317639             0.00549748255             0.00122678187           
       3.320280             0.00555214251             0.00131079052           
       3.322920             0.00700628461             0.00149725455           
       3.325560             0.00541477079             0.00131715457           
       3.328201             0.00466093412             0.00110058864           
       3.330841             0.00766210775             0.00171741622           
       3.333482             0.00618087092              0.0014580203           
       3.336122             0.00238480227            0.000906075758           
       3.338762             0.00413198774             0.00137771076           
       3.341403             0.00375694288             0.00125529186           
       3.344043             0.00766613125             0.00172156761           
       3.346683             0.00442310677             0.00133502911           
       3.349324             0.00355764556             0.00134617581           
       3.351964             0.00511450888             0.00170681901           
       3.354605             0.00295706768             0.00148426124           
       3.357245             0.00359847318             0.00147705479           
       3.359885             0.00702358289             0.00165159059           
       3.362526             0.00180736516             0.00104771758           
       3.365166             0.00590046015             0.00178552136           
       3.367807             0.00352824312             0.00176702365           
       3.370447             0.00363182886             0.00148713167           
       3.373087             0.00622165726             0.00208145504           
       3.375728             0.00704427496             0.00249960492           
       3.378368             0.00183883699              0.0018953732           
       3.381008             0.00322290938             0.00187079114           
       3.383649             0.00416201544             0.00170544437           
       3.386289             0.00587614325             0.00239834935           
       3.388930           -2.61689053e-05                         0           
       3.391570             0.00487421128             0.00244412963           
       3.394210             0.00790855412             0.00393994876           
       3.396851             0.00972931126               0.004888289           
       3.399491             0.00717671217             0.00419952992           
       3.402131              0.0144085685              0.0084186959           
       3.404772           -2.62914649e-05                         0           
       3.407412                       nan                       nan           
       3.410053             0.00920974571             0.00953261777           
       3.412693                       nan                       nan           
       3.415333             0.00894731072             0.00940479185           
