################################################################################
# EDF_DataBlockID                     0.Image.Psd
# EDF_BinarySize                      4366944
# EDF_HeaderSize                      2560
# ByteOrder                           LowByteFirst
# DataType                            FloatValue
# Dim_1                               1028
# Dim_2                               1062
# Image                               0
# HeaderID                            EH:000000:000000:000000
# Size                                4366944
# Center_1                            607.5200
# Center_2                            651.5500
# Comment                             Xenocs_Cell_Window - 20251028_20perc_iodine_1.23mg
# DDummy                              0.6
# Date                                2025-10-31T19:28:22
# Delta                               0
# Dummy                               -1.5
# ExposureTime                        360
# Gamma                               0
# Intensity1                          8.60155e-10
# PSize_1                             7.5e-05
# PSize_2                             7.5e-05
# Pressure                            0.0327101
# SampleDistance                      0.450002
# SampleEnvKind                       large
# SampleEnvPN                         ElectroChemical cell
# SampleEnvSN                         1141
# Thickness                           0
# Wavelength                          1.541891e-10
# Wavelength                          1.54189e-10
# aux                                 0
# aux_dial                            0.002375
# beamx                               588.434
# beamx_dial                          588.434
# beamz                               657.808
# beamz_dial                          657.808
# det0x                               0
# det0x_dial                          6.36945
# det0xvd                             0
# det0xvd_dial                        0
# det0y                               450.002
# det0y_dial                          481.635
# det0z                               0
# det0z_dial                          1.23302
# det0zvd                             0
# det0zvd_dial                        0
# mag                                 1.818
# mag_dial                            1.818
# om                                  0.2499
# om_dial                             -0.610199
# phi                                 -0.0120535
# phi_dial                            0
# ry                                  0.599993
# ry_dial                             0.599993
# s1bot                               0.8
# s1bot_dial                          -1.66094
# s1hl                                0.8
# s1hl_dial                           -0.608437
# s1hr                                0.8
# s1hr_dial                           0.970938
# s1top                               0.8
# s1top_dial                          -0.461562
# s2bot                               0.45
# s2bot_dial                          1.36109
# s2hl                                0.45
# s2hl_dial                           -0.83375
# s2hr                                0.45
# s2hr_dial                           -0.118594
# s2top                               0.45
# s2top_dial                          1.44734
# w2theta                             32
# w2theta_dial                        32
# waxsch                              19.2605
# waxsch_dial                         -32.7355
# waxsh                               137.085
# waxsh_dial                          -43.5338
# waxsth                              26.0607
# waxsth_dial                         -19.4086
# waxsz                               67.0407
# waxsz_dial                          -23.7954
# wind                                65.9854
# wind_dial                           66.0041
# wpsi                                124
# wpsi_dial                           124
# wstod                               115
# wstod_dial                          115
# x                                   0
# x_dial                              1.00969
# z                                   0
# z_dial                              13.3172
# CountCutoff                         15302352
# DetectorModel                       Dectris EIGER2 Si 1M, S/N E-02-0362
# ThresholdSetting                    4023.88989258
# Saturation                          0
# FlatField                           Corrected
# BackgroundReductionExtra            0.02
# BackgroundCorrectionConstant        0.0026712
# Detector                            0
# Monitor                             0
# Pil_Roi0                            0
# SumForIntensity1                    3.09656e+08
# TransmittedFlux                     860155
# det                                 0
# mon                                 0
# pilai0                              3.09656e+08
# pilai1                              778304
# pilct0                              5.35567e+08
# pilct1                              778304
# pilroi0                             0
# pilroi1                             0
# sec                                 1
# title                               20251028_20perc_iodine_1.23mg_0_00701.edf
# usaxs0                              0
# Operation                           Azimuthal average I(q)
# Error_model                         ErrorModel.poisson
# Geometrical_correction              True
# Transmission_correction             True
# Thickness_correction                False
# Binning mode                        Uniform
# Binning factor                      1.0
# Psi                                 0.0
# Omega                               0.2499
# MaskInvalidPixels                   True
# DetectorEdge                        3
# MaskFiles                           ['20251028_20perc_iodine_1.23mg_0_00012_mask.edf']
################################################################################
    q(A⁻¹)                Intensity(a.u.)            Sigma_I(a.u.)            
       0.000340                  373564.2                120.319377           
       0.001019                360095.972                72.3398709           
       0.001698                350161.444                50.4414773           
       0.002377                331093.513                43.8706445           
       0.003056                307684.818                35.7427338           
       0.003735                253295.779                28.6006935           
       0.004415                204491.538                25.6980614           
       0.005094                152552.524                19.2222024           
       0.005773                100561.454                14.4489395           
       0.006452                58474.0616                10.5567709           
       0.007131                32304.4392                7.60131949           
       0.007810                16304.2881                5.35912276           
       0.008490                8238.92153                 3.3768402           
       0.009169                4018.92046                2.33088417           
       0.009848                1247.67891                1.25566264           
       0.010527                483.965761               0.782040306           
       0.011206                121.708839               0.374297035           
       0.011885                55.7517871               0.235370913           
       0.012564                25.2402786               0.162593147           
       0.013244                 16.900306               0.124383399           
       0.013923                12.2824403               0.107747482           
       0.014602                9.24411408              0.0866926688           
       0.015281                7.46498559              0.0793036334           
       0.015960                6.02544782              0.0707374161           
       0.016639                5.02590693              0.0610065363           
       0.017319                 4.0713985              0.0540547335           
       0.017998                3.27667605               0.046392742           
       0.018677                 2.9770784              0.0458008537           
       0.019356                2.53746381              0.0417808691           
       0.020035                2.09753697              0.0356390084           
       0.020714                 1.8862463               0.034154052           
       0.021394                1.58425927              0.0296159738           
       0.022073                1.41557648              0.0291265413           
       0.022752                1.22402686              0.0259090356           
       0.023431                1.07841619              0.0236062101           
       0.024110               0.979380741              0.0234539263           
       0.024789               0.868129662              0.0205074789           
       0.025469               0.798361121              0.0202661725           
       0.026148               0.771980649              0.0187244982           
       0.026827               0.639603525              0.0173163863           
       0.027506                0.65132587              0.0177263383           
       0.028185               0.552993093              0.0155763621           
       0.028864               0.541102454              0.0153215337           
       0.029544               0.474708644              0.0139162372           
       0.030223               0.457524424              0.0138579422           
       0.030902               0.430568368              0.0135665335           
       0.031581               0.371229615              0.0119748799           
       0.032260               0.373796536              0.0122209538           
       0.032939               0.315628354              0.0108280603           
       0.033619               0.291474595              0.0105584284           
       0.034298               0.277429719               0.010024451           
       0.034977                0.25920012             0.00949908825           
       0.035656                0.24627624             0.00950429975           
       0.036335               0.222688826             0.00876543958           
       0.037014               0.202552637             0.00838468893           
       0.037693               0.203184479             0.00807853098           
       0.038373               0.188511705              0.0078577358           
       0.039052               0.174796427             0.00759868439           
       0.039731               0.169654008             0.00731161604           
       0.040410               0.154944402             0.00694061115           
       0.041089               0.143919905             0.00658435812           
       0.041768               0.131789545             0.00633368651           
       0.042448               0.137303085             0.00641465298           
       0.043127               0.127394553             0.00603292944           
       0.043806               0.130443399             0.00615021154           
       0.044485               0.118206758             0.00573436557           
       0.045164               0.105578978             0.00552623366           
       0.045843               0.106683713             0.00532798636           
       0.046523               0.111257549             0.00545978929           
       0.047202               0.095070968             0.00508228861           
       0.047881               0.102512645             0.00517567763           
       0.048560              0.0958349388             0.00504987923           
       0.049239              0.0883154936             0.00465468581           
       0.049918              0.0913612489             0.00482681901           
       0.050598              0.0796701356             0.00443979188           
       0.051277              0.0818310271             0.00448532117           
       0.051956              0.0849322885             0.00454082897           
       0.052635              0.0836770072             0.00441149676           
       0.053314              0.0777700421             0.00437728133           
       0.053993              0.0812646142             0.00435182244           
       0.054673              0.0716973266             0.00399657895           
       0.055352              0.0767656623             0.00419617093           
       0.056031              0.0680338299             0.00386731691           
       0.056710              0.0700448456             0.00402021657           
       0.057389              0.0634495945             0.00368971585           
       0.058068              0.0656520335             0.00379189693           
       0.058748              0.0741091335             0.00407898617           
       0.059427              0.0670019822             0.00381280186           
       0.060106              0.0687167384             0.00389782907           
       0.060785              0.0570779442              0.0034459921           
       0.061464              0.0555054115             0.00348009995           
       0.062143              0.0549170662             0.00342644293           
       0.062822              0.0585053357             0.00349511195           
       0.063502              0.0601836154             0.00353855441           
       0.064181              0.0535991498             0.00330411576           
       0.064860              0.0470107663             0.00314152017           
       0.065539              0.0545346307             0.00335050093           
       0.066218              0.0559301068             0.00332044549           
       0.066897               0.047319095             0.00307773679           
       0.067577              0.0471331927             0.00310119542           
       0.068256              0.0534357637             0.00338314831           
       0.068935              0.0483064604             0.00316466644           
       0.069614              0.0499942476             0.00325152646           
       0.070293              0.0437626163             0.00307018987           
       0.070972              0.0463214345             0.00313554514           
       0.071652              0.0475771872             0.00318359123           
       0.072331              0.0450568809             0.00304290592           
       0.073010              0.0385106868             0.00287746549           
       0.073689              0.0400267247             0.00291743661           
       0.074368              0.0407429978              0.0029380713           
       0.075047              0.0417261753             0.00294135113           
       0.075727              0.0377012437             0.00277862357           
       0.076406              0.0369103723             0.00280418047           
       0.077085              0.0408519285             0.00289497524           
       0.077764              0.0401435282             0.00285970932           
       0.078443              0.0423082263             0.00295397709           
       0.079122              0.0402717164             0.00285431892           
       0.079802              0.0386363753             0.00282541624           
       0.080481              0.0372798747             0.00268175538           
       0.081160              0.0356669291             0.00267692585           
       0.081839              0.0334810465             0.00255207749           
       0.082518              0.0368620375             0.00268009149           
       0.083197              0.0368299387             0.00263729958           
       0.083876              0.0328530257             0.00244945548           
       0.084556              0.0326621404             0.00251025301           
       0.085235              0.0365655479             0.00260470388           
       0.085914              0.0359833175             0.00260898388           
       0.086593              0.0340019167               0.002519813           
       0.087272              0.0282979447             0.00226626866           
       0.087951               0.032653903             0.00248944537           
       0.088631              0.0308529752             0.00233740245           
       0.089310              0.0328529011             0.00246312605           
       0.089989              0.0283690056             0.00226211482           
       0.090668              0.0321004337             0.00243285152           
       0.091347              0.0323033359              0.0024541924           
       0.092026              0.0313237995              0.0023099711           
       0.092706               0.030782969             0.00237306088           
       0.093385              0.0327830546             0.00241133438           
       0.094064              0.0354544251             0.00253684149           
       0.094743              0.0262750353             0.00215060452           
       0.095422              0.0299096804             0.00226894896           
       0.096101               0.030525124             0.00233938186           
       0.096781              0.0294583295             0.00226523427           
       0.097460               0.024950137             0.00202784144           
       0.098139              0.0275051242             0.00211275781           
       0.098818              0.0286772244             0.00213073771           
       0.099497               0.030137197             0.00218878761           
       0.100176              0.0304990947              0.0021441009           
       0.100856              0.0271264514             0.00202078381           
       0.101535               0.027359763             0.00202554138           
       0.102214               0.025873115             0.00196975406           
       0.102893              0.0265593271             0.00197296559           
       0.103572              0.0263473021             0.00193604484           
       0.104251               0.025547953             0.00191349273           
       0.104931              0.0247543469             0.00186639067           
       0.105610              0.0250313847              0.0018848113           
       0.106289              0.0257083874             0.00187834206           
       0.106968              0.0243285618             0.00183266237           
       0.107647              0.0231398866             0.00178840319           
       0.108326              0.0272136126             0.00191350136           
       0.109005               0.023082891             0.00175121588           
       0.109685              0.0253491195             0.00181458378           
       0.110364              0.0244653572             0.00180291917           
       0.111043              0.0225504144             0.00172405996           
       0.111722              0.0267646741             0.00185530409           
       0.112401              0.0249888217             0.00179768269           
       0.113080              0.0235059508             0.00172354857           
       0.113760              0.0226147316             0.00171879592           
       0.114439              0.0227500911             0.00169932863           
       0.115118              0.0252717614             0.00177752805           
       0.115797              0.0240613699             0.00175050641           
       0.116476              0.0237445871             0.00171291804           
       0.117155              0.0242737682             0.00174586868           
       0.117835              0.0238802871              0.0016972355           
       0.118514              0.0204310625             0.00158979021           
       0.119193              0.0219797453             0.00164895499           
       0.119872              0.0234110442             0.00168051418           
       0.120551              0.0229821448             0.00165395815           
       0.121230              0.0214542133             0.00158195073           
       0.121910              0.0215704612             0.00160156126           
       0.122589              0.0218225961             0.00161255427           
       0.123268              0.0200468237             0.00151561052           
       0.123947              0.0199906624              0.0015232743           
       0.124626              0.0240073723             0.00164889902           
       0.125305              0.0214952077             0.00156790075           
       0.125985              0.0233045797             0.00161988932           
       0.126664              0.0227280576             0.00158448894           
       0.127343              0.0203334476             0.00151606789           
       0.128022              0.0201096347             0.00149613696           
       0.128701              0.0220009637             0.00155676075           
       0.129380              0.0240164717             0.00160613461           
       0.130059              0.0215444069             0.00152476188           
       0.130739               0.021566825             0.00153628309           
       0.131418              0.0206516552             0.00149912538           
       0.132097               0.021005001             0.00149250608           
       0.132776              0.0205611818             0.00146998754           
       0.133455              0.0226074486             0.00155337551           
       0.134134               0.017697046             0.00136998503           
       0.134814              0.0201372434             0.00144632995           
       0.135493              0.0231134115             0.00155579874           
       0.136172              0.0199986907             0.00143625385           
       0.136851              0.0192929699             0.00141888914           
       0.137530              0.0208242131             0.00143909862           
       0.138209              0.0225505731             0.00151514499           
       0.138889              0.0186531961             0.00138408321           
       0.139568              0.0194525481             0.00141281756           
       0.140247              0.0221685307             0.00150624902           
       0.140926              0.0194371477             0.00137007979           
       0.141605              0.0213007289             0.00147069485           
       0.142284              0.0224348997              0.0014843303           
       0.142964              0.0205476346             0.00142595992           
       0.143643              0.0192038431             0.00137680205           
       0.144322              0.0204014546             0.00138938889           
       0.145001              0.0204610976             0.00141997879           
       0.145680              0.0191945118             0.00134278876           
       0.146359              0.0182172632             0.00131294479           
       0.147039              0.0190141832             0.00135239822           
       0.147718              0.0178028842              0.0012870184           
       0.148397              0.0201140337             0.00138926762           
       0.149076              0.0206489832               0.001363954           
       0.149755              0.0159241646             0.00121627911           
       0.150434               0.019645894             0.00135150618           
       0.151114              0.0197910536             0.00134898712           
       0.151793              0.0163189848             0.00122496573           
       0.152472               0.017235898             0.00123667145           
       0.153151              0.0160427578             0.00120463485           
       0.153830              0.0159861148             0.00119374511           
       0.154509              0.0205146742             0.00134665594           
       0.155188              0.0168049355             0.00121837846           
       0.155868              0.0192470586             0.00129462636           
       0.156547              0.0173024801             0.00123537049           
       0.157226              0.0204876816             0.00131144573           
       0.157905              0.0179204991             0.00123683459           
       0.158584              0.0188966783             0.00126776744           
       0.159263              0.0200658882             0.00131120649           
       0.159943              0.0187288625             0.00126771427           
       0.160622              0.0189836413             0.00125167693           
       0.161301              0.0193276169             0.00127985845           
       0.161980              0.0179308254             0.00121178662           
       0.162659              0.0183579203             0.00123972374           
       0.163338              0.0186487758             0.00123932177           
       0.164018              0.0170404753             0.00117845863           
       0.164697              0.0179069148             0.00122355885           
       0.165376              0.0155256203             0.00111440991           
       0.166055              0.0172703671             0.00118311252           
       0.166734              0.0176028086             0.00118909469           
       0.167413              0.0180159518             0.00120381022           
       0.168093              0.0198211525             0.00127462577           
       0.168772              0.0165746962             0.00113148997           
       0.169451              0.0164947576             0.00114952538           
       0.170130              0.0177654885             0.00117732104           
       0.170809              0.0177285743             0.00119013277           
       0.171488              0.0156131225             0.00110669046           
       0.172168              0.0161348012             0.00111421954           
       0.172847               0.017211944             0.00116592779           
       0.173526              0.0170749533             0.00113912549           
       0.174205              0.0152460165              0.0010813482           
       0.174884              0.0169055327             0.00113274636           
       0.175563              0.0162811156             0.00111637641           
       0.176243              0.0178708654             0.00118131589           
       0.176922              0.0172357078             0.00112990008           
       0.177601              0.0170932858             0.00113758806           
       0.178280              0.0161094215             0.00109203629           
       0.178959               0.017217594              0.0011380531           
       0.179638              0.0162223735             0.00110149126           
       0.180317              0.0173637822             0.00113128133           
       0.180997              0.0157883246             0.00108459441           
       0.181676              0.0162373634             0.00108816529           
       0.182355              0.0172538703             0.00112844634           
       0.183034              0.0187602519              0.0011577915           
       0.183713              0.0145545302             0.00103220798           
       0.184392              0.0167234822             0.00110611448           
       0.185072              0.0166262211             0.00109032405           
       0.185751              0.0157211378             0.00106318126           
       0.186430              0.0156905733             0.00105470792           
       0.187109              0.0186233321             0.00116185357           
       0.187788              0.0176282796              0.0011276015           
       0.188467              0.0166462385             0.00108277593           
       0.189147              0.0167150366             0.00109599897           
       0.189826              0.0156919364             0.00104314838           
       0.190505              0.0150829023             0.00103953988           
       0.191184              0.0155407783             0.00103999286           
       0.191863              0.0167915703             0.00108331209           
       0.192542              0.0167708204             0.00109285212           
       0.193222              0.0158807405               0.001039624           
       0.193901               0.016372878              0.0010697588           
       0.194580               0.017223268             0.00107799566           
       0.195259               0.015905653             0.00104783851           
       0.195938               0.015359777             0.00103215897           
       0.196617              0.0165485011             0.00105640053           
       0.197297              0.0169689291             0.00107410359           
       0.197976              0.0147623593            0.000986447858           
       0.198655              0.0153739925             0.00101767142           
       0.199334              0.0159717768             0.00102812037           
       0.200013              0.0161970641              0.0010347719           
       0.200692              0.0142764201            0.000977328548           
       0.201371              0.0159014322             0.00101983566           
       0.202051              0.0158144872             0.00102020649           
       0.202730              0.0145210965            0.000967833704           
       0.203409              0.0161404112             0.00102722111           
       0.204088              0.0166414546             0.00104188947           
       0.204767              0.0157571947             0.00100850218           
       0.205446              0.0142200091            0.000959920253           
       0.206126              0.0151831445            0.000978419827           
       0.206805              0.0150451005            0.000991816943           
       0.207484              0.0160650047             0.00100645837           
       0.208163              0.0140399612            0.000946542782           
       0.208842               0.016892178             0.00103543219           
       0.209521              0.0158419361            0.000994394283           
       0.210201              0.0165316258             0.00102714515           
       0.210880              0.0152684109             0.00096775194           
       0.211559              0.0161698953             0.00101063608           
       0.212238              0.0163578783             0.00101132124           
       0.212917              0.0146304184            0.000952878267           
       0.213596              0.0148169991            0.000964605074           
       0.214276              0.0159242108             0.00097916281           
       0.214955              0.0175125686             0.00104842913           
       0.215634              0.0134261143            0.000911413709           
       0.216313              0.0139109531            0.000925776001           
       0.216992              0.0136177988            0.000915739936           
       0.217671              0.0126932418            0.000878118747           
       0.218351              0.0149181439            0.000961282855           
       0.219030              0.0143752759            0.000928735387           
       0.219709              0.0145797031            0.000941150004           
       0.220388              0.0141593821            0.000926292984           
       0.221067              0.0167332565             0.00100776816           
       0.221746              0.0134924322            0.000904004165           
       0.222426              0.0154265481            0.000952182546           
       0.223105              0.0159849537            0.000982467508           
       0.223784              0.0152434449            0.000949893066           
       0.224463              0.0151930024            0.000955872197           
       0.225142              0.0136096531            0.000890379163           
       0.225821              0.0171158303             0.00100252748           
       0.226500               0.015938381            0.000973580936           
       0.227180              0.0139270455             0.00089605883           
       0.227859              0.0150372753            0.000935266886           
       0.228538              0.0145584149            0.000911013951           
       0.229217              0.0149160918            0.000929436308           
       0.229896              0.0145976462            0.000919018802           
       0.230575              0.0164398196            0.000959738202           
       0.231255              0.0151904058            0.000936360101           
       0.231934              0.0141400119            0.000897234228           
       0.232613              0.0166580203            0.000977444216           
       0.233292              0.0153876985            0.000930359149           
       0.233971              0.0154247476            0.000931043792           
       0.234650              0.0150887847            0.000931679941           
       0.235330              0.0146648747            0.000910478586           
       0.236009              0.0143055718            0.000897317273           
       0.236688              0.0150522704            0.000917143768           
       0.237367              0.0148145809            0.000911195189           
       0.238046              0.0146686276            0.000913080916           
       0.238725              0.0138147595            0.000872436339           
       0.239405              0.0153305407            0.000924752582           
       0.240084              0.0141147113            0.000881675059           
       0.240763              0.0147595997            0.000910224583           
       0.241442              0.0152134614            0.000911092264           
       0.242121               0.015001191            0.000906421528           
       0.242800              0.0152274855              0.0009175561           
       0.243480              0.0130818119            0.000846475148           
       0.244159              0.0135420356            0.000861652849           
       0.244838              0.0155291386            0.000907524638           
       0.245517              0.0139382204             0.00087214972           
       0.246196              0.0139309229            0.000872341806           
       0.246875              0.0139042691             0.00085935826           
       0.247554              0.0159270958            0.000929094786           
       0.248234              0.0141256493            0.000861708226           
       0.248913              0.0154658275            0.000911773615           
       0.249592              0.0142343373            0.000866408083           
       0.250271              0.0140094932            0.000857042151           
       0.250950              0.0149627616            0.000891145707           
       0.251629              0.0142794495            0.000863160499           
       0.252309              0.0151874222            0.000891986734           
       0.252988              0.0135469596            0.000827925356           
       0.253667              0.0145906913            0.000869266649           
       0.254346              0.0130839243            0.000822990295           
       0.255025              0.0148765948            0.000875638972           
       0.255704              0.0130727151            0.000817076161           
       0.256384               0.013521669            0.000828113242           
       0.257063              0.0133715796            0.000828199593           
       0.257742              0.0139920402            0.000841326474           
       0.258421              0.0130516349              0.0008109979           
       0.259100              0.0137304472            0.000833271052           
       0.259779              0.0122001542            0.000784798757           
       0.260459              0.0121904456            0.000786026998           
       0.261138              0.0131261344            0.000799696025           
       0.261817              0.0134671732            0.000826369026           
       0.262496              0.0129949193            0.000803789627           
       0.263175              0.0129055057            0.000802740041           
       0.263854              0.0105510732             0.00072245921           
       0.264534              0.0124089597            0.000776797026           
       0.265213              0.0130694839            0.000809766291           
       0.265892              0.0121992245            0.000772318715           
       0.266571              0.0127308709            0.000787174028           
       0.267250              0.0124734633            0.000780487966           
       0.267929              0.0142888643            0.000834499333           
       0.268609              0.0125793762            0.000787277964           
       0.269288              0.0125801629            0.000774223739           
       0.269967              0.0125743436             0.00078238442           
       0.270646              0.0139059953            0.000819213561           
       0.271325               0.013719019            0.000815046458           
       0.272004              0.0114052403             0.00073573621           
       0.272683              0.0120584196            0.000757445508           
       0.273363               0.010804813            0.000721565745           
       0.274042              0.0121505131            0.000760667188           
       0.274721              0.0112137084              0.0007303221           
       0.275400              0.0114931816            0.000734471438           
       0.276079              0.0125214064            0.000770975147           
       0.276758              0.0121026706            0.000767539548           
       0.277438              0.0119547086            0.000754270376           
       0.278117              0.0124682314            0.000784307026           
       0.278796              0.0118991019             0.00075842041           
       0.279475              0.0118100419            0.000768058564           
       0.280154              0.0118811717            0.000759286844           
       0.280833              0.0114889469            0.000751189352           
       0.281513              0.0115584718            0.000765279581           
       0.282192              0.0112404417              0.0007418028           
       0.282871              0.0117152598            0.000762600254           
       0.283550              0.0111011023            0.000746320186           
       0.284229              0.0115346368            0.000771927225           
       0.284908               0.014273969            0.000867767931           
       0.285588              0.0116321833            0.000774187593           
       0.286267              0.0116203317            0.000786182879           
       0.286946             0.00979466169            0.000717093145           
       0.287625              0.0104705719            0.000754046992           
       0.288304             0.00855554086            0.000672488474           
       0.288983              0.0119599026            0.000805174756           
       0.289663              0.0109090613            0.000773489582           
       0.290342              0.0107399712            0.000763386275           
       0.291021              0.0103823864            0.000754613997           
       0.291700               0.012480392            0.000816543925           
       0.292379              0.0105149021            0.000766654266           
       0.293058             0.00998726143             0.00074434894           
       0.293738             0.00992469882            0.000735782886           
       0.294417               0.010393791            0.000761722505           
       0.295096             0.00959474473            0.000723811937           
       0.295775              0.0105855431            0.000771876804           
       0.296454              0.0113343898            0.000788381629           
       0.297133              0.0108975978            0.000776698758           
       0.297812              0.0105218317            0.000767018178           
       0.298492              0.0101000911            0.000752940944           
       0.299171              0.0101376542            0.000752912635           
       0.299850               0.011200772            0.000786002692           
       0.300529             0.00931450498            0.000724844246           
       0.301208             0.00942704012            0.000730984217           
       0.301887              0.0102415409            0.000761003381           
       0.302567              0.0107693945            0.000776459863           
       0.303246               0.010398673            0.000767959891           
       0.303925              0.0085749908            0.000706329185           
       0.304604              0.0103765296            0.000760214232           
       0.305283             0.00866882755            0.000705153905           
       0.305962              0.0102162994            0.000760884861           
       0.306642             0.00985136777            0.000757319362           
       0.307321              0.0106644033            0.000785434672           
       0.308000             0.00877451966            0.000704003652           
       0.308679             0.00944654886            0.000746284368           
       0.309358             0.00943015669            0.000735550285           
       0.310037             0.00958700887            0.000743294699           
       0.310717             0.00847680748            0.000698260683           
       0.311396             0.00947253441            0.000743083229           
       0.312075              0.0107912224             0.00080317913           
       0.312754             0.00897144477            0.000717681759           
       0.313433             0.00862417611            0.000709774322           
       0.314112             0.00929923827            0.000736860815           
       0.314792             0.00860113129             0.00071366706           
       0.315471             0.00771315887            0.000667466951           
       0.316150             0.00872741384            0.000716567785           
       0.316829             0.00819203376            0.000698825631           
       0.317508             0.00859570552            0.000707803758           
       0.318187             0.00996781623            0.000772260293           
       0.318866              0.0093988683            0.000739794834           
       0.319546             0.00943718989            0.000752413364           
       0.320225             0.00950179082               0.000754999           
       0.320904             0.00864199152            0.000708896795           
       0.321583             0.00848263911            0.000717806239           
       0.322262             0.00845343174            0.000705709112           
       0.322941             0.00847840729            0.000715805492           
       0.323621             0.00695811932            0.000644503542           
       0.324300             0.00691449154            0.000642983389           
       0.324979             0.00819475851            0.000701248836           
       0.325658             0.00743942889             0.00066936198           
       0.326337              0.0081248185            0.000700429739           
       0.327016             0.00814685414             0.00069692613           
       0.327696             0.00863229177            0.000725367831           
       0.328375             0.00800090568            0.000692443788           
       0.329054              0.0084026076            0.000713462437           
       0.329733             0.00864158835            0.000726179523           
       0.330412             0.00758821149            0.000674906875           
       0.331091             0.00844635846            0.000724963535           
       0.331771             0.00769542986             0.00067385454           
       0.332450             0.00764576084            0.000684717109           
       0.333129             0.00790370936            0.000694375214           
       0.333808             0.00890606822            0.000738066286           
       0.334487             0.00646740928            0.000631934104           
       0.335166             0.00660370948             0.00062921288           
       0.335846             0.00687580528            0.000653327695           
       0.336525             0.00819325191            0.000706135942           
       0.337204             0.00739847296            0.000672772578           
       0.337883             0.00495585357            0.000551355567           
       0.338562             0.00724334209            0.000670263253           
       0.339241             0.00621346007            0.000621950333           
       0.339921              0.0065377663            0.000627276199           
       0.340600             0.00648396336            0.000636552916           
       0.341279             0.00775087753            0.000688515993           
       0.341958             0.00704129054            0.000665501524           
       0.342637             0.00744737273            0.000674753846           
       0.343316             0.00730403269            0.000670163462           
       0.343995             0.00628293782            0.000631734196           
       0.344675             0.00634146826            0.000623006131           
       0.345354             0.00841832558            0.000722546112           
       0.346033             0.00665918238            0.000640958006           
       0.346712             0.00580263898            0.000602135516           
       0.347391              0.0061934739            0.000625935228           
       0.348070             0.00655871419            0.000634979578           
       0.348750             0.00569226083            0.000600099449           
       0.349429             0.00634022261            0.000625158182           
       0.350108             0.00586920103            0.000608726249           
       0.350787             0.00691694481            0.000649603168           
       0.351466             0.00612613273            0.000622603576           
       0.352145              0.0065906116            0.000646310942           
       0.352825             0.00508151263            0.000564941572           
       0.353504             0.00520815514            0.000571797782           
       0.354183             0.00612030609            0.000612709313           
       0.354862              0.0069350298            0.000667372727           
       0.355541             0.00629954272            0.000627730891           
       0.356220             0.00526469717            0.000574943609           
       0.356900             0.00652898111            0.000646348737           
       0.357579             0.00460561251            0.000536203573           
       0.358258             0.00647739525             0.00064469602           
       0.358937             0.00591824536            0.000604656391           
       0.359616             0.00538953481            0.000585073555           
       0.360295             0.00496003543            0.000561744545           
       0.360975             0.00498068775            0.000560505368           
       0.361654             0.00604119059            0.000620482645           
       0.362333             0.00592736066            0.000611484042           
       0.363012             0.00633588273             0.00064033928           
       0.363691             0.00595902144            0.000608751671           
       0.364370             0.00586373049            0.000611356043           
       0.365050             0.00567210392            0.000598066029           
       0.365729             0.00469142856            0.000549099424           
       0.366408             0.00528369027            0.000584019921           
       0.367087             0.00505436815            0.000562044116           
       0.367766             0.00521955191            0.000583054973           
       0.368445              0.0060867163             0.00061844978           
       0.369124             0.00503390444            0.000566844259           
       0.369804             0.00553322967            0.000593342072           
       0.370483             0.00501308436            0.000567236762           
       0.371162             0.00578030635            0.000612629529           
       0.371841             0.00462769635             0.00053859954           
       0.372520              0.0049551987             0.00056850365           
       0.373199             0.00497010144            0.000562555568           
       0.373879             0.00502487277            0.000572195778           
       0.374558             0.00492598897             0.00055827061           
       0.375237             0.00450750731            0.000534906176           
       0.375916             0.00574183163            0.000615284342           
       0.376595             0.00468320109            0.000544816074           
       0.377274             0.00406597314            0.000515771624           
       0.377954             0.00469367736            0.000545450464           
       0.378633             0.00494285328            0.000566815166           
       0.379312             0.00461189293            0.000547371975           
       0.379991             0.00359516015            0.000480782231           
       0.380670             0.00427907937            0.000533793711           
       0.381349              0.0048511085            0.000560193196           
       0.382029             0.00493413304            0.000573061575           
       0.382708             0.00509353433            0.000569529927           
       0.383387             0.00441584032            0.000542307802           
       0.384066             0.00497229926            0.000570183409           
       0.384745             0.00468836908            0.000555841209           
       0.385424             0.00433159819             0.00053608848           
       0.386104             0.00500514946            0.000569894954           
       0.386783             0.00476018014            0.000567795004           
       0.387462             0.00483802447            0.000558178813           
       0.388141             0.00466739398            0.000557003795           
       0.388820             0.00510484813            0.000578311135           
       0.389499             0.00438583643            0.000539056601           
       0.390178             0.00415527617            0.000526785873           
       0.390858             0.00343209562            0.000474881654           
       0.391537             0.00418513707            0.000529752197           
       0.392216             0.00411904136               0.000518965           
       0.392895              0.0040867811            0.000518670217           
       0.393574             0.00399929559            0.000511816788           
       0.394253             0.00410852856            0.000521093099           
       0.394933             0.00414583071            0.000529434932           
       0.395612             0.00330917439            0.000459266375           
       0.396291             0.00366736547            0.000493326885           
       0.396970              0.0042466669            0.000526158785           
       0.397649             0.00413638841            0.000520880932           
       0.398328             0.00357732594            0.000482274054           
       0.399008             0.00459338057            0.000545300612           
       0.399687             0.00411762588            0.000518297237           
       0.400366              0.0044038572            0.000533958855           
       0.401045             0.00400370924            0.000508160077           
       0.401724             0.00440310379            0.000533793223           
       0.402403             0.00402592229            0.000514396598           
       0.403083             0.00516706953            0.000574353923           
       0.403762             0.00387110862            0.000499587347           
       0.404441             0.00392149764            0.000506030849           
       0.405120              0.0033670524            0.000467357751           
       0.405799             0.00359847141            0.000481052772           
       0.406478               0.004184226            0.000518742902           
       0.407158             0.00344686066             0.00046993807           
       0.407837             0.00351102016             0.00047847787           
       0.408516             0.00452270166            0.000538331166           
       0.409195             0.00503022914            0.000574173728           
       0.409874              0.0026240966            0.000420474953           
       0.410553             0.00461761097            0.000563773704           
       0.411233             0.00428618249            0.000540350176           
       0.411912             0.00289729223            0.000450553646           
       0.412591             0.00321058346            0.000477427196           
       0.413270             0.00382669869            0.000518751239           
       0.413949             0.00369781928            0.000515510506           
       0.414628             0.00288809352            0.000454767953           
       0.415307             0.00355543055            0.000510193053           
       0.415987             0.00335004921            0.000491157047           
       0.416666             0.00301272625             0.00046297098           
       0.417345             0.00247681207            0.000426788752           
       0.418024             0.00335485363            0.000496723022           
       0.418703             0.00348323043            0.000505207771           
       0.419382             0.00410185091            0.000545551074           
       0.420062              0.0027369706             0.00044688486           
       0.420741             0.00313353773            0.000480708183           
       0.421420             0.00221130956            0.000405352419           
       0.422099             0.00280034785            0.000456168483           
       0.422778             0.00298054779             0.00047316523           
       0.423457             0.00271142692            0.000454060618           
       0.424137             0.00314487976            0.000481039842           
       0.424816             0.00182287344            0.000373886839           
       0.425495             0.00359130357            0.000524296472           
       0.426174             0.00206007172            0.000397231872           
       0.426853             0.00322881274            0.000494285973           
       0.427532             0.00382925453            0.000542838164           
       0.428212             0.00280248063            0.000467457369           
       0.428891             0.00207313419            0.000401139548           
       0.429570             0.00255409707            0.000445550891           
       0.430249             0.00221734206            0.000412984978           
       0.430928             0.00273419473            0.000468626838           
       0.431607             0.00331576067            0.000507197332           
       0.432287             0.00314503643            0.000497585122           
       0.432966             0.00264332004            0.000460185343           
       0.433645             0.00208674287            0.000409303697           
       0.434324             0.00213895052            0.000411894271           
       0.435003             0.00223132658            0.000421413144           
       0.435682             0.00250882152            0.000450514504           
       0.436361             0.00194000651            0.000395634229           
       0.437041             0.00258073028            0.000455704802           
       0.437720             0.00235354819            0.000437283995           
       0.438399             0.00230499991            0.000435008631           
       0.439078             0.00307731284            0.000517205112           
       0.439757             0.00199051486            0.000413405232           
       0.440436             0.00209241133            0.000433406722           
       0.441116             0.00226773973            0.000458577616           
       0.441795              0.0021829336            0.000450463318           
       0.442474              0.0028512849            0.000516260374           
       0.443153             0.00231434525            0.000475968379           
       0.443832             0.00203735619            0.000447330933           
       0.444511             0.00181937776            0.000420819267           
       0.445191              0.0023206096            0.000486824278           
       0.445870             0.00202921765            0.000455247283           
       0.446549             0.00177366125            0.000430104593           
       0.447228             0.00286751667            0.000543789391           
       0.447907             0.00231654362            0.000494627464           
       0.448586             0.00178570744             0.00044472239           
       0.449266             0.00173286061            0.000434062662           
       0.449945             0.00194528934            0.000458023416           
       0.450624             0.00305367372            0.000582974375           
       0.451303             0.00195552303            0.000472566677           
       0.451982             0.00159879381            0.000424653548           
       0.452661             0.00282636299            0.000575133937           
       0.453341             0.00308283679            0.000602767168           
       0.454020             0.00250766019            0.000544465018           
       0.454699             0.00196706577            0.000486624075           
       0.455378            0.000877258143            0.000325147827           
       0.456057             0.00229461968            0.000535215088           
       0.456736             0.00228200708            0.000532077745           
       0.457416             0.00128418744            0.000399156441           
       0.458095             0.00210922958            0.000518956477           
       0.458774              0.0013850993            0.000426099861           
       0.459453             0.00206358062            0.000522716865           
       0.460132             0.00183260268             0.00048195683           
       0.460811             0.00185099282            0.000502440618           
       0.461490             0.00233686337             0.00055880392           
       0.462170             0.00174633348            0.000490604327           
       0.462849             0.00106925568            0.000386381448           
       0.463528             0.00106705636            0.000385088801           
       0.464207            0.000829067622            0.000345790637           
       0.464886             0.00180834491            0.000506715226           
       0.465565             0.00141297831            0.000452830671           
       0.466245            0.000850719751            0.000352457634           
       0.466924             0.00197066278            0.000549110021           
       0.467603             0.00274852641            0.000634734818           
       0.468282             0.00106021644            0.000403569093           
       0.468961              0.0015342529            0.000488666741           
       0.469640             0.00156667454            0.000495772913           
       0.470320             0.00172057352            0.000519912295           
       0.470999            0.000797483561            0.000357298655           
       0.471678             0.00017531932             0.00016913751           
       0.472357             0.00179400292            0.000542559476           
       0.473036             0.00134457526             0.00047267326           
       0.473715             0.00103612227            0.000418175112           
       0.474395             0.00071320013            0.000351739055           
       0.475074             0.00141850584            0.000496070155           
       0.475753              0.0011913963            0.000450704594           
       0.476432            0.000956942855            0.000418636185           
       0.477111            0.000733151953            0.000361998597           
       0.477790            0.000584859323            0.000325049758           
       0.478470            0.000792971845            0.000383494049           
       0.479149             0.00156956458            0.000545115195           
       0.479828             0.00117794561            0.000471126728           
       0.480507           -0.000134414716                         0           
       0.481186            0.000486955992            0.000312240069           
       0.481865            0.000265138238            0.000227545577           
       0.482545            0.000264851761            0.000230093987           
       0.483224             0.00150139969            0.000551581193           
       0.483903            0.000504383541            0.000324735155           
       0.484582            0.000316270091            0.000261326554           
       0.485261            0.000698139896             0.00037842583           
       0.485940            0.000556701976            0.000351557578           
       0.486619            0.000333565262            0.000269135914           
       0.487299            0.000565232089            0.000355929078           
       0.487978            0.000119382699            0.000161909864           
       0.488657           -7.92063337e-05                         0           
       0.489336            0.000576568332            0.000364005087           
       0.490015            -8.8042519e-05                         0           
       0.490694            0.000144986009            0.000189057239           
       0.491374            0.000611249844            0.000383453563           
       0.492053           -6.59203257e-05                         0           
       0.492732            0.000181813023            0.000213509179           
       0.493411           -6.44687398e-05                         0           
       0.494090           -0.000317501842                         0           
       0.494769           -0.000317521038                         0           
       0.495449           -0.000317540503                         0           
       0.496128           -0.000317560029                         0           
       0.496807            -0.00031757934                         0           
       0.497486           -0.000317598829                         0           
       0.498165           -3.18899338e-05                         0           
       0.498844           -0.000317638071                         0           
       0.499524           -0.000317657635                         0           
       0.500203           -0.000317677509                         0           
       0.500882           -0.000317696992                         0           
       0.501561           -1.97435457e-05                         0           
       0.502240           -1.95339978e-05                         0           
       0.502919            -2.6147596e-05                         0           
       0.503599           -0.000317775855                         0           
       0.504278           -4.35487125e-06                         0           
       0.504957           -0.000317815767                         0           
       0.505636           -0.000317835479                         0           
       0.506315           -0.000317855515                         0           
       0.506994           -0.000317875193                         0           
       0.507673            -0.00031789483                         0           
       0.508353           -0.000317914882                         0           
       0.509032            3.51213747e-05            0.000112720696           
       0.509711            1.92848662e-05            8.11007929e-05           
       0.510390            0.000405510032            0.000381307294           
       0.511069            3.64904296e-05            0.000114733352           
       0.511748           -0.000318015471                         0           
       0.512428           -0.000318035754                         0           
       0.513107           -0.000318055725                         0           
       0.513786           -0.000318075759                         0           
       0.514465           -0.000318096134                         0           
       0.515144           -0.000318116495                         0           
       0.515823           -0.000318136671                         0           
       0.516503           -0.000318157036                         0           
       0.517182           -0.000318177399                         0           
       0.517861           -0.000318197713                         0           
       0.518540           -0.000318218141                         0           
       0.519219           -0.000318238452                         0           
       0.519898           -0.000318258967                         0           
       0.520578           -0.000318279606                         0           
       0.521257           -0.000318299978                         0           
       0.521936           -0.000318320399                         0           
       0.522615           -0.000318341064                         0           
       0.523294           -0.000318361807                         0           
       0.523973           -0.000318382262                         0           
       0.524653           -0.000318402571                         0           
       0.525332             0.00015135552             0.00026704718           
       0.526011           -0.000318444149                         0           
       0.526690            0.000168445015            0.000286301578           
       0.527369           -0.000318485845                         0           
       0.528048           -0.000318506754                         0           
       0.528728           -0.000318527639                         0           
       0.529407           -0.000318548427                         0           
       0.530086            0.000716896518            0.000612363691           
       0.530765           -0.000318589818                         0           
       0.531444           -0.000318610752                         0           
       0.532123           -0.000318632055                         0           
       0.532802            0.000215299814             0.00034090362           
       0.533482           -0.000318674244                         0           
       0.534161           -0.000318695335                         0           
       0.534840           -0.000318716246                         0           
       0.535519           -0.000318737545                         0           
       0.536198           -0.000318758623                         0           
       0.536877            -0.00031877941                         0           
       0.537557            0.000241907636            0.000372562763           
       0.538236            -0.00031882189                         0           
       0.538915           -0.000318843218                         0           
       0.539594           -0.000318864517                         0           
       0.540273            0.000295275555            0.000426262866           
       0.540952            -0.00031890754                         0           
       0.541632            -0.00031892854                         0           
       0.542311           -0.000318949732                         0           
       0.542990           -0.000318971162                         0           
       0.543669            0.000311894789            0.000445104869           
       0.544348           -0.000319014355                         0           
       0.545027            0.000345710773            0.000480282213           
       0.545707           -0.000319057493                         0           
       0.546386           -0.000319079156                         0           
       0.547065           -0.000319100558                         0           
       0.547744            0.000443871594             0.00058303091           
       0.548423           -0.000319143795                         0           
       0.549102           -0.000319165554                         0           
       0.549782            0.000399638499              0.0005412643           
       0.550461            0.000493252179            0.000635393117           
       0.551140           -0.000319231147                         0           
       0.551819           -0.000319252925                         0           
       0.552498           -0.000319274889                         0           
       0.553177           -0.000319296475                         0           
       0.553856           -0.000319318139                         0           
       0.554536           -0.000319339875                         0           
       0.555215           -0.000319361942                         0           
       0.555894           -0.000319383956                         0           
       0.556573           -0.000319406102                         0           
       0.557252           -0.000319428229                         0           
       0.557931           -0.000319450256                         0           
       0.558611           -0.000319472798                         0           
       0.559290           -0.000319494767                         0           
       0.559969            0.000806554224            0.000954019123           
       0.560648           -0.000319538192                         0           
       0.561327           -0.000319560678                         0           
       0.562006            -0.00031958306                         0           
       0.562686           -0.000319605455                         0           
       0.563365            0.000693105075            0.000834824549           
       0.564044           -0.000319650296                         0           
       0.564723           -0.000319672611                         0           
       0.565402           -0.000319694509                         0           
       0.566081           -0.000319716554                         0           
       0.566761           -0.000319738835                         0           
       0.567440            -0.00031976157                         0           
       0.568119             0.00084543952            0.000991283552           
       0.568798              0.0011435015             0.00128431068           
       0.569477           -0.000319829721                         0           
       0.570156           -0.000319852557                         0           
       0.570836           -0.000319875306                         0           
       0.571515           -0.000319897574                         0           
       0.572194           -0.000319920488                         0           
       0.572873           -0.000319942878                         0           
       0.573552           -0.000319965136                         0           
       0.574231           -0.000319987845                         0           
       0.574911           -0.000320011127                         0           
       0.575590           -0.000320033961                         0           
       0.576269           -0.000320056725                         0           
       0.576948           -0.000320079926                         0           
       0.577627            -0.00032010242                         0           
       0.578306           -0.000320125231                         0           
       0.578985           -0.000320148237                         0           
       0.579665            -0.00032017111                         0           
       0.580344            -0.00032019433                         0           
       0.581023           -0.000320217524                         0           
       0.581702           -0.000320240504                         0           
       0.582381           -0.000320263275                         0           
       0.583060           -0.000320286726                         0           
       0.583740           -0.000320309808                         0           
       0.584419           -0.000320332967                         0           
       0.585098              0.0026941662             0.00287834718           
       0.585777           -0.000320379409                         0           
       0.586456             -0.0003204031                         0           
       0.587135           -0.000320426161                         0           
       0.587815           -0.000320448973                         0           
       0.588494           -0.000320472495                         0           
       0.589173           -0.000320496558                         0           
       0.589852           -0.000320519342                         0           
       0.590531           -0.000320542986                         0           
       0.591210           -0.000320566083                         0           
       0.591890           -0.000320589627                         0           
       0.592569           -0.000320612383                         0           
       0.593248           -0.000320637262                         0           
       0.593927           -0.000320660916                         0           
       0.594606           -0.000320685057                         0           
       0.595285            -0.00032070776                         0           
       0.595965           -0.000320728945                         0           
       0.596644           -0.000320750745                         0           
