################################################################################
# EDF_DataBlockID                     0.Image.Psd
# EDF_BinarySize                      4366944
# EDF_HeaderSize                      2560
# ByteOrder                           LowByteFirst
# DataType                            FloatValue
# Dim_1                               1028
# Dim_2                               1062
# Image                               0
# HeaderID                            EH:000000:000000:000000
# Size                                4366944
# Center_1                            607.5200
# Center_2                            651.5500
# Comment                             Xenocs_Cell_Window - 20251028_20perc_iodine_1.23mg
# DDummy                              0.6
# Date                                2025-11-01T06:29:11
# Delta                               0
# Dummy                               -1.5
# ExposureTime                        360
# Gamma                               0
# Intensity1                          8.65968e-10
# PSize_1                             7.5e-05
# PSize_2                             7.5e-05
# Pressure                            0.0327568
# SampleDistance                      0.450002
# SampleEnvKind                       large
# SampleEnvPN                         ElectroChemical cell
# SampleEnvSN                         1141
# Thickness                           0
# Wavelength                          1.541891e-10
# Wavelength                          1.54189e-10
# aux                                 0
# aux_dial                            0.002375
# beamx                               588.434
# beamx_dial                          588.434
# beamz                               657.808
# beamz_dial                          657.808
# det0x                               0
# det0x_dial                          6.36945
# det0xvd                             0
# det0xvd_dial                        0
# det0y                               450.002
# det0y_dial                          481.635
# det0z                               0
# det0z_dial                          1.23302
# det0zvd                             0
# det0zvd_dial                        0
# mag                                 1.818
# mag_dial                            1.818
# om                                  0.2499
# om_dial                             -0.610199
# phi                                 -0.0120535
# phi_dial                            0
# ry                                  0.599993
# ry_dial                             0.599993
# s1bot                               0.8
# s1bot_dial                          -1.66094
# s1hl                                0.8
# s1hl_dial                           -0.608437
# s1hr                                0.8
# s1hr_dial                           0.970938
# s1top                               0.8
# s1top_dial                          -0.461562
# s2bot                               0.45
# s2bot_dial                          1.36109
# s2hl                                0.45
# s2hl_dial                           -0.83375
# s2hr                                0.45
# s2hr_dial                           -0.118594
# s2top                               0.45
# s2top_dial                          1.44734
# w2theta                             32
# w2theta_dial                        32
# waxsch                              19.2605
# waxsch_dial                         -32.7355
# waxsh                               137.085
# waxsh_dial                          -43.5338
# waxsth                              26.0607
# waxsth_dial                         -19.4086
# waxsz                               67.0407
# waxsz_dial                          -23.7954
# wind                                65.9854
# wind_dial                           66.0041
# wpsi                                124
# wpsi_dial                           124
# wstod                               115
# wstod_dial                          115
# x                                   0
# x_dial                              1.00969
# z                                   0
# z_dial                              13.3172
# CountCutoff                         15302352
# DetectorModel                       Dectris EIGER2 Si 1M, S/N E-02-0362
# ThresholdSetting                    4023.88989258
# Saturation                          0
# FlatField                           Corrected
# BackgroundReductionExtra            0.02
# BackgroundCorrectionConstant        0.0026712
# Detector                            0
# Monitor                             0
# Pil_Roi0                            0
# SumForIntensity1                    3.11748e+08
# TransmittedFlux                     865968
# det                                 0
# mon                                 0
# pilai0                              3.11748e+08
# pilai1                              791263
# pilct0                              5.38159e+08
# pilct1                              791263
# pilroi0                             0
# pilroi1                             0
# sec                                 1
# title                               20251028_20perc_iodine_1.23mg_0_00801.edf
# usaxs0                              0
# Operation                           Azimuthal average I(q)
# Error_model                         ErrorModel.poisson
# Geometrical_correction              True
# Transmission_correction             True
# Thickness_correction                False
# Binning mode                        Uniform
# Binning factor                      1.0
# Psi                                 0.0
# Omega                               0.2499
# MaskInvalidPixels                   True
# DetectorEdge                        3
# MaskFiles                           ['20251028_20perc_iodine_1.23mg_0_00012_mask.edf']
################################################################################
    q(A⁻¹)                Intensity(a.u.)            Sigma_I(a.u.)            
       0.000340                372350.171                 119.71985           
       0.001019                360012.203                 72.088277           
       0.001698                350340.658                50.2847555           
       0.002377                331227.445                43.7319934           
       0.003056                307373.607                35.6045463           
       0.003735                253509.244                28.5165463           
       0.004415                204428.727                25.6077305           
       0.005094                151981.059                19.1216611           
       0.005773                 99771.803                14.3437117           
       0.006452                57844.4989                10.4644868           
       0.007131                32158.4844                7.55863035           
       0.007810                16271.5298                5.33573699           
       0.008490                8265.85358                3.37098343           
       0.009169                4032.10937                2.32685636           
       0.009848                 1259.4625                1.25733676           
       0.010527                493.353068                0.78693375           
       0.011206                123.146065               0.375234736           
       0.011885                56.4617381               0.236068453           
       0.012564                25.1612804               0.161792717           
       0.013244                16.9565983               0.124171504           
       0.013923                12.1944951               0.107000091           
       0.014602                9.39021399              0.0870813005           
       0.015281                7.46402042               0.079031904           
       0.015960                5.89668746              0.0697422603           
       0.016639                4.87511977              0.0598824044           
       0.017319                 4.1453736              0.0543602193           
       0.017998                3.32445443              0.0465726465           
       0.018677                2.84029143              0.0445858783           
       0.019356                 2.4542446              0.0409518854           
       0.020035                2.18136675               0.036222013           
       0.020714                1.83696711              0.0335916365           
       0.021394                1.59025451              0.0295722006           
       0.022073                1.40462831               0.028916145           
       0.022752                1.29114396              0.0265204289           
       0.023431                1.11768326              0.0239513435           
       0.024110               0.966793237              0.0232243739           
       0.024789               0.876657432              0.0205386726           
       0.025469               0.762073183              0.0197336682           
       0.026148               0.731390268              0.0181643143           
       0.026827               0.632908119               0.017167601           
       0.027506               0.601790389              0.0169816517           
       0.028185               0.536134914              0.0152855357           
       0.028864               0.517328877              0.0149308072           
       0.029544               0.459554797               0.013646282           
       0.030223               0.434560718              0.0134602856           
       0.030902               0.421817386               0.013382816           
       0.031581                 0.3648991              0.0118324231           
       0.032260               0.353287137              0.0118410118           
       0.032939               0.312771591              0.0107427074           
       0.033619               0.275512293              0.0102307354           
       0.034298               0.292909699              0.0102656965           
       0.034977               0.273111864             0.00971789145           
       0.035656               0.240960655             0.00936956379           
       0.036335               0.230380936             0.00888556798           
       0.037014               0.184953332             0.00798521329           
       0.037693               0.196066188             0.00790907911           
       0.038373               0.182900222             0.00771387888           
       0.039052               0.173964973             0.00755510451           
       0.039731               0.175425693             0.00740995126           
       0.040410               0.148054457             0.00676173193           
       0.041089                0.14806509             0.00665605322           
       0.041768               0.130595312             0.00628372709           
       0.042448               0.126536943             0.00613732507           
       0.043127               0.121928422             0.00588223985           
       0.043806               0.115542496             0.00576882427           
       0.044485               0.124604537             0.00586770929           
       0.045164               0.107426423             0.00555563252           
       0.045843              0.0975644556             0.00507805373           
       0.046523               0.113683366             0.00550043502           
       0.047202               0.105218104             0.00532866035           
       0.047881               0.100917633             0.00511799036           
       0.048560              0.0901068704             0.00488017557           
       0.049239              0.0955222177             0.00482460271           
       0.049918              0.0838256035             0.00460792903           
       0.050598              0.0803745838             0.00444438466           
       0.051277              0.0861655274              0.0045871058           
       0.051956              0.0836348662             0.00449086347           
       0.052635              0.0813065706             0.00433394259           
       0.053314              0.0816734459             0.00447070661           
       0.053993              0.0788896889              0.0042733453           
       0.054673              0.0694921121             0.00392140871           
       0.055352              0.0705629638              0.0040095489           
       0.056031              0.0635245242             0.00372439256           
       0.056710              0.0730494504             0.00409173285           
       0.057389              0.0679047154             0.00380422242           
       0.058068              0.0604374795             0.00362596028           
       0.058748              0.0684647571             0.00390739519           
       0.059427              0.0658946358             0.00376845106           
       0.060106              0.0581517522             0.00357363639           
       0.060785              0.0639406163             0.00363501295           
       0.061464              0.0624930305             0.00368024968           
       0.062143              0.0619233839              0.0036262239           
       0.062822               0.056426931             0.00342092857           
       0.063502              0.0556394731             0.00339090547           
       0.064181              0.0520239561             0.00324425833           
       0.064860              0.0531356635             0.00332867718           
       0.065539              0.0503134405             0.00320739907           
       0.066218               0.051819231              0.0031853448           
       0.066897              0.0453834225             0.00300399579           
       0.067577              0.0454566573             0.00303530187           
       0.068256              0.0440162602             0.00306019452           
       0.068935              0.0444717475             0.00302625046           
       0.069614              0.0453790974             0.00308739814           
       0.070293              0.0462735309             0.00314642477           
       0.070972              0.0421667731             0.00298156772           
       0.071652              0.0445167169             0.00306914156           
       0.072331              0.0394209225             0.00283666984           
       0.073010              0.0402105485             0.00293040014           
       0.073689              0.0378128656             0.00282607468           
       0.074368              0.0417315353              0.0029635036           
       0.075047              0.0373182145             0.00277230143           
       0.075727               0.039118377             0.00282084828           
       0.076406              0.0349839542             0.00272084394           
       0.077085              0.0367709447             0.00273733786           
       0.077764              0.0394702196             0.00282609221           
       0.078443               0.034487073              0.0026580327           
       0.079122              0.0345546812             0.00263507699           
       0.079802              0.0381943155             0.00279976159           
       0.080481              0.0328060409             0.00250724219           
       0.081160              0.0345310826             0.00262510099           
       0.081839              0.0346149289             0.00258620831           
       0.082518              0.0368130332             0.00266930493           
       0.083197              0.0317002891             0.00243852951           
       0.083876              0.0377610146             0.00261722541           
       0.084556              0.0335629234              0.0025360774           
       0.085235              0.0306345404             0.00237610395           
       0.085914              0.0347875699             0.00255664411           
       0.086593              0.0261962316             0.00220431401           
       0.087272              0.0315554871             0.00238511227           
       0.087951              0.0332127237             0.00250221564           
       0.088631              0.0353558118             0.00249374944           
       0.089310              0.0304559617             0.00236359667           
       0.089989              0.0298190272              0.0023114088           
       0.090668              0.0288076111             0.00229694827           
       0.091347              0.0339139308             0.00250617516           
       0.092026              0.0316414531              0.0023138488           
       0.092706              0.0269211209             0.00221175813           
       0.093385              0.0333044438              0.0024222628           
       0.094064              0.0272716977             0.00221743875           
       0.094743              0.0250369952             0.00209226861           
       0.095422              0.0250805916             0.00207073805           
       0.096101              0.0290515024             0.00227454292           
       0.096781              0.0264988633             0.00214121425           
       0.097460              0.0263223451             0.00207585614           
       0.098139              0.0278356274             0.00211826775           
       0.098818               0.030441485             0.00218792177           
       0.099497              0.0270843576             0.00206799222           
       0.100176              0.0265234466             0.00199275617           
       0.100856              0.0275682639             0.00203032475           
       0.101535               0.028222665             0.00205031884           
       0.102214                0.02492235             0.00192672431           
       0.102893              0.0293168633             0.00206588986           
       0.103572              0.0253624213             0.00189312865           
       0.104251              0.0276357163              0.0019834514           
       0.104931              0.0233995414             0.00180849756           
       0.105610              0.0234467712             0.00181804404           
       0.106289              0.0243000145             0.00182002758           
       0.106968              0.0283069375             0.00197019007           
       0.107647              0.0247593684             0.00184370758           
       0.108326              0.0242366119              0.0017997371           
       0.109005              0.0266869589             0.00187664258           
       0.109685              0.0250520082             0.00179785348           
       0.110364              0.0264439293             0.00186810338           
       0.111043              0.0227152057             0.00172453049           
       0.111722              0.0259725087              0.0018214972           
       0.112401              0.0213286005             0.00165523158           
       0.113080              0.0230881861             0.00170242097           
       0.113760              0.0239840996             0.00176411845           
       0.114439              0.0223139459             0.00167730263           
       0.115118              0.0231317319             0.00169488493           
       0.115797              0.0231589001             0.00171159076           
       0.116476              0.0208699316             0.00160048726           
       0.117155              0.0225821863             0.00167827608           
       0.117835              0.0226269219             0.00164654085           
       0.118514              0.0250203569             0.00175339002           
       0.119193              0.0211127799              0.0016106739           
       0.119872              0.0239808712              0.0016951249           
       0.120551              0.0207144353             0.00156495993           
       0.121230              0.0223441889             0.00160900128           
       0.121910              0.0199785053             0.00153614699           
       0.122589              0.0224816667             0.00163122107           
       0.123268              0.0187693838             0.00146159574           
       0.123947              0.0195864777             0.00150272714           
       0.124626              0.0196865635             0.00148814119           
       0.125305              0.0196635021             0.00149456779           
       0.125985              0.0203308155              0.0015079243           
       0.126664              0.0214641006             0.00153462348           
       0.127343              0.0200847632              0.0015017026           
       0.128022              0.0205485924             0.00150729319           
       0.128701              0.0214456832             0.00153182235           
       0.129380              0.0203541709             0.00147364028           
       0.130059              0.0224716171             0.00155199156           
       0.130739              0.0210549236             0.00151283797           
       0.131418              0.0233138504             0.00158746794           
       0.132097              0.0190201689             0.00141546579           
       0.132776              0.0200095312             0.00144525843           
       0.133455              0.0201212448               0.001460547           
       0.134134              0.0190518781             0.00141668001           
       0.134814               0.019169922             0.00140641982           
       0.135493              0.0180855087             0.00137158963           
       0.136172               0.017588606             0.00134240504           
       0.136851              0.0201858487             0.00144647145           
       0.137530              0.0173389285             0.00130874436           
       0.138209              0.0184826751             0.00136708417           
       0.138889              0.0188536562             0.00138682225           
       0.139568              0.0200607245             0.00142990959           
       0.140247              0.0192803548             0.00139998464           
       0.140926              0.0193421307             0.00136213197           
       0.141605              0.0185440196              0.0013676177           
       0.142284              0.0197727033             0.00138879757           
       0.142964               0.017942198             0.00132801097           
       0.143643              0.0189009889              0.0013613103           
       0.144322              0.0178164986             0.00129402263           
       0.145001              0.0173801827             0.00130431353           
       0.145680              0.0179446717             0.00129397044           
       0.146359              0.0184105298             0.00131545343           
       0.147039              0.0199427068             0.00138036914           
       0.147718              0.0201027362             0.00136302743           
       0.148397              0.0215061616             0.00143171052           
       0.149076              0.0178422943             0.00126361035           
       0.149755              0.0184029886             0.00130312637           
       0.150434              0.0173847715              0.0012670801           
       0.151114              0.0181960309             0.00128913713           
       0.151793              0.0181808092             0.00128860975           
       0.152472               0.020115761             0.00133150575           
       0.153151                0.01656465             0.00121995687           
       0.153830              0.0188891696             0.00129325454           
       0.154509              0.0180990873             0.00126063719           
       0.155188              0.0174824618             0.00123851856           
       0.155868              0.0186981486             0.00127174196           
       0.156547              0.0176228264             0.00124256255           
       0.157226              0.0168707368              0.0011860647           
       0.157905              0.0162694765             0.00117452103           
       0.158584              0.0184471473             0.00124838604           
       0.159263               0.016043192             0.00116848925           
       0.159943              0.0195335307              0.0012903083           
       0.160622              0.0160961019             0.00114868323           
       0.161301              0.0179239982             0.00122836567           
       0.161980              0.0187047158             0.00123349958           
       0.162659              0.0152250578             0.00112520095           
       0.163338              0.0179265547             0.00121100174           
       0.164018              0.0182081186             0.00121406926           
       0.164697              0.0177696708             0.00121476315           
       0.165376              0.0167410451             0.00115331836           
       0.166055              0.0166494237             0.00115774338           
       0.166734              0.0169197367             0.00116187577           
       0.167413              0.0151569777             0.00110045722           
       0.168093               0.017250992             0.00118512106           
       0.168772              0.0163175594             0.00111890434           
       0.169451              0.0159065362             0.00112504745           
       0.170130              0.0162595788             0.00112253117           
       0.170809              0.0158747688             0.00112240515           
       0.171488               0.017655785             0.00117290337           
       0.172168              0.0180862836             0.00117571231           
       0.172847              0.0162948296             0.00113062619           
       0.173526                0.01726121             0.00114147095           
       0.174205              0.0170380291             0.00113929052           
       0.174884              0.0141597574             0.00103319807           
       0.175563              0.0150347529             0.00106918819           
       0.176243               0.015346088             0.00109101201           
       0.176922              0.0155141272             0.00106838207           
       0.177601              0.0160733123             0.00109941682           
       0.178280              0.0155056038             0.00106777285           
       0.178959               0.017459827             0.00114217776           
       0.179638              0.0175159046             0.00114071612           
       0.180317              0.0160146205             0.00108278996           
       0.180997              0.0156714609             0.00107694003           
       0.181676              0.0152585164             0.00105130978           
       0.182355               0.015006759             0.00104886245           
       0.183034               0.015735638             0.00105679473           
       0.183713              0.0178120488             0.00113805302           
       0.184392              0.0180507193             0.00114530569           
       0.185072              0.0167749809             0.00109150887           
       0.185751              0.0156745668             0.00105803623           
       0.186430              0.0163573152             0.00107326322           
       0.187109              0.0170676956             0.00110853034           
       0.187788              0.0168609951             0.00109908105           
       0.188467              0.0151350188             0.00102898597           
       0.189147               0.017502704             0.00111775467           
       0.189826              0.0162091942             0.00105663738           
       0.190505              0.0171069217             0.00110337228           
       0.191184              0.0182876209             0.00112437199           
       0.191863               0.014412951             0.00100028056           
       0.192542                0.01595985             0.00106251749           
       0.193222              0.0154221034             0.00102105741           
       0.193901              0.0152165531             0.00102782443           
       0.194580              0.0163768529             0.00104763957           
       0.195259              0.0153081759             0.00102451368           
       0.195938              0.0154665485             0.00103225805           
       0.196617              0.0154311947             0.00101668518           
       0.197297              0.0129200626            0.000934089943           
       0.197976              0.0157979859             0.00101703183           
       0.198655              0.0176660684             0.00108723053           
       0.199334              0.0157045369             0.00101605531           
       0.200013              0.0162074742             0.00103162435           
       0.200692              0.0153692758              0.0010106367           
       0.201371              0.0167050635             0.00104177415           
       0.202051               0.015227884            0.000997740825           
       0.202730              0.0165980014             0.00103125572           
       0.203409              0.0149353549            0.000984808636           
       0.204088              0.0152377575            0.000993628343           
       0.204767              0.0140184529            0.000948036095           
       0.205446               0.014241127            0.000957403109           
       0.206126              0.0140991856            0.000939677511           
       0.206805              0.0140443101            0.000955040126           
       0.207484               0.017465685              0.0010458891           
       0.208163              0.0174804878             0.00105261973           
       0.208842              0.0158186737            0.000998622409           
       0.209521              0.0149392483            0.000962401519           
       0.210201              0.0149649264            0.000973977141           
       0.210880              0.0151738326            0.000961506475           
       0.211559              0.0141019611            0.000940629057           
       0.212238              0.0136496926            0.000920713508           
       0.212917              0.0152279731            0.000968874523           
       0.213596              0.0143454295            0.000945940087           
       0.214276              0.0156553765            0.000967598412           
       0.214955              0.0153907633            0.000979561422           
       0.215634              0.0138221519            0.000921649209           
       0.216313              0.0156498415            0.000978633063           
       0.216992              0.0139427686            0.000923486701           
       0.217671              0.0162105337            0.000989015426           
       0.218351              0.0153162318            0.000970749558           
       0.219030                0.01416447            0.000918801089           
       0.219709              0.0142186885            0.000926300111           
       0.220388              0.0161598566            0.000986239545           
       0.221067              0.0142705289            0.000927529801           
       0.221746              0.0145974131            0.000937131845           
       0.222426              0.0139928445            0.000903808202           
       0.223105              0.0141481399            0.000921190849           
       0.223784               0.014029154            0.000908210112           
       0.224463               0.013526201            0.000898883447           
       0.225142              0.0126459395            0.000855390548           
       0.225821              0.0136811387            0.000893296974           
       0.226500              0.0139127713             0.00090655513           
       0.227180              0.0154245092            0.000939831811           
       0.227859              0.0151241171            0.000934810183           
       0.228538              0.0149014105            0.000918584491           
       0.229217              0.0152489458            0.000936589872           
       0.229896              0.0165895775            0.000976423175           
       0.230575              0.0159468394            0.000942060959           
       0.231255              0.0150570355            0.000929106259           
       0.231934              0.0161981914            0.000957087506           
       0.232613              0.0146747515            0.000914330281           
       0.233292              0.0152146697             0.00092200335           
       0.233971               0.015039739            0.000916259863           
       0.234650              0.0143195012            0.000904567534           
       0.235330              0.0152345247            0.000924873743           
       0.236009              0.0150052933             0.00091591063           
       0.236688              0.0161177235            0.000945857478           
       0.237367              0.0138634921            0.000878497419           
       0.238046              0.0148054336            0.000914244861           
       0.238725              0.0128660946            0.000839117717           
       0.239405              0.0144501573            0.000894788802           
       0.240084              0.0138374208            0.000870036691           
       0.240763              0.0156237334            0.000933342661           
       0.241442              0.0139265228            0.000868774618           
       0.242121              0.0147971319            0.000897208854           
       0.242800              0.0154954424            0.000922482116           
       0.243480               0.015235465            0.000910427897           
       0.244159              0.0127426617            0.000833024676           
       0.244838              0.0133654728              0.0008391012           
       0.245517              0.0157184533            0.000923059558           
       0.246196              0.0146867397            0.000892682207           
       0.246875              0.0137125199            0.000850542943           
       0.247554              0.0137307592            0.000859758422           
       0.248234              0.0140947257            0.000857870593           
       0.248913              0.0126468205            0.000821728885           
       0.249592              0.0140319498            0.000857334533           
       0.250271              0.0130148949            0.000823282227           
       0.250950              0.0145458913            0.000875690114           
       0.251629              0.0132583104            0.000828929039           
       0.252309              0.0129939046            0.000822287401           
       0.252988              0.0127064006            0.000799132835           
       0.253667              0.0130495445             0.00081931366           
       0.254346              0.0148967258            0.000875202504           
       0.255025              0.0122131309            0.000790722795           
       0.255704              0.0147847188            0.000866011409           
       0.256384              0.0127218781             0.00080054847           
       0.257063               0.014410119            0.000856869879           
       0.257742              0.0120630479            0.000778556254           
       0.258421              0.0128980323            0.000803501031           
       0.259100              0.0134819289            0.000822919602           
       0.259779              0.0112646547            0.000751574482           
       0.260459              0.0134223439            0.000822014144           
       0.261138              0.0141539708            0.000827624044           
       0.261817              0.0125106245            0.000793803005           
       0.262496              0.0137562921            0.000824221113           
       0.263175              0.0111369712            0.000743204615           
       0.263854              0.0122107687            0.000774593686           
       0.264534              0.0119443756            0.000759554656           
       0.265213              0.0112494048            0.000748742844           
       0.265892              0.0122177961            0.000770307843           
       0.266571              0.0132668233            0.000800871077           
       0.267250              0.0123365854            0.000773584227           
       0.267929              0.0130864156            0.000795930101           
       0.268609              0.0123092145            0.000776159808           
       0.269288              0.0123281604            0.000763853241           
       0.269967              0.0119078116            0.000758806331           
       0.270646              0.0127578722            0.000782028634           
       0.271325              0.0113805695            0.000739844197           
       0.272004              0.0115615763            0.000738271109           
       0.272683              0.0149409988            0.000840298234           
       0.273363              0.0122713815            0.000766392854           
       0.274042              0.0129664482            0.000783150672           
       0.274721              0.0112069017            0.000727645809           
       0.275400              0.0108609024            0.000711582354           
       0.276079              0.0139857641            0.000812071669           
       0.276758              0.0122374585            0.000769206964           
       0.277438              0.0104430431            0.000702600618           
       0.278117              0.0113960963            0.000747307207           
       0.278796              0.0111066353            0.000730266895           
       0.279475              0.0101411346            0.000709331634           
       0.280154              0.0118732677            0.000756482361           
       0.280833              0.0115748325            0.000751456953           
       0.281513              0.0102511136            0.000718278516           
       0.282192              0.0120091671            0.000764171188           
       0.282871              0.0109210514             0.00073382186           
       0.283550              0.0112249483            0.000747948587           
       0.284229              0.0124754335            0.000800091499           
       0.284908              0.0114358818            0.000774111443           
       0.285588              0.0116372006            0.000771751152           
       0.286267              0.0117123771            0.000786636836           
       0.286946              0.0110892986            0.000760449409           
       0.287625               0.011105218            0.000773952294           
       0.288304               0.011889505            0.000790097041           
       0.288983              0.0104278554            0.000749309547           
       0.289663              0.0101251395            0.000742674859           
       0.290342             0.00969583469            0.000722891016           
       0.291021             0.00959036442            0.000722821822           
       0.291700              0.0105037918            0.000746579273           
       0.292379             0.00983246928             0.00073886599           
       0.293058             0.00908648934            0.000707601692           
       0.293738              0.0111074564            0.000775774965           
       0.294417             0.00994197365            0.000742477913           
       0.295096              0.0116028172            0.000793283079           
       0.295775             0.00997151786            0.000746636968           
       0.296454              0.0104984898            0.000756202792           
       0.297133              0.0105085442            0.000760144115           
       0.297812              0.0114434355            0.000797215313           
       0.298492              0.0103235305            0.000758664616           
       0.299171              0.0085190525            0.000687874061           
       0.299850             0.00932268435            0.000714674001           
       0.300529              0.0106707802            0.000773215105           
       0.301208              0.0110450277            0.000788571657           
       0.301887             0.00957153708            0.000733216474           
       0.302567             0.00990188573             0.00074202709           
       0.303246              0.0103198378            0.000762471213           
       0.303925             0.00990087264            0.000756422597           
       0.304604             0.00841425782            0.000682268429           
       0.305283              0.0082178989            0.000684260653           
       0.305962              0.0102635706            0.000760079136           
       0.306642             0.00804923491            0.000682253124           
       0.307321             0.00798925927            0.000677536167           
       0.308000             0.00994841211            0.000747097972           
       0.308679              0.0084080057             0.00070170035           
       0.309358             0.00770903414            0.000662811958           
       0.310037                0.01037943            0.000770803468           
       0.310717              0.0100291551            0.000756956703           
       0.311396             0.00794354043            0.000678186056           
       0.312075              0.0111494563             0.00081365702           
       0.312754             0.00919525669            0.000724135902           
       0.313433              0.0083365752            0.000695492977           
       0.314112             0.00930186956            0.000734487373           
       0.314792             0.00842300933            0.000703864305           
       0.315471             0.00833627516            0.000691571498           
       0.316150             0.00937375651            0.000740131291           
       0.316829             0.00808076665            0.000691730108           
       0.317508              0.0102664644            0.000770938955           
       0.318187             0.00756687555            0.000670593635           
       0.318866              0.0081720666            0.000687506642           
       0.319546             0.00801077099             0.00069089134           
       0.320225              0.0093257399            0.000745457228           
       0.320904             0.00910054893            0.000725015558           
       0.321583             0.00819049024            0.000702965675           
       0.322262             0.00805124566            0.000686401425           
       0.322941             0.00790037165            0.000688650848           
       0.323621             0.00772530027            0.000676822042           
       0.324300              0.0067461385            0.000632972282           
       0.324979             0.00836657296            0.000706179834           
       0.325658             0.00756080893            0.000672531779           
       0.326337             0.00746933263             0.00066932351           
       0.327016             0.00867759488            0.000716851007           
       0.327696             0.00839746385            0.000713028262           
       0.328375             0.00896698468            0.000730593155           
       0.329054              0.0082719246            0.000705512629           
       0.329733             0.00901565362            0.000739236253           
       0.330412             0.00694650171            0.000643568308           
       0.331091             0.00715747164            0.000665117942           
       0.331771             0.00805957806            0.000687295193           
       0.332450             0.00863665635            0.000725288986           
       0.333129             0.00676480688            0.000640241569           
       0.333808             0.00617221894            0.000612365137           
       0.334487             0.00709419726            0.000659622845           
       0.335166             0.00616574044            0.000605945663           
       0.335846             0.00738770989            0.000674934515           
       0.336525             0.00733527157            0.000665894916           
       0.337204             0.00740168399            0.000670656199           
       0.337883              0.0071162034            0.000658467198           
       0.338562             0.00798460504            0.000701358505           
       0.339241             0.00616674083             0.00061752456           
       0.339921             0.00602191769            0.000599996833           
       0.340600             0.00681922159            0.000650607514           
       0.341279             0.00776352001            0.000686760599           
       0.341958             0.00586522142             0.00060534445           
       0.342637             0.00616492982            0.000611850514           
       0.343316             0.00755373897            0.000679231496           
       0.343995             0.00686794494            0.000658269669           
       0.344675             0.00807968713            0.000700861362           
       0.345354             0.00527221083            0.000569884089           
       0.346033             0.00574921937            0.000593555043           
       0.346712             0.00608456191            0.000614516521           
       0.347391             0.00672778295            0.000650183077           
       0.348070             0.00633664731            0.000622038993           
       0.348750             0.00545704241            0.000585594425           
       0.349429             0.00629967571            0.000621060917           
       0.350108             0.00688497357            0.000657084334           
       0.350787             0.00799868168            0.000696205777           
       0.351466             0.00647124862            0.000637749151           
       0.352145             0.00685343281            0.000656855993           
       0.352825             0.00629593182            0.000626721329           
       0.353504             0.00602956155            0.000613169881           
       0.354183             0.00650884013            0.000629734011           
       0.354862             0.00639096912            0.000638506151           
       0.355541             0.00793529418            0.000702163001           
       0.356220             0.00473392185            0.000543358584           
       0.356900             0.00730467744            0.000681368665           
       0.357579             0.00551176147            0.000584613244           
       0.358258             0.00567052302            0.000601178979           
       0.358937             0.00496197069             0.00055179365           
       0.359616             0.00584756427            0.000607378993           
       0.360295             0.00593748277            0.000612540901           
       0.360975             0.00512868473            0.000566859666           
       0.361654             0.00544779374            0.000587240683           
       0.362333             0.00575713718            0.000600613621           
       0.363012             0.00598531529            0.000620279648           
       0.363691             0.00555527923            0.000585791514           
       0.364370             0.00481558427            0.000552165337           
       0.365050             0.00550375189            0.000587143024           
       0.365729             0.00604840763            0.000621378751           
       0.366408             0.00595758877            0.000618061489           
       0.367087             0.00551560155            0.000585154904           
       0.367766             0.00543285092            0.000592849182           
       0.368445             0.00504643385            0.000561232276           
       0.369124             0.00462121822            0.000541286187           
       0.369804             0.00619245115            0.000625582407           
       0.370483             0.00548906519            0.000591559583           
       0.371162              0.0051032609            0.000573698642           
       0.371841             0.00533887991            0.000576562064           
       0.372520             0.00531502584            0.000586803705           
       0.373199             0.00430082588            0.000521550263           
       0.373879             0.00545857182             0.00059437299           
       0.374558             0.00494974489            0.000557733708           
       0.375237             0.00592420934            0.000611169999           
       0.375916             0.00491045666            0.000567086117           
       0.376595             0.00522533783            0.000573552442           
       0.377274             0.00416981082            0.000520560014           
       0.377954             0.00528336244             0.00057675496           
       0.378633             0.00421228523             0.00052149353           
       0.379312             0.00605798907            0.000625236941           
       0.379991             0.00491949629            0.000560514748           
       0.380670             0.00544339357            0.000600026715           
       0.381349             0.00391533424            0.000501578826           
       0.382029             0.00510284882            0.000580817441           
       0.382708             0.00479839876            0.000550925071           
       0.383387             0.00405889979            0.000518180152           
       0.384066             0.00415988197            0.000519773206           
       0.384745             0.00453132779            0.000544615531           
       0.385424             0.00449999818            0.000544572867           
       0.386104             0.00392998308            0.000503290883           
       0.386783             0.00513592344            0.000587795937           
       0.387462             0.00435238161            0.000527643069           
       0.388141             0.00449649498            0.000544873162           
       0.388820             0.00437100057            0.000533332451           
       0.389499             0.00421814409            0.000526873428           
       0.390178             0.00406632236            0.000519364801           
       0.390858             0.00425458333            0.000526952728           
       0.391537             0.00421211967            0.000529670409           
       0.392216             0.00395881943             0.00050706108           
       0.392895             0.00418096283            0.000522848918           
       0.393574             0.00345646969            0.000474216421           
       0.394253             0.00395345031            0.000509445518           
       0.394933             0.00351929592            0.000486152071           
       0.395612             0.00291620576            0.000429686136           
       0.396291             0.00468943326            0.000555975054           
       0.396970             0.00343715488            0.000471769343           
       0.397649             0.00508733693            0.000575718905           
       0.398328             0.00330110194             0.00046172304           
       0.399008             0.00392106106            0.000502121723           
       0.399687             0.00350713222            0.000476726131           
       0.400366             0.00508701553            0.000571952744           
       0.401045               0.004039225            0.000508692972           
       0.401724             0.00456583855            0.000541740504           
       0.402403              0.0035942953            0.000484406218           
       0.403083             0.00444018893            0.000530634644           
       0.403762             0.00385274121            0.000496725102           
       0.404441             0.00461369337            0.000547032105           
       0.405120             0.00367526002            0.000486637962           
       0.405799             0.00364542527            0.000482553234           
       0.406478             0.00486519309            0.000557483578           
       0.407158             0.00438551735            0.000528295145           
       0.407837             0.00431906952            0.000528905068           
       0.408516             0.00285329972            0.000426149209           
       0.409195             0.00357087181            0.000482140928           
       0.409874             0.00468302699            0.000559823324           
       0.410553             0.00364002772            0.000498868323           
       0.411233             0.00419242126             0.00053261067           
       0.411912             0.00375959486            0.000511514935           
       0.412591             0.00249818623            0.000419725171           
       0.413270             0.00316904208            0.000470487894           
       0.413949             0.00247079673            0.000419972279           
       0.414628             0.00273453536             0.00044102523           
       0.415307             0.00302333639            0.000468887995           
       0.415987             0.00282768307            0.000449725578           
       0.416666              0.0026544702            0.000433112081           
       0.417345             0.00360665677            0.000513282292           
       0.418024             0.00353989162            0.000508522204           
       0.418703             0.00310612845            0.000475473221           
       0.419382             0.00344529503             0.00049830601           
       0.420062             0.00243224912             0.00041985762           
       0.420741             0.00238571902            0.000418033546           
       0.421420              0.0029364864            0.000465542604           
       0.422099              0.0027793681            0.000452928612           
       0.422778             0.00341365804            0.000504675501           
       0.423457              0.0026169219            0.000444577729           
       0.424137             0.00281542293            0.000453615916           
       0.424816             0.00364116548             0.00052664694           
       0.425495             0.00166637121            0.000355937865           
       0.426174             0.00211613315            0.000401247048           
       0.426853             0.00268897401            0.000449559931           
       0.427532             0.00280924874            0.000463389074           
       0.428212             0.00262130295            0.000450574642           
       0.428891             0.00207559736            0.000400028345           
       0.429570             0.00291936331            0.000474744703           
       0.430249             0.00196563542            0.000387531339           
       0.430928             0.00301281668            0.000490271025           
       0.431607              0.0019220829            0.000384865398           
       0.432287             0.00295991902            0.000481096168           
       0.432966              0.0016728017             0.00036485271           
       0.433645             0.00199951693            0.000399310912           
       0.434324             0.00353860613            0.000528006091           
       0.435003              0.0023640385            0.000432305954           
       0.435682             0.00192552447            0.000393356066           
       0.436361             0.00328522651            0.000513112224           
       0.437041             0.00223797967            0.000422939066           
       0.437720             0.00218569408            0.000419985367           
       0.438399             0.00228629986            0.000431783905           
       0.439078             0.00227947555            0.000443641219           
       0.439757             0.00274342329            0.000483701133           
       0.440436             0.00173828862            0.000393704602           
       0.441116              0.0028878332            0.000515750594           
       0.441795             0.00216752139            0.000447361186           
       0.442474             0.00218052495            0.000449952275           
       0.443153             0.00231622667            0.000474560945           
       0.443832             0.00212461813            0.000455274502           
       0.444511             0.00247740214            0.000489406651           
       0.445191             0.00231333806            0.000484426814           
       0.445870             0.00221459538            0.000473988362           
       0.446549             0.00237233744            0.000495751926           
       0.447228             0.00203996712            0.000457116372           
       0.447907             0.00167651897             0.00041937222           
       0.448586              0.0025264017            0.000527196453           
       0.449266              0.0032336626            0.000590956349           
       0.449945              0.0026820429             0.00053600134           
       0.450624             0.00314841943            0.000589959066           
       0.451303             0.00148833321            0.000410883924           
       0.451982             0.00292881698            0.000572825155           
       0.452661             0.00235188976            0.000522878691           
       0.453341             0.00389015216            0.000674831045           
       0.454020             0.00320247322            0.000613219319           
       0.454699             0.00206933139            0.000497435311           
       0.455378             0.00111482878            0.000365307572           
       0.456057             0.00252999625            0.000560106184           
       0.456736             0.00226661331            0.000528497278           
       0.457416              0.0010342047            0.000357001157           
       0.458095             0.00209275211            0.000515187528           
       0.458774             0.00163703477            0.000461676029           
       0.459453             0.00231173815            0.000551394652           
       0.460132             0.00119194941            0.000387382796           
       0.460811             0.00157493797            0.000461903803           
       0.461490             0.00193966626             0.00050739213           
       0.462170             0.00228088756             0.00055880098           
       0.462849             0.00148776503            0.000454234475           
       0.463528              0.0032666439            0.000671514729           
       0.464207             0.00183267705            0.000512387658           
       0.464886             0.00276704743            0.000624696481           
       0.465565             0.00141498743            0.000451628994           
       0.466245              0.0022789055            0.000574929057           
       0.466924             0.00118911435            0.000425111114           
       0.467603            0.000994980721            0.000380616082           
       0.468282            0.000596799769            0.000301767449           
       0.468961            0.000765129491             0.00034392933           
       0.469640             0.00154675634            0.000490955118           
       0.470320              0.0013760616            0.000463393403           
       0.470999              0.0017335952            0.000525027192           
       0.471678            0.000817886888            0.000364090295           
       0.472357            0.000337636684            0.000234583807           
       0.473036             0.00166453582            0.000524146255           
       0.473715             0.00120205815            0.000448903356           
       0.474395             0.00106455687            0.000428288838           
       0.475074            0.000378854748            0.000255506139           
       0.475753            0.000527109171            0.000298780042           
       0.476432             0.00112440713            0.000452265015           
       0.477111             0.00161368707            0.000535250382           
       0.477790            0.000224270685            0.000200607807           
       0.478470             0.00041830868            0.000277597545           
       0.479149            0.000994714487            0.000432499243           
       0.479828            0.000415404956            0.000278835713           
       0.480507            6.30173945e-05            0.000109478827           
       0.481186            0.000275237416            0.000233956411           
       0.481865             0.00102315118            0.000445491638           
       0.482545             0.00126088856            0.000500356594           
       0.483224            0.000284109843            0.000239134296           
       0.483903            8.91254292e-05            0.000136046417           
       0.484582           -0.000107646322                         0           
       0.485261            0.000287861843            0.000242180422           
       0.485940            0.000118636254            0.000161745137           
       0.486619            -0.00011435025                         0           
       0.487299           -9.43787366e-05                         0           
       0.487978            0.000106524701            0.000152428161           
       0.488657            0.000154968895             0.00019143605           
       0.489336           -0.000315236108                         0           
       0.490015            0.000353456098            0.000286277299           
       0.490694           -8.34431299e-05                         0           
       0.491374           -0.000315293514                         0           
       0.492053           -0.000315312716                         0           
       0.492732           -0.000315331784                         0           
       0.493411           -0.000315351099                         0           
       0.494090           -7.59756713e-05                         0           
       0.494769            -5.2378032e-05                         0           
       0.495449           -0.000315408943                         0           
       0.496128           -5.06712264e-05                         0           
       0.496807           -3.97421504e-05                         0           
       0.497486           -5.23416054e-05                         0           
       0.498165           -3.55646356e-05                         0           
       0.498844           -0.000315505856                         0           
       0.499524           -0.000315525288                         0           
       0.500203           -0.000315545029                         0           
       0.500882           -0.000315564381                         0           
       0.501561            0.000259263439            0.000277417107           
       0.502240           -2.59214057e-05                         0           
       0.502919           -0.000315623051                         0           
       0.503599           -0.000315642715                         0           
       0.504278           -0.000315662654                         0           
       0.504957           -0.000315682359                         0           
       0.505636            7.17036815e-06            4.79879538e-05           
       0.506315            7.77098288e-06            5.01638253e-05           
       0.506994            1.56907703e-05            7.24848634e-05           
       0.507673           -0.000315760891                         0           
       0.508353           -0.000315780809                         0           
       0.509032           -0.000315800641                         0           
       0.509711           -0.000315820481                         0           
       0.510390           -0.000315840633                         0           
       0.511069           -0.000315860718                         0           
       0.511748           -0.000315880722                         0           
       0.512428            0.000416027729            0.000395838941           
       0.513107           -0.000315920706                         0           
       0.513786            7.44649931e-05            0.000171916459           
       0.514465           -0.000315960844                         0           
       0.515144           -0.000315981068                         0           
       0.515823             7.8577594e-05             0.00017602722           
       0.516503           -0.000316021337                         0           
       0.517182           -0.000316041564                         0           
       0.517861           -0.000316061741                         0           
       0.518540           -0.000316082032                         0           
       0.519219           -0.000316102206                         0           
       0.519898           -0.000316122584                         0           
       0.520578           -0.000316143084                         0           
       0.521257            0.000165279572            0.000283732434           
       0.521936           -0.000316183603                         0           
       0.522615            -0.00031620413                         0           
       0.523294           -0.000316224734                         0           
       0.523973           -0.000316245052                         0           
       0.524653           -0.000316265224                         0           
       0.525332           -0.000316285689                         0           
       0.526011           -0.000316306523                         0           
       0.526690             0.00016562023            0.000282936378           
       0.527369           -0.000316347939                         0           
       0.528048           -0.000316368708                         0           
       0.528728           -0.000316389452                         0           
       0.529407           -0.000316410101                         0           
       0.530086            0.000195377853            0.000318607724           
       0.530765           -0.000316451214                         0           
       0.531444           -0.000316472007                         0           
       0.532123           -0.000316493168                         0           
       0.532802           -0.000316514157                         0           
       0.533482           -0.000316535073                         0           
       0.534161           -0.000316556023                         0           
       0.534840           -0.000316576794                         0           
       0.535519           -0.000316597949                         0           
       0.536198            0.000276585867             0.00040186684           
       0.536877           -0.000316639533                         0           
       0.537557           -0.000316660536                         0           
       0.538236            0.000974314736             0.00079017278           
       0.538915            0.000274000813            0.000403026634           
       0.539594           -0.000316724069                         0           
       0.540273           -0.000316745556                         0           
       0.540952           -0.000316766803                         0           
       0.541632           -0.000316787662                         0           
       0.542311           -0.000316808712                         0           
       0.542990           -0.000316829999                         0           
       0.543669           -0.000316851462                         0           
       0.544348           -0.000316872901                         0           
       0.545027            0.000981686531            0.000806610553           
       0.545707            0.000406728297            0.000544097955           
       0.546386           -0.000316937267                         0           
       0.547065           -0.000316958526                         0           
       0.547744           -0.000316979881                         0           
       0.548423            0.000382216927            0.000519610295           
       0.549102           -0.000317023085                         0           
       0.549782           -0.000317044589                         0           
       0.550461           -0.000317066348                         0           
       0.551140           -0.000317088238                         0           
       0.551819           -0.000317109869                         0           
       0.552498            0.000498930589            0.000636957192           
       0.553177           -0.000317153128                         0           
       0.553856           -0.000317174646                         0           
       0.554536           -0.000317196236                         0           
       0.555215           -0.000317218155                         0           
       0.555894           -0.000317240022                         0           
       0.556573           -0.000317262019                         0           
       0.557252           -0.000317283997                         0           
       0.557931            0.000634686549            0.000776623429           
       0.558611           -0.000317328267                         0           
       0.559290           -0.000317350088                         0           
       0.559969           -0.000317371372                         0           
       0.560648           -0.000317393221                         0           
       0.561327           -0.000317415557                         0           
       0.562006           -0.000317437789                         0           
       0.562686           -0.000317460033                         0           
       0.563365            -0.00031748236                         0           
       0.564044           -0.000317504573                         0           
       0.564723           -0.000317526738                         0           
       0.565402            0.000867464889             0.00101549495           
       0.566081           -0.000317570386                         0           
       0.566761           -0.000317592518                         0           
       0.567440             -0.0003176151                         0           
       0.568119           -0.000317637504                         0           
       0.568798           -0.000317660222                         0           
       0.569477           -0.000317682794                         0           
       0.570156             0.00112178041             0.00127557542           
       0.570836           -0.000317728073                         0           
       0.571515           -0.000317750192                         0           
       0.572194           -0.000317772952                         0           
       0.572873           -0.000317795191                         0           
       0.573552             -0.0003178173                         0           
       0.574231           -0.000317839857                         0           
       0.574911           -0.000317862982                         0           
       0.575590           -0.000317885663                         0           
       0.576269           -0.000317908274                         0           
       0.576948           -0.000317931319                         0           
       0.577627           -0.000317953662                         0           
       0.578306            -0.00031797632                         0           
       0.578985           -0.000317999171                         0           
       0.579665           -0.000318021892                         0           
       0.580344           -0.000318044955                         0           
       0.581023           -0.000318067994                         0           
       0.581702            -0.00031809082                         0           
       0.582381           -0.000318113438                         0           
       0.583060           -0.000318136731                         0           
       0.583740           -0.000318159658                         0           
       0.584419           -0.000318182661                         0           
       0.585098           -0.000318205637                         0           
       0.585777           -0.000318228792                         0           
       0.586456           -0.000318252324                         0           
       0.587135            -0.00031827523                         0           
       0.587815           -0.000318297889                         0           
       0.588494           -0.000318321254                         0           
       0.589173           -0.000318345155                         0           
       0.589852           -0.000318367786                         0           
       0.590531           -0.000318391271                         0           
       0.591210           -0.000318414213                         0           
       0.591890           -0.000318437599                         0           
       0.592569           -0.000318460202                         0           
       0.593248           -0.000318484914                         0           
       0.593927            -0.00031850841                         0           
       0.594606           -0.000318532388                         0           
       0.595285           -0.000318554939                         0           
       0.595965           -0.000318575981                         0           
       0.596644           -0.000318597635                         0           
