################################################################################
# EDF_DataBlockID                     0.Image.Psd
# EDF_BinarySize                      2105344
# EDF_HeaderSize                      2560
# ByteOrder                           LowByteFirst
# DataType                            FloatValue
# Dim_1                               512
# Dim_2                               1028
# Image                               0
# HeaderID                            EH:000000:000000:000000
# Size                                2105344
# Center_1                            304.9000
# Center_2                            588.7000
# Comment                             Xenocs_Cell_Window - 20251028_20perc_iodine_1.23mg
# DDummy                              0.6
# Date                                2025-10-31T14:51:05
# Delta                               21.910000
# Dummy                               -1.5
# ExposureTime                        360
# Gamma                               15.360000
# Intensity1                          8.58867e-10
# PSize_1                             7.5e-05
# PSize_2                             7.5e-05
# Pressure                            0.0326748
# SampleDistance                      0.115750
# SampleEnvKind                       large
# SampleEnvPN                         ElectroChemical cell
# SampleEnvSN                         1141
# Thickness                           0
# Wavelength                          1.541891e-10
# Wavelength                          1.54189e-10
# aux                                 0
# aux_dial                            0.002375
# beamx                               588.434
# beamx_dial                          588.434
# beamz                               657.808
# beamz_dial                          657.808
# det0x                               0
# det0x_dial                          6.36945
# det0xvd                             0
# det0xvd_dial                        0
# det0y                               450.002
# det0y_dial                          481.635
# det0z                               0
# det0z_dial                          1.23302
# det0zvd                             0
# det0zvd_dial                        0
# mag                                 1.818
# mag_dial                            1.818
# om                                  0.2499
# om_dial                             -0.610199
# phi                                 -0.0120535
# phi_dial                            0
# ry                                  0.599993
# ry_dial                             0.599993
# s1bot                               0.8
# s1bot_dial                          -1.66094
# s1hl                                0.8
# s1hl_dial                           -0.608437
# s1hr                                0.8
# s1hr_dial                           0.970938
# s1top                               0.8
# s1top_dial                          -0.461562
# s2bot                               0.45
# s2bot_dial                          1.36109
# s2hl                                0.45
# s2hl_dial                           -0.83375
# s2hr                                0.45
# s2hr_dial                           -0.118594
# s2top                               0.45
# s2top_dial                          1.44734
# w2theta                             32
# w2theta_dial                        32
# waxsch                              19.2605
# waxsch_dial                         -32.7355
# waxsh                               137.085
# waxsh_dial                          -43.5338
# waxsth                              26.0607
# waxsth_dial                         -19.4086
# waxsz                               67.0407
# waxsz_dial                          -23.7954
# wind                                65.9854
# wind_dial                           66.0041
# wpsi                                124
# wpsi_dial                           124
# wstod                               115
# wstod_dial                          115
# x                                   0
# x_dial                              1.00969
# z                                   0
# z_dial                              13.3172
# CountCutoff                         6807993
# DetectorModel                       Dectris EIGER2 Si 500K, S/N E-01-0554
# ThresholdSetting                    4023.88989258
# Saturation                          0
# FlatField                           Corrected
# BackgroundReductionExtra            0.02
# BackgroundCorrectionConstant        0.0026712
# Detector                            0
# Monitor                             0
# Pil_Roi0                            0
# SumForIntensity1                    3.09192e+08
# TransmittedFlux                     858867
# det                                 0
# mon                                 0
# pilai0                              3.09192e+08
# pilai1                              780563
# pilct0                              5.34622e+08
# pilct1                              780563
# pilroi0                             0
# pilroi1                             0
# sec                                 1
# title                               20251028_20perc_iodine_1.23mg_1_00659.edf
# usaxs0                              0
# Operation                           Azimuthal average I(q)
# Error_model                         ErrorModel.poisson
# Geometrical_correction              True
# Transmission_correction             True
# Thickness_correction                False
# Binning mode                        Uniform
# Binning factor                      1.0
# Psi                                 0.0
# Omega                               0.2499
# MaskInvalidPixels                   True
# DetectorEdge                        3
# MaskFiles                           ['WAXS_corrected.edf']
################################################################################
    q(A⁻¹)                Intensity(a.u.)            Sigma_I(a.u.)            
       0.693100            -2.3639519e-05                         0           
       0.695741             0.00555976124              0.0040475004           
       0.698381             0.00425218437             0.00433588475           
       0.701021              0.0087765153             0.00880612667           
       0.703662             0.00280495512             0.00287359985           
       0.706302             0.00848222293             0.00386879154           
       0.708942           -2.35564999e-05                         0           
       0.711583           -2.35516363e-05                         0           
       0.714223             0.00286753935             0.00290256497           
       0.716864             0.00744448491             0.00305995731           
       0.719504              0.0102541568             0.00387539409           
       0.722144              0.0075228255             0.00307399536           
       0.724785             0.00721537341             0.00240144986           
       0.727425             0.00732972455             0.00327437181           
       0.730065             0.00649974235             0.00218108933           
       0.732706              0.0096904769             0.00223638568           
       0.735346             0.00786799604             0.00262681994           
       0.737987              0.0095739302             0.00204757792           
       0.740627             0.00961513565             0.00306167791           
       0.743267             0.00779159872             0.00184602357           
       0.745908              0.0119176381             0.00247701008           
       0.748548             0.00830885491              0.0019064161           
       0.751189             0.00636520468             0.00224838058           
       0.753829             0.00398595761             0.00163551707           
       0.756469             0.00476260276             0.00144159833           
       0.759110             0.00432666435             0.00144800223           
       0.761750              0.0086645869             0.00181187078           
       0.764390             0.00740572159             0.00175324434           
       0.767031              0.0064721997              0.0014193316           
       0.769671             0.00827146826              0.0020015381           
       0.772312             0.00559151544             0.00125281999           
       0.774952             0.00356419233             0.00135071645           
       0.777592             0.00948872987             0.00160525805           
       0.780233             0.00670784474             0.00162838123           
       0.782873             0.00718397394             0.00161171998           
       0.785513             0.00659623847             0.00165104597           
       0.788154             0.00835809817             0.00155470715           
       0.790794             0.00907279282             0.00193653074           
       0.793435             0.00663143457             0.00148733179           
       0.796075             0.00773147495             0.00154703969           
       0.798715             0.00773394246             0.00182845169           
       0.801356              0.0101690678              0.0018045109           
       0.803996             0.00858945324             0.00169080846           
       0.806637             0.00778374815             0.00128090895           
       0.809277             0.00690938428             0.00130624572           
       0.811917             0.00906448394             0.00139866722           
       0.814558             0.00787708372             0.00135511279           
       0.817198             0.00819180919             0.00131288796           
       0.819838             0.00579708173             0.00111777573           
       0.822479             0.00563439503             0.00129402513           
       0.825119             0.00472420222             0.00100850261           
       0.827760              0.0046286514             0.00101119022           
       0.830400             0.00502080298            0.000991213976           
       0.833040              0.0100722104             0.00147087878           
       0.835681             0.00750600311             0.00144349055           
       0.838321             0.00781755167             0.00123645602           
       0.840961             0.00507817099             0.00108578277           
       0.843602             0.00990604777             0.00139068309           
       0.846242             0.00680484278             0.00115245037           
       0.848883             0.00799907142             0.00127867374           
       0.851523             0.00676408857             0.00116122419           
       0.854163             0.00719151877             0.00127332982           
       0.856804             0.00984536637              0.0013395918           
       0.859444             0.00592143693             0.00101791271           
       0.862085             0.00608998618             0.00107591304           
       0.864725             0.00794536313             0.00125767938           
       0.867365             0.00806010637              0.0011746253           
       0.870006             0.00898391821             0.00118173403           
       0.872646              0.0121780516             0.00144278463           
       0.875286             0.00711480204             0.00106095514           
       0.877927             0.00795364949             0.00108244332           
       0.880567             0.00569499983            0.000948936321           
       0.883208             0.00680458911             0.00102749644           
       0.885848             0.00867327791             0.00120446516           
       0.888488             0.00673197785            0.000995286718           
       0.891129             0.00543174891            0.000917970862           
       0.893769             0.00681503675            0.000984049386           
       0.896410             0.00858990096             0.00103004462           
       0.899050             0.00626139803            0.000967125753           
       0.901690             0.00779083599              0.0011751223           
       0.904331             0.00738825495             0.00101453652           
       0.906971             0.00706877476             0.00105570653           
       0.909611             0.00744434272            0.000986230506           
       0.912252             0.00639926326             0.00094446617           
       0.914892             0.00880974115             0.00121098411           
       0.917533             0.00519794563            0.000879958509           
       0.920173             0.00948308019             0.00110274983           
       0.922813             0.00704780599            0.000997619849           
       0.925454             0.00801223885            0.000957823489           
       0.928094             0.00622965591            0.000901659901           
       0.930734             0.00756095506             0.00106944315           
       0.933375             0.00694669518             0.00101500453           
       0.936015             0.00780992042            0.000977440427           
       0.938656             0.00817743899             0.00107295059           
       0.941296             0.00751959785            0.000932456429           
       0.943936             0.00768379972            0.000924348002           
       0.946577             0.00722789524             0.00089057949           
       0.949217             0.00741665526            0.000829593573           
       0.951858             0.00753354379             0.00087523541           
       0.954498              0.0058636878            0.000893768439           
       0.957138             0.00806305312            0.000992900743           
       0.959779             0.00592752421            0.000839226366           
       0.962419             0.00794255466            0.000964992913           
       0.965059              0.0107734278              0.0011820305           
       0.967700             0.00733006538            0.000998595863           
       0.970340             0.00755866902              0.0008973321           
       0.972981             0.00767553038            0.000823851341           
       0.975621             0.00811496286            0.000901175162           
       0.978261              0.0073090458            0.000812643894           
       0.980902             0.00747410644            0.000983205209           
       0.983542             0.00862051275            0.000935086114           
       0.986182             0.00764594984            0.000864611667           
       0.988823             0.00764634872            0.000839561326           
       0.991463             0.00765636155            0.000896310619           
       0.994104              0.0077739108            0.000881051369           
       0.996744             0.00696794205            0.000850805887           
       0.999384             0.00833249056            0.000832081048           
       1.002025             0.00963137426            0.000998476732           
       1.004665              0.0073704493            0.000798230287           
       1.007306             0.00762981274            0.000807996523           
       1.009946              0.0076559663            0.000825454535           
       1.012586             0.00767539371            0.000804963483           
       1.015227             0.00777407512            0.000870324227           
       1.017867             0.00919566755            0.000909710015           
       1.020507             0.00776506217            0.000809737726           
       1.023148             0.00824186692              0.0009001547           
       1.025788             0.00800253201            0.000813298653           
       1.028429             0.00825692025            0.000865501053           
       1.031069             0.00818873689            0.000811099957           
       1.033709             0.00715218459            0.000805785685           
       1.036350             0.00797834126            0.000764361743           
       1.038990              0.0074380584            0.000751589578           
       1.041630             0.00827386929            0.000826787309           
       1.044271             0.00728435274            0.000729586828           
       1.046911             0.00653768145            0.000727034905           
       1.049552             0.00750949067            0.000818647863           
       1.052192             0.00736371208            0.000740237977           
       1.054832              0.0094743934            0.000847288908           
       1.057473             0.00787572152            0.000761526292           
       1.060113             0.00770008541            0.000734367111           
       1.062754             0.00985335126             0.00084815587           
       1.065394             0.00790367273            0.000803117982           
       1.068034             0.00856730858            0.000760786902           
       1.070675              0.0077167248            0.000753169615           
       1.073315             0.00750466137            0.000753394911           
       1.075955             0.00680813911            0.000677438129           
       1.078596             0.00837866259            0.000798720776           
       1.081236             0.00943153934            0.000811460348           
       1.083877              0.0088536529            0.000779154859           
       1.086517             0.00935351295            0.000858743063           
       1.089157             0.00969202024            0.000907022417           
       1.091798              0.0078042616            0.000713568951           
       1.094438               0.008294191            0.000733251688           
       1.097078             0.00775425692            0.000679989602           
       1.099719             0.00838159821             0.00076468666           
       1.102359             0.00907850276            0.000745316161           
       1.105000             0.00825343727            0.000794636208           
       1.107640             0.00988048193            0.000831326728           
       1.110280             0.00895488429             0.00072211978           
       1.112921             0.00961128245            0.000803640157           
       1.115561             0.00765236364            0.000681526306           
       1.118202             0.00865128067            0.000725327352           
       1.120842              0.0106259196             0.00084485564           
       1.123482             0.00765101207             0.00071376903           
       1.126123             0.00941798172            0.000759576736           
       1.128763              0.0101154104            0.000792596203           
       1.131403             0.00872067339            0.000709129522           
       1.134044             0.00842001526            0.000717007004           
       1.136684               0.008397225            0.000763418526           
       1.139325             0.00942902002             0.00074521481           
       1.141965             0.00983646131             0.00076617727           
       1.144605             0.00872494281            0.000688039163           
       1.147246             0.00880564814            0.000707397743           
       1.149886             0.00784279863            0.000665233442           
       1.152527             0.00887485047            0.000717941561           
       1.155167             0.00729319529            0.000619038359           
       1.157807             0.00917197388            0.000744315397           
       1.160448             0.00859610872            0.000703655654           
       1.163088             0.00875052639            0.000677185579           
       1.165728             0.00912063858            0.000709830724           
       1.168369              0.0108562109            0.000781583086           
       1.171009             0.00804048843            0.000652770671           
       1.173650             0.00886029343             0.00070322086           
       1.176290              0.0101358389            0.000735007568           
       1.178930             0.00977461664            0.000707421491           
       1.181571              0.0104210267            0.000744923326           
       1.184211               0.010291395            0.000742900318           
       1.186851             0.00999586216            0.000715818244           
       1.189492              0.0095255726            0.000694075289           
       1.192132              0.0101204572            0.000707393018           
       1.194773             0.00972554959            0.000696484074           
       1.197413              0.0102189361            0.000684048102           
       1.200053              0.0109936109            0.000727529964           
       1.202694             0.00928139265            0.000635684555           
       1.205334             0.00939292353            0.000689172802           
       1.207975             0.00915680622            0.000649513995           
       1.210615              0.0110396262            0.000786748804           
       1.213255             0.00966487684            0.000659191345           
       1.215896             0.00940264736            0.000661967926           
       1.218536              0.0100176415             0.00065699677           
       1.221176             0.00947191804            0.000694561915           
       1.223817             0.00941402171            0.000650001362           
       1.226457              0.0100319399            0.000684512809           
       1.229098             0.00994056916            0.000681355218           
       1.231738             0.00985278194            0.000681678496           
       1.234378              0.0102743787            0.000654100073           
       1.237019             0.00834989771            0.000607646496           
       1.239659             0.00989962589            0.000655873516           
       1.242299             0.00938363008            0.000630438928           
       1.244940             0.00939685047            0.000613573152           
       1.247580              0.0105877482            0.000671211592           
       1.250221              0.0098661641             0.00064393756           
       1.252861             0.00952538562            0.000602351525           
       1.255501             0.00916338681            0.000641490344           
       1.258142             0.00982510694            0.000624180892           
       1.260782              0.0101394711            0.000647807839           
       1.263423             0.00969709873            0.000608739842           
       1.266063              0.0103344647            0.000644119627           
       1.268703             0.00997459754            0.000627554424           
       1.271344              0.0104900547            0.000665376136           
       1.273984             0.00958898473            0.000614402658           
       1.276624             0.00996554066            0.000614583229           
       1.279265                0.01059483            0.000644214029           
       1.281905              0.0104982963            0.000644118534           
       1.284546              0.0111396821            0.000641335656           
       1.287186              0.0105857136            0.000613373543           
       1.289826             0.00982646806            0.000622831493           
       1.292467              0.0108075221            0.000638796157           
       1.295107              0.0106126683            0.000626723308           
       1.297747              0.0104781516            0.000595909261           
       1.300388              0.0118711895            0.000691451478           
       1.303028              0.0102025119            0.000611951324           
       1.305669              0.0107221186            0.000642278501           
       1.308309              0.0114891358            0.000658307472           
       1.310949              0.0108196387            0.000638197076           
       1.313590              0.0103038052            0.000603330093           
       1.316230              0.0111995855            0.000671240386           
       1.318871               0.010678747            0.000641929375           
       1.321511              0.0108224836             0.00063425699           
       1.324151                0.01079885            0.000614781239           
       1.326792               0.010942869            0.000622693264           
       1.329432              0.0124861662            0.000660461531           
       1.332072              0.0110010206            0.000610700718           
       1.334713              0.0127141639            0.000677606097           
       1.337353               0.012397759            0.000641700881           
       1.339994              0.0111629615            0.000638986925           
       1.342634              0.0123108102            0.000643481021           
       1.345274              0.0122045517            0.000663062176           
       1.347915              0.0112975578            0.000620331638           
       1.350555              0.0110397788            0.000623953404           
       1.353195              0.0112189111            0.000632084498           
       1.355836               0.010966155            0.000615179162           
       1.358476               0.010730955            0.000590990833           
       1.361117              0.0107922476            0.000593489746           
       1.363757              0.0105396205            0.000604410934           
       1.366397              0.0112474934            0.000605483714           
       1.369038               0.009974722            0.000575874668           
       1.371678              0.0101774607            0.000576569349           
       1.374319              0.0111862839            0.000599264995           
       1.376959              0.0102860594            0.000568867202           
       1.379599              0.0115825649            0.000646935286           
       1.382240              0.0104974326            0.000578839966           
       1.384880              0.0106641628            0.000617972969           
       1.387520              0.0112755488            0.000603497517           
       1.390161              0.0104273935            0.000551198841           
       1.392801              0.0105179299            0.000576783553           
       1.395442              0.0122571484            0.000631151736           
       1.398082              0.0113087699            0.000567720161           
       1.400722              0.0111113246            0.000589459623           
       1.403363              0.0110419081             0.00061853666           
       1.406003              0.0115902223            0.000593065673           
       1.408644               0.011512426            0.000619186273           
       1.411284              0.0112822254            0.000580422939           
       1.413924              0.0114577266            0.000582751466           
       1.416565              0.0110436512            0.000569877052           
       1.419205              0.0118417522            0.000615578665           
       1.421845              0.0121126974            0.000622215641           
       1.424486              0.0115473993            0.000583969059           
       1.427126              0.0108935262            0.000589205364           
       1.429767               0.010510197            0.000544529481           
       1.432407             0.00999264936            0.000555654993           
       1.435047             0.00969609913            0.000514050483           
       1.437688              0.0115737814            0.000570020251           
       1.440328              0.0109942814            0.000567018003           
       1.442968                0.01156775            0.000594649524           
       1.445609              0.0112222845             0.00056712269           
       1.448249              0.0108053427            0.000570577714           
       1.450890              0.0110890982            0.000574248318           
       1.453530              0.0108844863            0.000595210755           
       1.456170             0.00970224426            0.000545392223           
       1.458811               0.010097608            0.000532035351           
       1.461451               0.010995021             0.00055663055           
       1.464092              0.0109320193            0.000558662217           
       1.466732             0.00996058066            0.000528680514           
       1.469372               0.011036571            0.000543479804           
       1.472013              0.0110164703            0.000585619812           
       1.474653             0.00999668669            0.000549250943           
       1.477293              0.0114138032            0.000599261411           
       1.479934              0.0108077484             0.00055643213           
       1.482574              0.0109053879            0.000540687068           
       1.485215              0.0106767194            0.000544952646           
       1.487855               0.011185614            0.000565146924           
       1.490495               0.010848155            0.000554506924           
       1.493136              0.0109356161              0.0005491066           
       1.495776              0.0106928687            0.000540505541           
       1.498416              0.0105980535            0.000555709062           
       1.501057              0.0122349508            0.000583925296           
       1.503697              0.0108347371            0.000537221013           
       1.506338             0.00965525511            0.000516404624           
       1.508978               0.011044283             0.00054687099           
       1.511618              0.0108226153            0.000576540542           
       1.514259              0.0115061564             0.00057393153           
       1.516899              0.0107291548            0.000539620981           
       1.519540              0.0106722853            0.000546867657           
       1.522180              0.0107171867            0.000552830914           
       1.524820              0.0107255447            0.000549943588           
       1.527461              0.0109186813             0.00055761718           
       1.530101              0.0113427086            0.000562657566           
       1.532741              0.0106789785            0.000542778848           
       1.535382              0.0108259861            0.000555300058           
       1.538022              0.0104264577            0.000513378513           
       1.540663              0.0103093807            0.000549061426           
       1.543303              0.0104030797            0.000512124023           
       1.545943              0.0104780138            0.000543994156           
       1.548584              0.0107022513            0.000559653257           
       1.551224              0.0112027002            0.000529412422           
       1.553864              0.0108871827            0.000551488972           
       1.556505              0.0108197283            0.000531099658           
       1.559145              0.0107420109            0.000535671305           
       1.561786              0.0106421453            0.000533586123           
       1.564426             0.00979028047            0.000495866314           
       1.567066             0.00982155508            0.000520401904           
       1.569707              0.0099033856            0.000513178414           
       1.572347             0.00964144307            0.000523106248           
       1.574988              0.0102816842            0.000514175608           
       1.577628             0.00969481128            0.000520631748           
       1.580268             0.00974036444            0.000505620429           
       1.582909              0.0103694677            0.000552974129           
       1.585549              0.0101460119            0.000531103542           
       1.588189             0.00955057262            0.000504037225           
       1.590830             0.00975072884            0.000508652305           
       1.593470              0.0101142846            0.000538560644           
       1.596111             0.00989009851            0.000519942557           
       1.598751             0.00920691655            0.000486094733           
       1.601391             0.00994655349            0.000516389837           
       1.604032             0.00949152193            0.000514985148           
       1.606672             0.00854929961            0.000474872792           
       1.609312              0.0104320764            0.000547582101           
       1.611953              0.0100171774            0.000525079475           
       1.614593             0.00945461721            0.000500389606           
       1.617234             0.00921849592            0.000512075498           
       1.619874             0.00903775754            0.000505027856           
       1.622514             0.00891604921            0.000494773035           
       1.625155             0.00975200006            0.000520504737           
       1.627795             0.00932739008            0.000496574466           
       1.630436              0.0094393189            0.000496936573           
       1.633076              0.0100378785            0.000519171108           
       1.635716             0.00942246301            0.000495178062           
       1.638357             0.00913063339             0.00048873434           
       1.640997             0.00913645803            0.000503699679           
       1.643637             0.00996166379            0.000511813608           
       1.646278             0.00923839839            0.000508369892           
       1.648918             0.00846683809            0.000488006067           
       1.651559             0.00968811932            0.000526068245           
       1.654199             0.00966499344            0.000511036552           
       1.656839             0.00902474425            0.000493992329           
       1.659480             0.00891634053            0.000509455077           
       1.662120             0.00867464255            0.000473274724           
       1.664761              0.0085563232            0.000488246064           
       1.667401             0.00919038878            0.000483640559           
       1.670041             0.00926324771            0.000492957461           
       1.672682             0.00848166131             0.00046976382           
       1.675322             0.00909195967              0.0004832436           
       1.677962             0.00894246912            0.000473967584           
       1.680603             0.00870039277             0.00046894696           
       1.683243             0.00894601251            0.000496116732           
       1.685884             0.00881592986            0.000496133454           
       1.688524             0.00959479363            0.000507580696           
       1.691164             0.00929860682            0.000499798309           
       1.693805             0.00765341565            0.000458414527           
       1.696445             0.00806632951            0.000473348104           
       1.699085             0.00901300176            0.000483588096           
       1.701726              0.0096788461             0.00048275379           
       1.704366             0.00899732336            0.000490336026           
       1.707007             0.00824887138            0.000459033078           
       1.709647             0.00873712506            0.000477758068           
       1.712287             0.00887620455            0.000485737075           
       1.714928             0.00786099299            0.000460801417           
       1.717568             0.00855478365            0.000452827037           
       1.720209             0.00912716004            0.000489915229           
       1.722849             0.00896985827            0.000483178261           
       1.725489             0.00876174874            0.000477941248           
       1.728130              0.0081786333            0.000490725069           
       1.730770             0.00836214044            0.000471256476           
       1.733410             0.00851355658            0.000468029475           
       1.736051             0.00890834862             0.00048209065           
       1.738691             0.00926865957             0.00048177516           
       1.741332             0.00943331572             0.00050024765           
       1.743972             0.00890659435            0.000501961251           
       1.746612             0.00866095294            0.000475317433           
       1.749253             0.00897331389            0.000493367299           
       1.751893             0.00821061539            0.000468470479           
       1.754533             0.00899171069            0.000489789835           
       1.757174             0.00752666477            0.000443919051           
       1.759814             0.00944240763            0.000489677787           
       1.762455             0.00820394377            0.000464817642           
       1.765095             0.00850741055            0.000452803876           
       1.767735             0.00863239369            0.000470189068           
       1.770376             0.00797160034             0.00045302595           
       1.773016             0.00794177193            0.000449148774           
       1.775657             0.00867363164            0.000462634166           
       1.778297             0.00889065952            0.000464353109           
       1.780937             0.00937210143            0.000503220061           
       1.783578             0.00894373971            0.000479293744           
       1.786218             0.00827415121            0.000481107244           
       1.788858             0.00890806715            0.000474116638           
       1.791499             0.00809735375            0.000446950971           
       1.794139              0.0084654796            0.000453290096           
       1.796780             0.00888662742            0.000462189608           
       1.799420             0.00922863186            0.000468391118           
       1.802060             0.00951454133            0.000479432812           
       1.804701             0.00925832302            0.000453848414           
       1.807341             0.00980244682            0.000490709802           
       1.809981             0.00915266313            0.000475747782           
       1.812622             0.00912951779            0.000466591697           
       1.815262              0.0085493718            0.000461114719           
       1.817903             0.00890882917            0.000463734241           
       1.820543              0.0081843208            0.000451403866           
       1.823183             0.00919959291            0.000478320989           
       1.825824             0.00891653391            0.000449883422           
       1.828464             0.00909853789            0.000473785576           
       1.831105             0.00871908097            0.000450977587           
       1.833745             0.00875525576            0.000461563628           
       1.836385             0.00858485296            0.000470093363           
       1.839026                0.00800628            0.000452541876           
       1.841666             0.00934245453            0.000487114623           
       1.844306             0.00868200071             0.00045676832           
       1.846947             0.00894245956            0.000467632709           
       1.849587             0.00769277908            0.000478941472           
       1.852228             0.00869590237            0.000460453319           
       1.854868             0.00909452602            0.000497424322           
       1.857508             0.00754220313            0.000448544517           
       1.860149             0.00857293127            0.000486901148           
       1.862789             0.00852712432            0.000468714948           
       1.865429             0.00862807689            0.000492154383           
       1.868070             0.00891051354            0.000493478706           
       1.870710             0.00836112271            0.000467002977           
       1.873351             0.00752846875            0.000448617935           
       1.875991              0.0085397458            0.000485597385           
       1.878631             0.00851607725            0.000475636617           
       1.881272             0.00824591003            0.000464895234           
       1.883912             0.00811184533            0.000479871548           
       1.886553             0.00888834587            0.000496698534           
       1.889193             0.00823902214            0.000477394645           
       1.891833             0.00831080099            0.000497947961           
       1.894474             0.00820995808            0.000490607465           
       1.897114             0.00954477183            0.000511891397           
       1.899754             0.00807486173            0.000472798331           
       1.902395              0.0091191746            0.000492618904           
       1.905035             0.00900668776            0.000518537955           
       1.907676             0.00816767959            0.000465403943           
       1.910316             0.00843277807            0.000485452651           
       1.912956             0.00914196264            0.000494333524           
       1.915597             0.00813109013            0.000468808185           
       1.918237             0.00896979375            0.000508522343           
       1.920878             0.00824695767             0.00048560617           
       1.923518             0.00836900564            0.000489393812           
       1.926158             0.00952744093            0.000515391411           
       1.928799              0.0087885938            0.000489274228           
       1.931439             0.00857507083            0.000495970421           
       1.934079             0.00915631292            0.000534272777           
       1.936720             0.00821569256            0.000468903918           
       1.939360             0.00812845128            0.000497591937           
       1.942001              0.0081941481            0.000457907843           
       1.944641             0.00750195192            0.000446770799           
       1.947281             0.00872365515            0.000477337127           
       1.949922             0.00720452651            0.000448065828           
       1.952562             0.00838369286            0.000498495234           
       1.955202             0.00760916928              0.0004743318           
       1.957843             0.00785340885            0.000469387593           
       1.960483             0.00795802391             0.00049400188           
       1.963124             0.00813464306            0.000489207194           
       1.965764             0.00833668669             0.00046703015           
       1.968404             0.00845964997            0.000466016704           
       1.971045             0.00804971547            0.000463473791           
       1.973685             0.00730857139            0.000463229004           
       1.976326             0.00804791927            0.000479414406           
       1.978966             0.00855454938            0.000498611763           
       1.981606             0.00800358807            0.000492346266           
       1.984247             0.00761805369            0.000477183696           
       1.986887             0.00801816586            0.000483690266           
       1.989527             0.00727444056            0.000455750526           
       1.992168             0.00813391582            0.000500035452           
       1.994808             0.00838283921            0.000505453128           
       1.997449             0.00836882857            0.000494658983           
       2.000089             0.00785841658            0.000477436734           
       2.002729             0.00804125928            0.000483248633           
       2.005370             0.00857981737            0.000493798114           
       2.008010             0.00788725358            0.000494112014           
       2.010650             0.00725268902            0.000477354085           
       2.013291             0.00841725855            0.000493396852           
       2.015931             0.00805367488            0.000479211469           
       2.018572             0.00818048874            0.000516581644           
       2.021212             0.00738316685            0.000481944346           
       2.023852             0.00796661448            0.000473817888           
       2.026493             0.00855003174            0.000512791513           
       2.029133             0.00782307428            0.000480636553           
       2.031774             0.00748078609            0.000493258905           
       2.034414             0.00749670069            0.000454349236           
       2.037054             0.00789499317            0.000478080842           
       2.039695             0.00693274247            0.000444616433           
       2.042335             0.00766097983            0.000485716029           
       2.044975             0.00859960311            0.000508370664           
       2.047616             0.00855525562            0.000505798591           
       2.050256             0.00782052483             0.00048816846           
       2.052897             0.00801873095            0.000503428909           
       2.055537             0.00699160081            0.000454316403           
       2.058177              0.0063860863            0.000425196609           
       2.060818             0.00859815701            0.000516846083           
       2.063458             0.00768585835            0.000509229846           
       2.066098             0.00749674672            0.000474427682           
       2.068739             0.00764094432            0.000486413768           
       2.071379             0.00634825646            0.000454926182           
       2.074020             0.00785075648            0.000494910826           
       2.076660             0.00753441127            0.000488756519           
       2.079300             0.00714336804            0.000487564671           
       2.081941             0.00726050221            0.000450066236           
       2.084581             0.00732269193            0.000477079481           
       2.087222             0.00803883092             0.00048207099           
       2.089862             0.00740237308            0.000503835498           
       2.092502             0.00754786019            0.000493172736           
       2.095143             0.00739041183            0.000503934883           
       2.097783             0.00743769573            0.000489452074           
       2.100423             0.00750387182            0.000473725627           
       2.103064             0.00814545622              0.0005121371           
       2.105704             0.00665542063            0.000460638005           
       2.108345             0.00688100291            0.000449987461           
       2.110985             0.00687956955             0.00048056911           
       2.113625             0.00714705156            0.000494096851           
       2.116266             0.00758388343             0.00051619378           
       2.118906              0.0075960792             0.00048145033           
       2.121546             0.00811446163            0.000488106288           
       2.124187             0.00746840426            0.000491541278           
       2.126827             0.00794342677            0.000512590123           
       2.129468             0.00698674857            0.000481960851           
       2.132108             0.00771823882            0.000492847076           
       2.134748             0.00756893769            0.000486163441           
       2.137389             0.00762110278               0.000508934           
       2.140029             0.00769056451            0.000457700459           
       2.142670             0.00775159394             0.00049109138           
       2.145310             0.00787905794            0.000481901932           
       2.147950             0.00739689574            0.000480592118           
       2.150591             0.00708228627             0.00046550816           
       2.153231             0.00691607145            0.000473512071           
       2.155871             0.00734230293            0.000471329359           
       2.158512             0.00659167829            0.000465982155           
       2.161152             0.00742055075            0.000478918696           
       2.163793             0.00742104654             0.00047677858           
       2.166433             0.00727501037            0.000484760091           
       2.169073              0.0075017139            0.000481295912           
       2.171714             0.00716993536            0.000467014958           
       2.174354             0.00708012234            0.000484921512           
       2.176995             0.00685941018            0.000475294945           
       2.179635              0.0074440276            0.000523216874           
       2.182275             0.00752492467             0.00049667674           
       2.184916             0.00654830636            0.000447513322           
       2.187556             0.00782149456            0.000484185209           
       2.190196             0.00769573649            0.000501882937           
       2.192837             0.00708636783            0.000478982684           
       2.195477             0.00738811026            0.000466274052           
       2.198118             0.00773627458            0.000489360015           
       2.200758             0.00775494021            0.000502658969           
       2.203398             0.00755487572            0.000499306658           
       2.206039             0.00733253879            0.000465546056           
       2.208679             0.00789053682            0.000494174309           
       2.211319             0.00690744991            0.000465031859           
       2.213960             0.00745931822            0.000489726479           
       2.216600             0.00653445989            0.000474165553           
       2.219241             0.00672139468            0.000459610532           
       2.221881             0.00804985593            0.000504018347           
       2.224521             0.00795627809            0.000507220391           
       2.227162             0.00733004476             0.00047710198           
       2.229802             0.00648204354            0.000462701139           
       2.232443             0.00751995611            0.000490509662           
       2.235083             0.00682143821            0.000480953496           
       2.237723             0.00876785221            0.000523265871           
       2.240364              0.0069877898            0.000478646865           
       2.243004             0.00719761548            0.000481902249           
       2.245644             0.00708466507            0.000482891681           
       2.248285             0.00763379631             0.00049121522           
       2.250925             0.00753032123            0.000490838327           
       2.253566             0.00738610965            0.000519694829           
       2.256206             0.00766471169            0.000518819979           
       2.258846              0.0072781321            0.000480934097           
       2.261487             0.00691460111            0.000492016871           
       2.264127             0.00758669315            0.000497740263           
       2.266767             0.00757583301            0.000510635554           
       2.269408             0.00782815533            0.000521195173           
       2.272048             0.00754419023            0.000508600588           
       2.274689             0.00746570585             0.00051261465           
       2.277329             0.00724113033            0.000475344868           
       2.279969             0.00747244391            0.000513995433           
       2.282610             0.00658441918            0.000469068853           
       2.285250             0.00679408065            0.000456054568           
       2.287891             0.00757997012            0.000516465312           
       2.290531             0.00723289744            0.000511284655           
       2.293171             0.00835376431            0.000535238061           
       2.295812             0.00778984848            0.000514779389           
       2.298452             0.00788377704            0.000541558212           
       2.301092             0.00733002368            0.000485181038           
       2.303733              0.0073019918            0.000503791683           
       2.306373             0.00747728695            0.000517831588           
       2.309014             0.00658362452            0.000476423539           
       2.311654             0.00717585224            0.000519050522           
       2.314294             0.00749630481             0.00048876412           
       2.316935             0.00775271839             0.00049910654           
       2.319575             0.00703058608            0.000497997748           
       2.322215             0.00758845963            0.000539195802           
       2.324856             0.00787763689            0.000505091912           
       2.327496             0.00727483222            0.000516113792           
       2.330137             0.00674308737            0.000475489963           
       2.332777             0.00645345257            0.000479635804           
       2.335417             0.00804802567            0.000519635583           
       2.338058             0.00687079506            0.000494471236           
       2.340698             0.00693579652            0.000492900619           
       2.343339              0.0065334892            0.000488919319           
       2.345979             0.00759869623            0.000498840609           
       2.348619             0.00753846603            0.000515021673           
       2.351260             0.00687563562            0.000488993105           
       2.353900             0.00765105116            0.000514196272           
       2.356540             0.00675207895             0.00048235879           
       2.359181             0.00699636921             0.00048412346           
       2.361821             0.00642744906            0.000448233421           
       2.364462             0.00767890532            0.000512406111           
       2.367102             0.00729411155            0.000513216111           
       2.369742             0.00684382067            0.000523255731           
       2.372383             0.00712827363            0.000483553062           
       2.375023             0.00635034042            0.000479780627           
       2.377663             0.00685494172            0.000476618263           
       2.380304             0.00682435419            0.000483482999           
       2.382944             0.00764712652            0.000487472497           
       2.385585             0.00688469311            0.000493300041           
       2.388225             0.00866250567            0.000550738053           
       2.390865             0.00734319116            0.000501858739           
       2.393506             0.00765624474            0.000502776798           
       2.396146             0.00746660351             0.00053685009           
       2.398787             0.00721070212            0.000486196887           
       2.401427             0.00764089467            0.000483088344           
       2.404067             0.00782357199            0.000499732658           
       2.406708             0.00733650095            0.000478123736           
       2.409348              0.0069352749            0.000493081187           
       2.411988             0.00653416813            0.000468931898           
       2.414629             0.00719353978             0.00050734712           
       2.417269             0.00717283703            0.000512531417           
       2.419910             0.00670008249            0.000496502771           
       2.422550               0.007891698            0.000515537201           
       2.425190             0.00725670122            0.000521108357           
       2.427831             0.00722317388            0.000516980596           
       2.430471              0.0073934113            0.000498294038           
       2.433112             0.00738704395            0.000485010631           
       2.435752             0.00824742619             0.00054236161           
       2.438392              0.0075374232            0.000500449709           
       2.441033             0.00671445863            0.000500585189           
       2.443673             0.00653692204            0.000494302601           
       2.446313             0.00733728755             0.00052415141           
       2.448954             0.00644250395            0.000467645811           
       2.451594             0.00607340733            0.000488212352           
       2.454235             0.00743751113            0.000506905971           
       2.456875             0.00743701241            0.000530387546           
       2.459515             0.00724326799            0.000536983588           
       2.462156             0.00720098441            0.000505505323           
       2.464796             0.00736930825             0.00050478168           
       2.467436             0.00723936728            0.000517380902           
       2.470077             0.00697755817            0.000481434269           
       2.472717             0.00840563889            0.000530698476           
       2.475358             0.00782761918            0.000517466561           
       2.477998             0.00832867548            0.000524772917           
       2.480638              0.0064657876            0.000470590775           
       2.483279              0.0069196047            0.000508810274           
       2.485919             0.00762012951            0.000514577946           
       2.488560             0.00770454815            0.000515974685           
       2.491200             0.00718579529            0.000513118895           
       2.493840             0.00709643352             0.00053956041           
       2.496481              0.0066605134            0.000514175057           
       2.499121             0.00660421642            0.000497999292           
       2.501761             0.00665492281            0.000506530951           
       2.504402             0.00639452352            0.000489267926           
       2.507042             0.00779223462            0.000536098343           
       2.509683             0.00757367357             0.00052044874           
       2.512323             0.00590483211            0.000482636864           
       2.514963              0.0063757734            0.000495318163           
       2.517604             0.00720469158            0.000546358861           
       2.520244             0.00772327369            0.000530326256           
       2.522884              0.0072235152            0.000520215805           
       2.525525             0.00812301306            0.000557916732           
       2.528165             0.00731931375            0.000521342377           
       2.530806             0.00718492326            0.000525537309           
       2.533446             0.00745219156            0.000523798688           
       2.536086             0.00832507112             0.00054867071           
       2.538727             0.00733156888             0.00049396074           
       2.541367             0.00640761671            0.000466336394           
       2.544008             0.00678718816            0.000495671187           
       2.546648             0.00772524732            0.000537887035           
       2.549288             0.00728294228            0.000532903385           
       2.551929             0.00731817327            0.000525675696           
       2.554569             0.00746569274            0.000511523512           
       2.557209             0.00687926677              0.0004955322           
       2.559850             0.00649537127            0.000483053432           
       2.562490             0.00694058215            0.000516088492           
       2.565131             0.00726037151              0.0005472925           
       2.567771             0.00660139312            0.000503155869           
       2.570411             0.00708532569            0.000515632211           
       2.573052             0.00645113783            0.000498211183           
       2.575692             0.00741163996            0.000530780066           
       2.578332             0.00667096111            0.000505642847           
       2.580973             0.00677827014            0.000504843939           
       2.583613             0.00655284073            0.000484558764           
       2.586254             0.00690265352            0.000496633142           
       2.588894             0.00673253773            0.000509335092           
       2.591534             0.00702638694            0.000538640883           
       2.594175             0.00767319498            0.000552265244           
       2.596815             0.00586463768            0.000485661164           
       2.599456             0.00734872632            0.000515540091           
       2.602096             0.00766944916            0.000530678021           
       2.604736             0.00745704073            0.000535685814           
       2.607377             0.00586585191             0.00046258745           
       2.610017             0.00668025001            0.000485017462           
       2.612657             0.00736611022            0.000541725387           
       2.615298              0.0071750796            0.000521991249           
       2.617938             0.00747549213            0.000569967107           
       2.620579             0.00761394012            0.000552206202           
       2.623219             0.00662527527            0.000514373988           
       2.625859              0.0073592388            0.000527090336           
       2.628500             0.00667333089            0.000498636352           
       2.631140             0.00614287385            0.000485779422           
       2.633780             0.00709744306            0.000521706885           
       2.636421             0.00659732667            0.000515359787           
       2.639061              0.0068407543            0.000494021479           
       2.641702             0.00799057485            0.000546288952           
       2.644342             0.00733936266            0.000525786178           
       2.646982              0.0070573132            0.000507876437           
       2.649623             0.00689924702            0.000526240002           
       2.652263              0.0064421756            0.000503406881           
       2.654904             0.00717654899            0.000531860074           
       2.657544             0.00653170807            0.000477920902           
       2.660184             0.00725178582            0.000532930176           
       2.662825             0.00724547108              0.0005450566           
       2.665465             0.00748538623            0.000535816197           
       2.668105             0.00685501925            0.000540467366           
       2.670746             0.00737207137            0.000517763738           
       2.673386             0.00767956963            0.000544611851           
       2.676027             0.00845972115             0.00056243199           
       2.678667              0.0088057048            0.000559902773           
       2.681307              0.0105451009            0.000602023752           
       2.683948              0.0157231119            0.000755300458           
       2.686588              0.0126098883            0.000665186709           
       2.689229              0.0105770173            0.000595298285           
       2.691869              0.0102849513            0.000620423548           
       2.694509             0.00911344763            0.000584341967           
       2.697150              0.0078311487            0.000532886458           
       2.699790              0.0080350645            0.000565881582           
       2.702430              0.0068779436            0.000500453188           
       2.705071             0.00638909873            0.000498408135           
       2.707711             0.00732717716            0.000518039342           
       2.710352             0.00666011992            0.000521862834           
       2.712992             0.00618763049            0.000512311741           
       2.715632             0.00796350471            0.000539236602           
       2.718273             0.00579822365            0.000476856422           
       2.720913              0.0072821368            0.000532883288           
       2.723553             0.00548995237            0.000465791055           
       2.726194              0.0066885947            0.000537436987           
       2.728834             0.00825738448            0.000597427315           
       2.731475             0.00735873165            0.000520506007           
       2.734115             0.00863867154            0.000581461994           
       2.736755             0.00748916234            0.000545851409           
       2.739396             0.00627548478            0.000496772905           
       2.742036             0.00740579596            0.000564788328           
       2.744677             0.00713258529            0.000537797114           
       2.747317             0.00666765706            0.000516266179           
       2.749957             0.00786211689            0.000564539008           
       2.752598             0.00783267919            0.000569596339           
       2.755238             0.00728157607            0.000559106815           
       2.757878             0.00746045175             0.00056098444           
       2.760519             0.00824699002            0.000583561288           
       2.763159             0.00938000339            0.000616138571           
       2.765800             0.00716662134             0.00051323932           
       2.768440             0.00804568835            0.000547812535           
       2.771080             0.00723924161            0.000523970641           
       2.773721             0.00717890406            0.000535242492           
       2.776361             0.00713651827            0.000541022428           
       2.779001             0.00688299795            0.000550241693           
       2.781642             0.00766275433            0.000576294848           
       2.784282             0.00660724335            0.000543933578           
       2.786923             0.00664439252             0.00055026323           
       2.789563             0.00700378789            0.000544112368           
       2.792203              0.0080135708            0.000555991763           
       2.794844             0.00595681957            0.000525371636           
       2.797484             0.00729109065            0.000548548947           
       2.800125              0.0076997436            0.000592743351           
       2.802765             0.00690475872            0.000551653613           
       2.805405             0.00651136763            0.000537521397           
       2.808046             0.00637311556            0.000541132857           
       2.810686             0.00651565673            0.000502768035           
       2.813326             0.00783089039            0.000572524802           
       2.815967             0.00699693548            0.000556568499           
       2.818607             0.00657053677            0.000514681156           
       2.821248             0.00719168044            0.000527280563           
       2.823888             0.00710295823            0.000543943961           
       2.826528             0.00699144131            0.000522631227           
       2.829169             0.00552023462            0.000486431351           
       2.831809             0.00629308027            0.000526431612           
       2.834449             0.00641820182            0.000534999021           
       2.837090             0.00681475959            0.000532448233           
       2.839730             0.00643699687            0.000514953672           
       2.842371             0.00706211554            0.000540157316           
       2.845011              0.0068802903            0.000537408173           
       2.847651             0.00695836268            0.000541112378           
       2.850292             0.00716794859            0.000554591009           
       2.852932             0.00627458752            0.000530189402           
       2.855573              0.0070805179            0.000546330345           
       2.858213              0.0082856841            0.000620620983           
       2.860853             0.00770926707            0.000556876682           
       2.863494             0.00732841308             0.00056214589           
       2.866134             0.00604643012            0.000530721023           
       2.868774             0.00588323497            0.000514502888           
       2.871415             0.00681244968            0.000562268816           
       2.874055             0.00624152135            0.000514445028           
       2.876696             0.00842793219            0.000613967317           
       2.879336             0.00753196481            0.000559408791           
       2.881976             0.00711433956            0.000560767256           
       2.884617             0.00775741534            0.000576963444           
       2.887257             0.00719742882            0.000558617242           
       2.889897             0.00760732446            0.000562483967           
       2.892538             0.00734667525            0.000605554767           
       2.895178             0.00647513007             0.00051360398           
       2.897819             0.00677794753            0.000536036165           
       2.900459             0.00623596474            0.000504156255           
       2.903099             0.00706864967             0.00053126739           
       2.905740             0.00718140455            0.000549342113           
       2.908380             0.00713903307             0.00055394247           
       2.911021             0.00648397443            0.000536500036           
       2.913661             0.00736164516             0.00057148708           
       2.916301             0.00756900874            0.000580032654           
       2.918942             0.00695620387            0.000531881924           
       2.921582             0.00769285399            0.000585226669           
       2.924222             0.00668673993            0.000528597555           
       2.926863             0.00762627497            0.000588005741           
       2.929503             0.00737846019            0.000585225496           
       2.932144             0.00714324633            0.000552753815           
       2.934784             0.00661893159            0.000523356553           
       2.937424             0.00747933341            0.000562045209           
       2.940065             0.00754126145            0.000538353033           
       2.942705              0.0069809927             0.00051731915           
       2.945346             0.00682722791            0.000542926609           
       2.947986             0.00795809856            0.000597690543           
       2.950626             0.00558683708            0.000497969322           
       2.953267              0.0069577357            0.000546737931           
       2.955907             0.00594921222            0.000524451757           
       2.958547             0.00757395928            0.000558641112           
       2.961188             0.00667208305            0.000547019345           
       2.963828              0.0080645159            0.000588277247           
       2.966469             0.00703472587            0.000538994041           
       2.969109             0.00688572222            0.000541156222           
       2.971749             0.00746934712            0.000560107598           
       2.974390             0.00727660672            0.000543260384           
       2.977030             0.00687697777            0.000539934701           
       2.979670             0.00909921724            0.000604115577           
       2.982311             0.00821029069            0.000594765141           
       2.984951              0.0076464462            0.000545904596           
       2.987592             0.00742426949            0.000548689171           
       2.990232             0.00679804629            0.000546034929           
       2.992872             0.00760887511            0.000544143494           
       2.995513             0.00797320398            0.000544947476           
       2.998153              0.0106657028             0.00064086865           
       3.000794              0.0120784862            0.000660581233           
       3.003434              0.0118678603            0.000655784922           
       3.006074              0.0446434008             0.00125407569           
       3.008715               0.117809105             0.00196654077           
       3.011355               0.195653903             0.00244388252           
       3.013995               0.101179885             0.00176223231           
       3.016636              0.0647373443              0.0013803248           
       3.019276               0.132077836             0.00193804275           
       3.021917               0.489389657             0.00358712874           
       3.024557                1.59723988             0.00637139633           
       3.027197                1.15886951             0.00529112457           
       3.029838               0.529006486             0.00362558603           
       3.032478               0.263634943             0.00256206746           
       3.035118              0.0679152516             0.00131783342           
       3.037759              0.0928081565             0.00153854158           
       3.040399               0.127275966             0.00185852805           
       3.043040               0.518015668             0.00379540663           
       3.045680               0.396915836             0.00312579314           
       3.048320              0.0909539013             0.00152886399           
       3.050961               0.105357331             0.00167446587           
       3.053601              0.0882609235             0.00147607734           
       3.056242              0.0631107294             0.00132707827           
       3.058882              0.0484708373             0.00124756942           
       3.061522              0.0395847638             0.00110614043           
       3.064163              0.0467077504             0.00118641651           
       3.066803               0.107719118             0.00189683107           
       3.069443               0.109423859             0.00200021328           
       3.072084              0.0489983037             0.00130331906           
       3.074724               0.040287907             0.00131981164           
       3.077365              0.0821145024             0.00195050972           
       3.080005              0.0177853593            0.000912900587           
       3.082645              0.0120040167            0.000787881999           
       3.085286              0.0138571042            0.000853192662           
       3.087926               0.010490739            0.000736637409           
       3.090566              0.0104546654            0.000720520486           
       3.093207              0.0106209438            0.000755715089           
       3.095847             0.00799183736            0.000628325995           
       3.098488             0.00997414973            0.000778330711           
       3.101128              0.0104068296            0.000800146459           
       3.103768             0.00960069968             0.00075407276           
       3.106409             0.00972528399            0.000807726559           
       3.109049             0.00857709017            0.000727941181           
       3.111690             0.00901484371            0.000733474793           
       3.114330             0.00769725909            0.000692175335           
       3.116970             0.00739194453            0.000683516211           
       3.119611               0.012726156            0.000954633882           
       3.122251              0.0185192622             0.00120460784           
       3.124891              0.0343633915             0.00165618353           
       3.127532              0.0240465129             0.00135535981           
       3.130172              0.0155078929             0.00110724873           
       3.132813             0.00923574994            0.000841211855           
       3.135453             0.00857335397            0.000803808319           
       3.138093             0.00671751987            0.000770947308           
       3.140734             0.00640175448            0.000694340249           
       3.143374             0.00850867391            0.000846549014           
       3.146014             0.00633064407            0.000786099548           
       3.148655             0.00859702577            0.000851570032           
       3.151295             0.00660097189            0.000795183497           
       3.153936             0.00706835474            0.000794851785           
       3.156576             0.00783362653            0.000825392623           
       3.159216             0.00613210718             0.00073392361           
       3.161857             0.00528262031            0.000678421494           
       3.164497              0.0092071946            0.000941070577           
       3.167138              0.0115999923             0.00109141596           
       3.169778             0.00584799289            0.000762154578           
       3.172418             0.00661103346            0.000802110541           
       3.175059             0.00642088063            0.000700803598           
       3.177699             0.00513034413            0.000663351055           
       3.180339             0.00541667216            0.000730293099           
       3.182980             0.00523205145            0.000742069841           
       3.185620              0.0061246561            0.000817663037           
       3.188261             0.00529974274            0.000774181364           
       3.190901              0.0073594571            0.000839052253           
       3.193541             0.00757988879            0.000894747688           
       3.196182             0.00560617132            0.000801917801           
       3.198822             0.00492236099            0.000751672984           
       3.201463             0.00507738479            0.000750265131           
       3.204103              0.0060407469            0.000813372853           
       3.206743             0.00604942282            0.000813880342           
       3.209384             0.00586819539            0.000866056693           
       3.212024             0.00609596725            0.000822957463           
       3.214664             0.00415629176            0.000772723234           
       3.217305             0.00635102513            0.000907980562           
       3.219945              0.0045339686            0.000789620087           
       3.222586             0.00534920324            0.000816922565           
       3.225226             0.00491334277            0.000868542761           
       3.227866             0.00627595135            0.000897188873           
       3.230507             0.00604398276             0.00091268469           
       3.233147             0.00619046815            0.000931137219           
       3.235787             0.00420673293            0.000785523596           
       3.238428             0.00577634417            0.000993311976           
       3.241068             0.00640222415            0.000977820794           
       3.243709             0.00493553277            0.000887008881           
       3.246349             0.00649619317            0.000927665718           
       3.248989             0.00500002985            0.000960984408           
       3.251630             0.00514244199            0.000938488012           
       3.254270             0.00518055058            0.000841855901           
       3.256911             0.00488512645            0.000891983109           
       3.259551             0.00566482137             0.00103409836           
       3.262191             0.00647843675             0.00112959038           
       3.264832             0.00643091833             0.00117591626           
       3.267472             0.00546369156             0.00101680015           
       3.270112             0.00716109004             0.00128645454           
       3.272753             0.00639468232             0.00111272833           
       3.275393             0.00706333668             0.00119325452           
       3.278034             0.00505117144             0.00100964484           
       3.280674             0.00664081571             0.00125622838           
       3.283314             0.00549398942             0.00102190709           
       3.285955             0.00585467434             0.00108844417           
       3.288595             0.00325832672            0.000903372238           
       3.291235              0.0058282046             0.00124201351           
       3.293876             0.00596021776             0.00127404964           
       3.296516             0.00451593804              0.0010646593           
       3.299157             0.00514280608             0.00112187687           
       3.301797             0.00668427227             0.00145894138           
       3.304437             0.00528536323              0.0011239761           
       3.307078              0.0051893964             0.00122683701           
       3.309718             0.00803582384             0.00157579221           
       3.312359             0.00805011642              0.0015775676           
       3.314999             0.00567234982             0.00130382777           
       3.317639             0.00411547436             0.00106213042           
       3.320280              0.0040240363             0.00111664831           
       3.322920             0.00576456498             0.00135899388           
       3.325560             0.00349788196             0.00105933119           
       3.328201             0.00699818888             0.00134947193           
       3.330841             0.00652243594             0.00158558242           
       3.333482             0.00757592014             0.00161524687           
       3.336122             0.00651658454              0.0014987556           
       3.338762             0.00638020446             0.00171308265           
       3.341403             0.00545486776             0.00151356825           
       3.344043             0.00541227809             0.00144746639           
       3.346683             0.00683132661             0.00166020618           
       3.349324             0.00508172966             0.00160993634           
       3.351964              0.0062186236             0.00188328096           
       3.354605              0.0022192783             0.00128667267           
       3.357245             0.00482065742             0.00171069697           
       3.359885             0.00466995798             0.00134760313           
       3.362526             0.00730940598             0.00210836015           
       3.365166             0.00974081028             0.00229563127           
       3.367807             0.00352528438             0.00176743182           
       3.370447             0.00241830699             0.00121429703           
       3.373087             0.00204050553             0.00119279376           
       3.375728             0.00712571728             0.00251564871           
       3.378368             0.00589050787             0.00339454813           
       3.381008             0.00656180759             0.00267113281           
       3.383649             0.00624032198             0.00208964107           
       3.386289             0.00977427021             0.00309521561           
       3.388930             0.00246075136             0.00245655176           
       3.391570             0.00366707493             0.00212136028           
       3.394210             0.00196644167             0.00196591638           
       3.396851             0.00732733678             0.00424493829           
       3.399491               0.012268454             0.00549433727           
       3.402131             0.00960944517              0.0068796452           
       3.404772           -2.63256889e-05                         0           
       3.407412                       nan                       nan           
       3.410053           -2.63905292e-05                         0           
       3.412693                       nan                       nan           
       3.415333            -2.6440961e-05                         0           
