################################################################################
# EDF_DataBlockID                     0.Image.Psd
# EDF_BinarySize                      2105344
# EDF_HeaderSize                      2560
# ByteOrder                           LowByteFirst
# DataType                            FloatValue
# Dim_1                               512
# Dim_2                               1028
# Image                               0
# HeaderID                            EH:000000:000000:000000
# Size                                2105344
# Center_1                            304.9000
# Center_2                            588.7000
# Comment                             Xenocs_Cell_Window - 20251028_20perc_iodine_1.23mg
# DDummy                              0.6
# Date                                2025-11-01T13:58:24
# Delta                               21.910000
# Dummy                               -1.5
# ExposureTime                        360
# Gamma                               15.360000
# Intensity1                          8.6353e-10
# PSize_1                             7.5e-05
# PSize_2                             7.5e-05
# Pressure                            0.0325212
# SampleDistance                      0.115750
# SampleEnvKind                       large
# SampleEnvPN                         ElectroChemical cell
# SampleEnvSN                         1141
# Thickness                           0
# Wavelength                          1.541891e-10
# Wavelength                          1.54189e-10
# aux                                 0
# aux_dial                            0.002375
# beamx                               588.434
# beamx_dial                          588.434
# beamz                               657.808
# beamz_dial                          657.808
# det0x                               0
# det0x_dial                          6.36945
# det0xvd                             0
# det0xvd_dial                        0
# det0y                               450.002
# det0y_dial                          481.635
# det0z                               0
# det0z_dial                          1.23302
# det0zvd                             0
# det0zvd_dial                        0
# mag                                 1.818
# mag_dial                            1.818
# om                                  0.2499
# om_dial                             -0.610199
# phi                                 -0.0120535
# phi_dial                            0
# ry                                  0.599993
# ry_dial                             0.599993
# s1bot                               0.8
# s1bot_dial                          -1.66094
# s1hl                                0.8
# s1hl_dial                           -0.608437
# s1hr                                0.8
# s1hr_dial                           0.970938
# s1top                               0.8
# s1top_dial                          -0.461562
# s2bot                               0.45
# s2bot_dial                          1.36109
# s2hl                                0.45
# s2hl_dial                           -0.83375
# s2hr                                0.45
# s2hr_dial                           -0.118594
# s2top                               0.45
# s2top_dial                          1.44734
# w2theta                             32
# w2theta_dial                        32
# waxsch                              19.2605
# waxsch_dial                         -32.7355
# waxsh                               137.085
# waxsh_dial                          -43.5338
# waxsth                              26.0607
# waxsth_dial                         -19.4086
# waxsz                               67.0407
# waxsz_dial                          -23.7954
# wind                                65.9854
# wind_dial                           66.0041
# wpsi                                124
# wpsi_dial                           124
# wstod                               115
# wstod_dial                          115
# x                                   0
# x_dial                              1.00969
# z                                   0
# z_dial                              13.3172
# CountCutoff                         6807993
# DetectorModel                       Dectris EIGER2 Si 500K, S/N E-01-0554
# ThresholdSetting                    4023.88989258
# Saturation                          0
# FlatField                           Corrected
# BackgroundReductionExtra            0.02
# BackgroundCorrectionConstant        0.0026712
# Detector                            0
# Monitor                             0
# Pil_Roi0                            0
# SumForIntensity1                    3.10871e+08
# TransmittedFlux                     863530
# det                                 0
# mon                                 0
# pilai0                              3.10871e+08
# pilai1                              786065
# pilct0                              5.3777e+08
# pilct1                              786065
# pilroi0                             0
# pilroi1                             0
# sec                                 1
# title                               20251028_20perc_iodine_1.23mg_1_00869.edf
# usaxs0                              0
# Operation                           Azimuthal average I(q)
# Error_model                         ErrorModel.poisson
# Geometrical_correction              True
# Transmission_correction             True
# Thickness_correction                False
# Binning mode                        Uniform
# Binning factor                      1.0
# Psi                                 0.0
# Omega                               0.2499
# MaskInvalidPixels                   True
# DetectorEdge                        3
# MaskFiles                           ['WAXS_corrected.edf']
################################################################################
    q(A⁻¹)                Intensity(a.u.)            Sigma_I(a.u.)            
       0.693100              0.0122894279             0.00735429735           
       0.695741              0.0055961312             0.00404973883           
       0.698381              0.0209455384             0.00959713699           
       0.701021             0.00872912275             0.00875857422           
       0.703662              0.0055817669             0.00404271779           
       0.706302              0.0100746151             0.00420493186           
       0.708942             0.00278091421             0.00285140944           
       0.711583             0.00433013654             0.00308107575           
       0.714223           -2.34169686e-05                         0           
       0.716864             0.00866484476             0.00329232483           
       0.719504              0.0072804931             0.00325664588           
       0.722144             0.00868344676             0.00329369234           
       0.724785             0.00939888488               0.002733421           
       0.727425             0.00585543634             0.00291869047           
       0.730065             0.00437499573             0.00178458995           
       0.732706             0.00649979585             0.00182662008           
       0.735346             0.00779015287             0.00260672653           
       0.737987              0.0094693588             0.00203085931           
       0.740627              0.0095463859             0.00304246457           
       0.743267             0.00648434684             0.00167950505           
       0.745908              0.0066735101             0.00184856226           
       0.748548              0.0047783787             0.00144182196           
       0.751189             0.00794811301             0.00250564707           
       0.753829             0.00732660008             0.00221138435           
       0.756469             0.00388615609             0.00129869287           
       0.759110             0.00817242853             0.00198468888           
       0.761750             0.00601594145             0.00150566839           
       0.764390             0.00821041663             0.00184105006           
       0.767031             0.00925027923             0.00169223075           
       0.769671             0.00725287135             0.00186918285           
       0.772312             0.00694657618             0.00139262297           
       0.774952             0.00711723212             0.00190354625           
       0.777592             0.00808679238             0.00147792775           
       0.780233              0.0070869286             0.00166923644           
       0.782873             0.00645543904             0.00152368205           
       0.785513             0.00783094456             0.00179408209           
       0.788154             0.00862861005             0.00157539523           
       0.790794             0.00694742133             0.00169001267           
       0.793435              0.0066177482             0.00148177914           
       0.796075             0.00520600199             0.00126603784           
       0.798715             0.00986896189             0.00205988513           
       0.801356             0.00499632379             0.00126144543           
       0.803996             0.00861753355              0.0016889912           
       0.806637             0.00668504902             0.00118386018           
       0.809277             0.00762796837             0.00136878076           
       0.811917             0.00881394858              0.0013754739           
       0.814558             0.00620942659             0.00119989351           
       0.817198              0.0109196424             0.00151170205           
       0.819838             0.00728425361             0.00124958769           
       0.822479              0.0109805673             0.00180158889           
       0.825119             0.00792497451             0.00130267466           
       0.827760              0.0114518824             0.00158623784           
       0.830400             0.00790863171             0.00124066847           
       0.833040             0.00831726177             0.00133299621           
       0.835681             0.00936063606             0.00160763147           
       0.838321             0.00623500168             0.00110124975           
       0.840961             0.00712239047             0.00128240859           
       0.843602             0.00867809327             0.00129811858           
       0.846242             0.00680219448             0.00114911091           
       0.848883             0.00569342662             0.00107584837           
       0.851523             0.00633822985             0.00112103627           
       0.854163             0.00717573422             0.00126849283           
       0.856804             0.00816507014             0.00121663622           
       0.859444             0.00870185714             0.00123062915           
       0.862085             0.00660671023              0.0011175987           
       0.864725             0.00652613788             0.00113675123           
       0.867365             0.00610362986             0.00101940628           
       0.870006             0.00740011679             0.00106962213           
       0.872646             0.00799658002             0.00116597433           
       0.875286             0.00642326054             0.00100535079           
       0.877927             0.00789389193             0.00107545383           
       0.880567             0.00724103886             0.00106712402           
       0.883208             0.00693969461              0.0010348414           
       0.885848             0.00660876578              0.0010485449           
       0.888488             0.00743588434             0.00104319963           
       0.891129             0.00739576916             0.00106825509           
       0.893769              0.0077536887             0.00104679398           
       0.896410             0.00795433859            0.000988526322           
       0.899050             0.00668356918            0.000996496457           
       0.901690             0.00738327798              0.0011408798           
       0.904331             0.00790954122             0.00104687936           
       0.906971             0.00642725593             0.00100394097           
       0.909611             0.00662566614            0.000927906613           
       0.912252              0.0073322189             0.00100823872           
       0.914892             0.00678746959             0.00106007127           
       0.917533             0.00885700266             0.00114554976           
       0.920173             0.00662798909            0.000919427359           
       0.922813             0.00659581205            0.000962490585           
       0.925454             0.00740061931            0.000918051015           
       0.928094             0.00697527172             0.00095151477           
       0.930734             0.00661479973            0.000997589723           
       0.933375             0.00734106924             0.00104059747           
       0.936015             0.00727921318            0.000941094977           
       0.938656             0.00688148114            0.000981603893           
       0.941296             0.00772637899            0.000942634839           
       0.943936             0.00841137035             0.00096450639           
       0.946577             0.00862416384            0.000970173721           
       0.949217             0.00764344479            0.000839904952           
       0.951858             0.00677796064             0.00082794023           
       0.954498             0.00800257386             0.00104130675           
       0.957138             0.00851192785             0.00101740598           
       0.959779              0.0087511859             0.00101695128           
       0.962419             0.00816046197            0.000975496315           
       0.965059             0.00786208769             0.00100703581           
       0.967700             0.00729672703            0.000993628709           
       0.970340             0.00804350247            0.000923160859           
       0.972981             0.00806342502              0.0008421291           
       0.975621             0.00736205644            0.000856031526           
       0.978261             0.00726398778            0.000807944875           
       0.980902              0.0070482459            0.000952202458           
       0.983542             0.00775892409            0.000884728573           
       0.986182             0.00915891004            0.000943738145           
       0.988823              0.0089923062            0.000907998562           
       0.991463             0.00573498817            0.000773638067           
       0.994104              0.0088197738            0.000935910717           
       0.996744             0.00859403969             0.00094232593           
       0.999384             0.00777940472            0.000801817704           
       1.002025              0.0079426146            0.000904273506           
       1.004665              0.0083536752            0.000847508878           
       1.007306             0.00952216153            0.000900211523           
       1.009946             0.00814244796            0.000848974977           
       1.012586             0.00908140535            0.000873225927           
       1.015227             0.00754738888            0.000855222884           
       1.017867              0.0073405603            0.000810588044           
       1.020507             0.00858380362            0.000849055413           
       1.023148             0.00839391381            0.000905963812           
       1.025788             0.00836227595             0.00082913039           
       1.028429             0.00794087689            0.000846480641           
       1.031069             0.00848053688            0.000823193318           
       1.033709             0.00765362536            0.000831300485           
       1.036350             0.00851919472            0.000787709627           
       1.038990             0.00716899249            0.000735875363           
       1.041630             0.00599947578             0.00070213459           
       1.044271             0.00857050365            0.000789239688           
       1.046911             0.00941292957            0.000870021594           
       1.049552              0.0081891085            0.000852578639           
       1.052192             0.00918579835            0.000824528476           
       1.054832             0.00791385383            0.000772278722           
       1.057473             0.00923966937            0.000822606591           
       1.060113             0.00850874859            0.000769879111           
       1.062754             0.00914884936            0.000815062986           
       1.065394             0.00876325413            0.000843377133           
       1.068034             0.00807866735             0.00073677508           
       1.070675             0.00841894292            0.000784565687           
       1.073315             0.00804200717            0.000777792235           
       1.075955              0.0082867111            0.000745368043           
       1.078596             0.00856642202            0.000805437056           
       1.081236             0.00783796944            0.000737737805           
       1.083877             0.00948599744            0.000804318916           
       1.086517             0.00759732634            0.000771845719           
       1.089157             0.00893834288            0.000868687582           
       1.091798             0.00912942807             0.00076969039           
       1.094438             0.00915112236            0.000768117182           
       1.097078             0.00979007125            0.000761990134           
       1.099719             0.00832230299            0.000759916894           
       1.102359             0.00747986665            0.000674690498           
       1.105000             0.00835271567            0.000797239879           
       1.107640              0.0100118601            0.000834572959           
       1.110280             0.00930896155            0.000734267175           
       1.112921             0.00808846695            0.000735238619           
       1.115561              0.0084114783            0.000712599038           
       1.118202             0.00913977011            0.000743508149           
       1.120842             0.00968010394            0.000804198945           
       1.123482             0.00926634474            0.000783387661           
       1.126123             0.00956120622            0.000763261435           
       1.128763             0.00933001778            0.000759146705           
       1.131403             0.00865403511            0.000704505073           
       1.134044               0.010213512             0.00078755112           
       1.136684             0.00925965179            0.000799496138           
       1.139325             0.00813472921            0.000690309725           
       1.141965             0.00830579278            0.000702141446           
       1.144605             0.00960232198            0.000719853698           
       1.147246             0.00943573277            0.000730289515           
       1.149886              0.0102853609            0.000759753225           
       1.152527             0.00889512743            0.000716818001           
       1.155167             0.00972509868            0.000712902095           
       1.157807             0.00895107917            0.000733309887           
       1.160448             0.00837511425            0.000692673934           
       1.163088             0.00907158363            0.000687632523           
       1.165728             0.00840711292            0.000679657092           
       1.168369              0.0086588331            0.000696129348           
       1.171009             0.00894001519            0.000686456132           
       1.173650             0.00859118576            0.000690587145           
       1.176290             0.00906795297            0.000693331344           
       1.178930              0.0101325772            0.000718311114           
       1.181571             0.00839869921            0.000666939709           
       1.184211             0.00952714935            0.000712851635           
       1.186851             0.00959160828            0.000699298495           
       1.189492              0.0100697188            0.000711695059           
       1.192132             0.00834882325            0.000640763225           
       1.194773             0.00961680341            0.000690706791           
       1.197413             0.00841911114            0.000619214568           
       1.200053             0.00929112677            0.000667020435           
       1.202694             0.00996441862            0.000656878901           
       1.205334             0.00985620178              0.0007040553           
       1.207975             0.00951466907            0.000660294361           
       1.210615             0.00880397475            0.000700684556           
       1.213255               0.010410336            0.000682291485           
       1.215896             0.00912438249            0.000650336092           
       1.218536             0.00936605332             0.00063355314           
       1.221176             0.00968123137            0.000700295835           
       1.223817              0.0101992974            0.000674739352           
       1.226457              0.0102022426            0.000688432216           
       1.229098             0.00943635901            0.000662055552           
       1.231738             0.00956630208            0.000669879129           
       1.234378             0.00920532098            0.000617461844           
       1.237019              0.0101062847            0.000666699959           
       1.239659              0.0105889469            0.000676489922           
       1.242299             0.00902982131            0.000616767391           
       1.244940             0.00902676683            0.000599743494           
       1.247580              0.0099862367            0.000650103968           
       1.250221             0.00926102638            0.000622190526           
       1.252861               0.010676206            0.000635977055           
       1.255501              0.0101030519            0.000671757694           
       1.258142             0.00956661029            0.000614249924           
       1.260782               0.011113149            0.000676365366           
       1.263423              0.0113280228            0.000656163576           
       1.266063              0.0111304757            0.000666658847           
       1.268703              0.0100775868            0.000629080497           
       1.271344              0.0107482941            0.000671695376           
       1.273984              0.0118523004            0.000681227765           
       1.276624               0.010318951            0.000623695041           
       1.279265              0.0102804248            0.000632867737           
       1.281905              0.0107126903            0.000648903176           
       1.284546              0.0104923358            0.000620739412           
       1.287186              0.0106331704            0.000613084872           
       1.289826              0.0107285761            0.000649033519           
       1.292467              0.0114991064            0.000657136392           
       1.295107             0.00978785398            0.000600249125           
       1.297747              0.0115333408            0.000623504515           
       1.300388              0.0104352521            0.000646532419           
       1.303028              0.0111331676            0.000637524591           
       1.305669              0.0108649491            0.000644794275           
       1.308309              0.0102496171            0.000620102052           
       1.310949              0.0104269329            0.000624814305           
       1.313590              0.0109541596            0.000620397363           
       1.316230              0.0112254523             0.00067019822           
       1.318871             0.00957873463            0.000606324914           
       1.321511              0.0105532264            0.000624623997           
       1.324151              0.0107104209            0.000610603605           
       1.326792              0.0108511305            0.000618401173           
       1.329432              0.0116450159            0.000636102727           
       1.332072               0.010345443             0.00059062351           
       1.334713              0.0101424752            0.000603572748           
       1.337353               0.011647871            0.000620309682           
       1.339994              0.0112202222            0.000638891677           
       1.342634              0.0119972923            0.000633517019           
       1.345274              0.0108708575            0.000624093247           
       1.347915              0.0118220001            0.000632850851           
       1.350555               0.011008645            0.000621388409           
       1.353195              0.0116611434            0.000642679724           
       1.355836              0.0116192536            0.000631520982           
       1.358476              0.0114542175            0.000608931601           
       1.361117              0.0110697323            0.000599446006           
       1.363757             0.00986513905            0.000583170672           
       1.366397              0.0108586243            0.000593316247           
       1.369038              0.0110447482            0.000604337755           
       1.371678              0.0117794007            0.000618611051           
       1.374319              0.0108102358            0.000587513457           
       1.376959              0.0121307522            0.000616104657           
       1.379599              0.0109482656            0.000627271238           
       1.382240              0.0122291868            0.000623074524           
       1.384880              0.0108248357            0.000620927644           
       1.387520              0.0111187894            0.000597667496           
       1.390161              0.0106159924            0.000554657587           
       1.392801              0.0119414117            0.000612914381           
       1.395442              0.0111856744            0.000601304409           
       1.398082              0.0114205585            0.000568976785           
       1.400722               0.010757463            0.000578429347           
       1.403363              0.0116351815             0.00063321939           
       1.406003              0.0103834067            0.000559823442           
       1.408644              0.0111455944            0.000607594387           
       1.411284              0.0117707167            0.000591252348           
       1.413924               0.010944066            0.000567999222           
       1.416565              0.0113396287            0.000575901869           
       1.419205              0.0113690196            0.000601535586           
       1.421845              0.0112506392            0.000598044266           
       1.424486              0.0116249732            0.000584343166           
       1.427126               0.011342917            0.000599610283           
       1.429767              0.0104565891            0.000541670561           
       1.432407              0.0127468828            0.000625880089           
       1.435047              0.0111341038            0.000549362643           
       1.437688              0.0112522621            0.000560527351           
       1.440328             0.00991125018            0.000536910485           
       1.442968              0.0111346576             0.00058183428           
       1.445609              0.0109691595            0.000559174433           
       1.448249              0.0119897113            0.000599410212           
       1.450890               0.010703549            0.000562651863           
       1.453530              0.0113755338            0.000606843827           
       1.456170              0.0105952864            0.000568399168           
       1.458811              0.0119100112            0.000576250831           
       1.461451              0.0109694363            0.000554479387           
       1.464092              0.0115552769             0.00057281387           
       1.466732               0.010667226            0.000545633424           
       1.469372              0.0104621002            0.000527715695           
       1.472013               0.010620277            0.000573438294           
       1.474653              0.0118285632            0.000595844604           
       1.477293              0.0116105773            0.000602770893           
       1.479934              0.0115110214            0.000572698125           
       1.482574              0.0114287345            0.000552012278           
       1.485215              0.0101419149            0.000529692807           
       1.487855              0.0117234895            0.000577011071           
       1.490495              0.0119777887            0.000581087588           
       1.493136              0.0107638514            0.000543304278           
       1.495776              0.0105057067            0.000534305829           
       1.498416              0.0110920592            0.000566976107           
       1.501057             0.00963592544            0.000516805508           
       1.503697              0.0107521844            0.000533723589           
       1.506338              0.0107575828            0.000543613004           
       1.508978              0.0102796182            0.000526173362           
       1.511618              0.0115421889              0.0005937889           
       1.514259               0.011443303            0.000570814361           
       1.516899              0.0106693542            0.000536660192           
       1.519540              0.0111707915            0.000557981427           
       1.522180              0.0117075701            0.000576248157           
       1.524820              0.0119326038            0.000578495945           
       1.527461              0.0103584084            0.000541653817           
       1.530101               0.011718716            0.000570361279           
       1.532741               0.010950388            0.000548147019           
       1.535382              0.0104807248            0.000544896337           
       1.538022              0.0103997729            0.000511334937           
       1.540663               0.010171854            0.000543912385           
       1.543303              0.0113499308            0.000533476183           
       1.545943              0.0103157939            0.000538307368           
       1.548584              0.0106721525            0.000557354762           
       1.551224              0.0110270354            0.000523825213           
       1.553864              0.0108093358            0.000548028098           
       1.556505              0.0108841205             0.00053123754           
       1.559145              0.0109261569            0.000538782581           
       1.561786              0.0109961478             0.00054092177           
       1.564426              0.0112853794            0.000530944792           
       1.567066              0.0115013666             0.00056162666           
       1.569707             0.00988613131            0.000511344944           
       1.572347              0.0106693288            0.000548796937           
       1.574988              0.0105354688            0.000519075482           
       1.577628               0.010169903            0.000531794225           
       1.580268              0.0103509347            0.000519817669           
       1.582909             0.00963794415            0.000531671067           
       1.585549              0.0106709303            0.000543196421           
       1.588189             0.00940947062            0.000498947377           
       1.590830             0.00980517016            0.000508691274           
       1.593470              0.0102609413            0.000540984563           
       1.596111              0.0100729516            0.000523308362           
       1.598751             0.00977852389            0.000499602618           
       1.601391             0.00957160003            0.000505193658           
       1.604032             0.00996966638            0.000526370246           
       1.606672              0.0102961274            0.000519724531           
       1.609312             0.00890177954            0.000504459755           
       1.611953             0.00895280605            0.000495058124           
       1.614593              0.0103300088            0.000521627998           
       1.617234              0.0109953312            0.000557740732           
       1.619874             0.00906382819            0.000504388372           
       1.622514              0.0103128877            0.000530681785           
       1.625155              0.0104978774            0.000538583235           
       1.627795             0.00956497623              0.0005014995           
       1.630436             0.00900437447            0.000484040441           
       1.633076             0.00921579589            0.000496112552           
       1.635716             0.00955568272            0.000497318116           
       1.638357             0.00947212127            0.000496444005           
       1.640997             0.00894546174            0.000497059486           
       1.643637              0.0101183702            0.000514428966           
       1.646278             0.00872579519             0.00049272912           
       1.648918             0.00889955246             0.00049896826           
       1.651559             0.00937714098             0.00051615699           
       1.654199             0.00950085697            0.000505308747           
       1.656839             0.00872909012            0.000484519751           
       1.659480             0.00975491633            0.000531433085           
       1.662120             0.00947712041            0.000493344124           
       1.664761             0.00945004915            0.000511724767           
       1.667401             0.00896507275            0.000476383735           
       1.670041             0.00973020335            0.000503863625           
       1.672682             0.00993140302             0.00050695411           
       1.675322             0.00845778473            0.000464825471           
       1.677962             0.00898640684            0.000473845976           
       1.680603             0.00892618809            0.000473708913           
       1.683243             0.00881000659            0.000490999991           
       1.685884             0.00812417026            0.000474983146           
       1.688524             0.00884623274            0.000486060916           
       1.691164             0.00816434991            0.000467058078           
       1.693805             0.00878143973            0.000489708709           
       1.696445             0.00881566574            0.000493508302           
       1.699085              0.0093245743             0.00049054587           
       1.701726             0.00891103065            0.000461957595           
       1.704366             0.00952055053            0.000503028293           
       1.707007             0.00809991166            0.000453639748           
       1.709647             0.00909440277            0.000486110597           
       1.712287             0.00825111983            0.000467055287           
       1.714928             0.00881942323            0.000486765104           
       1.717568             0.00937818675            0.000472837067           
       1.720209             0.00931079843            0.000493481427           
       1.722849             0.00914128088            0.000486454657           
       1.725489             0.00822005608            0.000461679668           
       1.728130             0.00904613586            0.000514699413           
       1.730770             0.00817821855            0.000464785105           
       1.733410             0.00872295593            0.000472469495           
       1.736051             0.00840598151            0.000467034072           
       1.738691             0.00963988081            0.000489999926           
       1.741332             0.00934519675            0.000496559551           
       1.743972             0.00877320561            0.000496841373           
       1.746612             0.00878627129            0.000477449509           
       1.749253             0.00906147866            0.000494444682           
       1.751893             0.00862009212            0.000478712283           
       1.754533              0.0082801955            0.000468741217           
       1.757174             0.00812028903            0.000459846075           
       1.759814             0.00832617171            0.000458580893           
       1.762455             0.00889956963            0.000482814175           
       1.765095             0.00862741581            0.000454753498           
       1.767735             0.00889486689            0.000475993342           
       1.770376             0.00890770671            0.000477592523           
       1.773016             0.00893397025            0.000475092317           
       1.775657             0.00905099625            0.000471313252           
       1.778297             0.00802234366             0.00043990231           
       1.780937             0.00782003569             0.00045842476           
       1.783578             0.00878933763            0.000473853946           
       1.786218             0.00820491677            0.000477794892           
       1.788858             0.00850663645            0.000462058149           
       1.791499             0.00889195721            0.000467101492           
       1.794139             0.00895799664            0.000465029107           
       1.796780             0.00935066991            0.000472821587           
       1.799420             0.00862067465              0.0004514762           
       1.802060             0.00836230867            0.000448250895           
       1.804701             0.00918480855             0.00045082081           
       1.807341             0.00814448901            0.000446080922           
       1.809981             0.00902215742            0.000471066778           
       1.812622             0.00839514053            0.000446222346           
       1.815262             0.00907975839            0.000473918074           
       1.817903             0.00900951007            0.000465086442           
       1.820543             0.00811430445             0.00044825366           
       1.823183             0.00908130489            0.000473951067           
       1.825824             0.00913318614            0.000454085208           
       1.828464             0.00843401495            0.000454922542           
       1.831105             0.00848607167            0.000443707933           
       1.833745             0.00812877648            0.000443541227           
       1.836385             0.00868909736            0.000471660236           
       1.839026             0.00829341924            0.000459340182           
       1.841666             0.00746900677            0.000434366517           
       1.844306             0.00776651216            0.000430847247           
       1.846947              0.0081145703            0.000444256095           
       1.849587             0.00719896015            0.000462061669           
       1.852228             0.00883409957            0.000462842966           
       1.854868             0.00751280108            0.000450881244           
       1.857508             0.00803202381            0.000461629099           
       1.860149             0.00871557199            0.000489607788           
       1.862789             0.00832532083            0.000461883278           
       1.865429             0.00817275713            0.000477697418           
       1.868070             0.00790664233            0.000463593502           
       1.870710             0.00862967325            0.000473160813           
       1.873351             0.00849834301            0.000475351291           
       1.875991             0.00781283157            0.000463214709           
       1.878631             0.00664835797            0.000419118592           
       1.881272             0.00798821349            0.000456336149           
       1.883912             0.00806337829            0.000477142312           
       1.886553              0.0084731939            0.000483648919           
       1.889193             0.00734128069            0.000449417382           
       1.891833             0.00808963595            0.000489949421           
       1.894474             0.00775479624            0.000475524745           
       1.897114             0.00810445733            0.000470415116           
       1.899754             0.00699094212            0.000438733184           
       1.902395             0.00756540446            0.000447479997           
       1.905035             0.00844279406            0.000500685873           
       1.907676              0.0076993071            0.000450641078           
       1.910316             0.00881037367            0.000494860682           
       1.912956             0.00727586053             0.00043981169           
       1.915597             0.00783201376            0.000458861649           
       1.918237             0.00742722468            0.000461483667           
       1.920878             0.00733258232            0.000456656907           
       1.923518             0.00762584809            0.000465896944           
       1.926158             0.00739452051            0.000452822811           
       1.928799             0.00838655091             0.00047665986           
       1.931439             0.00802939945            0.000478633061           
       1.934079             0.00743347091            0.000480090154           
       1.936720             0.00799122917            0.000461203727           
       1.939360             0.00756658596            0.000478788443           
       1.942001             0.00825339555            0.000458317827           
       1.944641             0.00757288662            0.000447664455           
       1.947281             0.00776586633            0.000449153893           
       1.949922             0.00774671495            0.000463363833           
       1.952562             0.00828229801            0.000494132024           
       1.955202             0.00782050342            0.000479573543           
       1.957843              0.0081163528            0.000475890684           
       1.960483             0.00800651676            0.000494165058           
       1.963124             0.00794971792            0.000482307135           
       1.965764             0.00753946108            0.000442937625           
       1.968404             0.00718786537            0.000428400035           
       1.971045             0.00785142997            0.000456492387           
       1.973685             0.00792276062            0.000480996601           
       1.976326             0.00814601099            0.000481023189           
       1.978966             0.00820559715            0.000487016068           
       1.981606             0.00840876815            0.000503290481           
       1.984247              0.0074026631            0.000469117698           
       1.986887             0.00702186327             0.00045141944           
       1.989527             0.00854499735             0.00049261495           
       1.992168             0.00699498573            0.000462454084           
       1.994808             0.00681216461            0.000454414447           
       1.997449             0.00787184829            0.000478449566           
       2.000089             0.00765495214             0.00046994149           
       2.002729             0.00750449907            0.000465579338           
       2.005370             0.00821623706             0.00048191576           
       2.008010             0.00819049388            0.000502159635           
       2.010650             0.00817209665            0.000505338172           
       2.013291             0.00811374775            0.000483110008           
       2.015931             0.00783826641            0.000471481232           
       2.018572             0.00778561409            0.000502597153           
       2.021212             0.00718378413            0.000474107066           
       2.023852             0.00762322292            0.000462240617           
       2.026493             0.00767225321            0.000484442985           
       2.029133             0.00753651845            0.000470476241           
       2.031774             0.00774042319            0.000500389182           
       2.034414             0.00754389577            0.000454544911           
       2.037054             0.00762620979            0.000468601936           
       2.039695             0.00654762238            0.000430922362           
       2.042335             0.00710009204            0.000466333386           
       2.044975               0.008605301            0.000507164157           
       2.047616             0.00710587995            0.000459720951           
       2.050256             0.00771621843            0.000483591064           
       2.052897             0.00791292291             0.00049874441           
       2.055537             0.00830108464            0.000493698457           
       2.058177             0.00822922208             0.00048136669           
       2.060818             0.00684502063            0.000459907156           
       2.063458             0.00761401291            0.000505473869           
       2.066098             0.00755043599            0.000474836244           
       2.068739             0.00847053296            0.000510754208           
       2.071379             0.00758298729            0.000495858894           
       2.074020             0.00663755687            0.000453836657           
       2.076660             0.00749357877            0.000486112494           
       2.079300             0.00747788459            0.000497501436           
       2.081941             0.00720577868            0.000447154705           
       2.084581             0.00673210029            0.000456199587           
       2.087222             0.00770023623            0.000470533791           
       2.089862             0.00709090352            0.000491788432           
       2.092502             0.00727932731             0.00048301098           
       2.095143             0.00724170059            0.000497490311           
       2.097783              0.0078196098            0.000500504231           
       2.100423             0.00692232908            0.000453768704           
       2.103064             0.00801036318            0.000506499332           
       2.105704             0.00748002495            0.000487021102           
       2.108345             0.00787400091            0.000480061099           
       2.110985             0.00752071855            0.000501105454           
       2.113625              0.0079290297            0.000519018566           
       2.116266             0.00783086073            0.000523113509           
       2.118906             0.00747280577            0.000476236675           
       2.121546             0.00717556094            0.000457758817           
       2.124187             0.00775487137            0.000499525459           
       2.126827             0.00770536603             0.00050348573           
       2.129468             0.00761073359            0.000501662581           
       2.132108             0.00710935958            0.000471728984           
       2.134748             0.00803709701            0.000499618695           
       2.137389             0.00801363424            0.000520465034           
       2.140029              0.0074601424            0.000449572813           
       2.142670             0.00758503919            0.000484473427           
       2.145310             0.00636516394             0.00043196699           
       2.147950             0.00773222908            0.000490036573           
       2.150591             0.00724613216            0.000469589014           
       2.153231             0.00729188389            0.000484892465           
       2.155871              0.0076171375            0.000478771714           
       2.158512             0.00727864563            0.000488338331           
       2.161152             0.00774360695            0.000487909883           
       2.163793             0.00749783654            0.000477943308           
       2.166433             0.00761320805            0.000494559037           
       2.169073              0.0079980368            0.000495618908           
       2.171714             0.00753579751            0.000477487519           
       2.174354             0.00714073071            0.000485675997           
       2.176995             0.00668517248            0.000467950978           
       2.179635              0.0065609869            0.000489876474           
       2.182275             0.00723029269            0.000485539901           
       2.184916             0.00706431978            0.000463554596           
       2.187556             0.00751787826            0.000473411204           
       2.190196             0.00690304858            0.000474047701           
       2.192837              0.0080192269            0.000508157642           
       2.195477             0.00628144136            0.000428774019           
       2.198118             0.00702135712            0.000464940434           
       2.200758             0.00602084721            0.000441710025           
       2.203398             0.00741643989            0.000493373341           
       2.206039             0.00702346505            0.000454396966           
       2.208679             0.00720210139            0.000470848019           
       2.211319             0.00709286919            0.000469958007           
       2.213960             0.00796682078             0.00050474356           
       2.216600             0.00661113907            0.000475650044           
       2.219241             0.00666656736            0.000456494608           
       2.221881             0.00731703085            0.000479229978           
       2.224521             0.00691036423            0.000471429158           
       2.227162               0.007393896            0.000477879959           
       2.229802              0.0066281105            0.000466620388           
       2.232443             0.00719787519            0.000478592967           
       2.235083             0.00736013728            0.000498232796           
       2.237723             0.00723906317            0.000474177809           
       2.240364             0.00713443467            0.000482335612           
       2.243004             0.00693451616             0.00047173376           
       2.245644             0.00645434615            0.000459663936           
       2.248285             0.00679564403             0.00046221186           
       2.250925             0.00656131873             0.00045693195           
       2.253566             0.00691468278            0.000501476855           
       2.256206             0.00681614722            0.000487935598           
       2.258846             0.00740706047            0.000483863418           
       2.261487             0.00652047385            0.000476497088           
       2.264127             0.00659946248            0.000462972333           
       2.266767             0.00718140839            0.000495820991           
       2.269408             0.00701908982            0.000492192862           
       2.272048             0.00863981973            0.000542809107           
       2.274689              0.0062365187            0.000467251747           
       2.277329             0.00688369186            0.000462211324           
       2.279969             0.00764529207            0.000518500539           
       2.282610             0.00717595957             0.00048836226           
       2.285250             0.00759058449            0.000480743381           
       2.287891             0.00664325543            0.000482194364           
       2.290531             0.00593272283            0.000461804199           
       2.293171             0.00740512859            0.000502569843           
       2.295812              0.0062262258            0.000458979535           
       2.298452             0.00826022111            0.000552838217           
       2.301092             0.00713411195             0.00047735924           
       2.303733             0.00760772599            0.000512840125           
       2.306373             0.00799392516            0.000533974844           
       2.309014             0.00781335839             0.00051761136           
       2.311654             0.00724804804            0.000520244698           
       2.314294             0.00687703476            0.000466874927           
       2.316935             0.00620161109            0.000445187296           
       2.319575              0.0076235261             0.00051717057           
       2.322215             0.00777585482            0.000544337185           
       2.324856             0.00709342755            0.000477996534           
       2.327496             0.00790877836            0.000536676921           
       2.330137             0.00741368745            0.000497225439           
       2.332777             0.00679741768            0.000490921163           
       2.335417              0.0073394456            0.000494891594           
       2.338058             0.00789333359            0.000528557218           
       2.340698             0.00658035477            0.000478806557           
       2.343339             0.00830568694            0.000549764422           
       2.345979             0.00683795996            0.000471932383           
       2.348619             0.00752928109             0.00051331625           
       2.351260             0.00722624715            0.000499950443           
       2.353900             0.00784825734            0.000519372835           
       2.356540             0.00767837949            0.000512991856           
       2.359181             0.00703901958            0.000484283974           
       2.361821             0.00797174042            0.000497835349           
       2.364462              0.0062704365            0.000461782823           
       2.367102             0.00706832213            0.000503844464           
       2.369742             0.00681736693            0.000520831523           
       2.372383             0.00718824182            0.000484269969           
       2.375023             0.00740021566            0.000516524155           
       2.377663              0.0073515129            0.000492245099           
       2.380304             0.00692139764            0.000485592054           
       2.382944             0.00723168683            0.000472764687           
       2.385585             0.00709973379            0.000499590457           
       2.388225             0.00788018164            0.000523860527           
       2.390865             0.00761945023            0.000509829704           
       2.393506             0.00725878261            0.000488228876           
       2.396146             0.00807319731            0.000556722164           
       2.398787             0.00766849573            0.000500037678           
       2.401427             0.00707174183            0.000463491628           
       2.404067              0.0074931409            0.000487743379           
       2.406708             0.00691677541            0.000462990303           
       2.409348             0.00798691498            0.000527716127           
       2.411988             0.00665640583            0.000472018219           
       2.414629             0.00744299292            0.000514673634           
       2.417269              0.0070625821            0.000507202058           
       2.419910              0.0068428931            0.000500409704           
       2.422550             0.00720908981            0.000491404627           
       2.425190             0.00644165652            0.000489645133           
       2.427831             0.00643058179            0.000486473945           
       2.430471             0.00675611901            0.000475046526           
       2.433112             0.00668099943            0.000460003226           
       2.435752             0.00680717717            0.000491402648           
       2.438392             0.00642636451            0.000460846095           
       2.441033             0.00650586862            0.000491416102           
       2.443673             0.00746928497            0.000526950718           
       2.446313             0.00628206989            0.000483687222           
       2.448954             0.00674488783            0.000477200962           
       2.451594             0.00658480579            0.000506977035           
       2.454235             0.00728552686            0.000500343564           
       2.456875             0.00668860231             0.00050163288           
       2.459515             0.00727182228            0.000536586333           
       2.462156              0.0085789313            0.000550263411           
       2.464796             0.00753855971            0.000509165132           
       2.467436             0.00760034525            0.000528689874           
       2.470077             0.00795979408            0.000512814654           
       2.472717             0.00743371788            0.000497725345           
       2.475358             0.00720503552            0.000495119183           
       2.477998             0.00779008487            0.000506149464           
       2.480638             0.00691209154            0.000485245679           
       2.483279             0.00736236753            0.000523417477           
       2.485919             0.00772888563            0.000516835904           
       2.488560             0.00649548153            0.000472481412           
       2.491200             0.00777169931            0.000532185239           
       2.493840              0.0069398623            0.000532132368           
       2.496481             0.00611406256            0.000491299513           
       2.499121             0.00642040949            0.000489692761           
       2.501761             0.00707948271            0.000521026103           
       2.504402             0.00778204725            0.000538286919           
       2.507042             0.00701448567            0.000507265836           
       2.509683             0.00792506439             0.00053094595           
       2.512323             0.00812231051            0.000564521843           
       2.514963             0.00726639412            0.000527353139           
       2.517604             0.00679485596            0.000529157144           
       2.520244             0.00672973978            0.000493703033           
       2.522884              0.0072238512            0.000518821406           
       2.525525              0.0111834532            0.000652864442           
       2.528165             0.00830706623            0.000553905816           
       2.530806             0.00841549107            0.000567226433           
       2.533446             0.00712520262            0.000510793373           
       2.536086             0.00744143555            0.000517333266           
       2.538727             0.00731561708            0.000492089048           
       2.541367             0.00786443319            0.000515239327           
       2.544008             0.00751848396            0.000520281174           
       2.546648             0.00845393335            0.000561162361           
       2.549288             0.00705473582            0.000523069824           
       2.551929             0.00754502971             0.00053231815           
       2.554569             0.00756261559            0.000513441301           
       2.557209              0.0075183173            0.000516636842           
       2.559850             0.00716728614            0.000506051593           
       2.562490             0.00684673466            0.000511201615           
       2.565131             0.00862352204            0.000594848892           
       2.567771             0.00751875493            0.000535527716           
       2.570411             0.00656395526            0.000494956668           
       2.573052             0.00750039502            0.000535749313           
       2.575692             0.00691749038            0.000511394405           
       2.578332             0.00590343538            0.000474379937           
       2.580973              0.0070835673            0.000514692649           
       2.583613             0.00758688558            0.000519981218           
       2.586254             0.00658100341            0.000483612995           
       2.588894             0.00742945823            0.000533601469           
       2.591534             0.00657899463            0.000519801216           
       2.594175             0.00719171562            0.000533212217           
       2.596815             0.00748905508            0.000547331621           
       2.599456             0.00744561137            0.000517524402           
       2.602096             0.00634708313            0.000481460154           
       2.604736             0.00707398949            0.000520335356           
       2.607377             0.00732572193            0.000515558269           
       2.610017             0.00678587991            0.000487515406           
       2.612657             0.00685687246            0.000521251552           
       2.615298             0.00703056283            0.000515310689           
       2.617938             0.00704784745            0.000551927953           
       2.620579             0.00767693429            0.000552986725           
       2.623219             0.00719533969            0.000534597506           
       2.625859             0.00702408547            0.000513555924           
       2.628500             0.00677478081            0.000501053932           
       2.631140              0.0070599862            0.000519373138           
       2.633780             0.00702493312            0.000517631801           
       2.636421             0.00732438933            0.000541547415           
       2.639061             0.00754732232            0.000517504973           
       2.641702             0.00719763779            0.000517073931           
       2.644342             0.00707106638            0.000514691139           
       2.646982             0.00784753338             0.00053410814           
       2.649623             0.00737781889             0.00054271428           
       2.652263             0.00675916521            0.000514249221           
       2.654904             0.00662727382            0.000509719517           
       2.657544             0.00761739364            0.000514718863           
       2.660184             0.00643075084            0.000500498652           
       2.662825             0.00598435489            0.000494016214           
       2.665465             0.00705811933            0.000518892594           
       2.668105             0.00724811921            0.000554245332           
       2.670746              0.0077272495            0.000528656499           
       2.673386             0.00943961556            0.000602171286           
       2.676027             0.00757704863            0.000530843216           
       2.678667               0.010180729            0.000600404915           
       2.681307              0.0114826097            0.000626516916           
       2.683948              0.0150438671            0.000736808255           
       2.686588              0.0126526337            0.000664511734           
       2.689229              0.0100716329            0.000579331589           
       2.691869             0.00952181859            0.000595348615           
       2.694509             0.00952072633            0.000595641585           
       2.697150             0.00758111092            0.000522892747           
       2.699790              0.0079197929            0.000560288916           
       2.702430             0.00749368309            0.000520962016           
       2.705071             0.00686877707            0.000515382036           
       2.707711             0.00780461091            0.000533205068           
       2.710352             0.00690676402            0.000530001253           
       2.712992             0.00721680319            0.000551783612           
       2.715632             0.00693327731            0.000501788578           
       2.718273             0.00674217516            0.000512819361           
       2.720913             0.00658276169            0.000505278703           
       2.723553             0.00661071556             0.00050974777           
       2.726194              0.0070833997            0.000551575833           
       2.728834             0.00760927199            0.000571952047           
       2.731475             0.00826523371            0.000550143613           
       2.734115             0.00777745476            0.000550225663           
       2.736755             0.00795873499            0.000561182447           
       2.739396             0.00644009042            0.000501885312           
       2.742036             0.00659825393            0.000531665644           
       2.744677             0.00657850972             0.00051508984           
       2.747317             0.00683156805            0.000521160498           
       2.749957             0.00688902692            0.000527020358           
       2.752598             0.00691500395            0.000533743352           
       2.755238             0.00771540559            0.000573965402           
       2.757878             0.00695747156            0.000540279159           
       2.760519             0.00857909839            0.000593586216           
       2.763159              0.0103786237            0.000646354869           
       2.765800             0.00870951312            0.000564265988           
       2.768440              0.0078168174            0.000538504813           
       2.771080             0.00850645341            0.000566446535           
       2.773721             0.00782332254            0.000557238828           
       2.776361             0.00693822573            0.000532010904           
       2.779001              0.0079486149            0.000589704777           
       2.781642             0.00585316871            0.000502310261           
       2.784282             0.00724626616            0.000568089944           
       2.786923             0.00629446798            0.000534129556           
       2.789563             0.00713714151             0.00054778294           
       2.792203             0.00643286978            0.000496800405           
       2.794844             0.00698216418            0.000567255442           
       2.797484             0.00746095658            0.000553401887           
       2.800125             0.00611375185            0.000526752622           
       2.802765             0.00726449463            0.000564311836           
       2.805405             0.00723518934            0.000565078576           
       2.808046             0.00637916154            0.000539925763           
       2.810686             0.00689814449            0.000515915941           
       2.813326             0.00641291704            0.000516702766           
       2.815967             0.00770327955            0.000582407233           
       2.818607             0.00854974267            0.000585515784           
       2.821248             0.00660464574            0.000503936225           
       2.823888             0.00656954406            0.000521706667           
       2.826528             0.00659038572            0.000506047935           
       2.829169             0.00712170767            0.000551009522           
       2.831809             0.00670273115            0.000541826782           
       2.834449               0.006790101            0.000548793125           
       2.837090             0.00720043361            0.000545827846           
       2.839730              0.0062257493            0.000505064179           
       2.842371             0.00627719393            0.000507878548           
       2.845011             0.00708014459            0.000543683549           
       2.847651             0.00859615031            0.000599805138           
       2.850292              0.0067327061            0.000536036614           
       2.852932             0.00726561333            0.000568982404           
       2.855573             0.00657465186            0.000525029171           
       2.858213             0.00763326326            0.000594075487           
       2.860853              0.0077595596            0.000557179677           
       2.863494             0.00698541664            0.000547349178           
       2.866134             0.00734854174            0.000583500991           
       2.868774              0.0072087606            0.000567981597           
       2.871415             0.00655545352            0.000550069998           
       2.874055             0.00649495918            0.000523366837           
       2.876696             0.00707678151            0.000561082694           
       2.879336             0.00644989329            0.000516268531           
       2.881976             0.00650734462            0.000534861698           
       2.884617             0.00706016782            0.000548935769           
       2.887257             0.00815912483            0.000593159758           
       2.889897             0.00603352903            0.000499578943           
       2.892538             0.00740085846            0.000606140493           
       2.895178             0.00640227331            0.000509325571           
       2.897819             0.00703103021            0.000544475968           
       2.900459             0.00594855995            0.000491070108           
       2.903099             0.00666341929             0.00051441988           
       2.905740             0.00720116901            0.000548610282           
       2.908380             0.00672232507            0.000536079209           
       2.911021             0.00630622238             0.00052766464           
       2.913661             0.00647411892            0.000534482581           
       2.916301             0.00742800018            0.000573050817           
       2.918942             0.00622361527             0.00050173534           
       2.921582             0.00705529265            0.000558936053           
       2.924222              0.0068980682            0.000535433968           
       2.926863             0.00766466666            0.000587890193           
       2.929503             0.00729156038             0.00058019616           
       2.932144             0.00748048525            0.000564122035           
       2.934784             0.00725557547            0.000546466943           
       2.937424             0.00749007349            0.000560927957           
       2.940065             0.00600787397            0.000479214351           
       2.942705             0.00659434711            0.000501429762           
       2.945346             0.00773539615            0.000576347548           
       2.947986             0.00755304933            0.000580707093           
       2.950626             0.00714744622             0.00056171921           
       2.953267             0.00635859911            0.000521254967           
       2.955907             0.00647429611            0.000545627608           
       2.958547             0.00581197994            0.000488042572           
       2.961188             0.00811740016            0.000601734185           
       2.963828             0.00789367954            0.000580439406           
       2.966469             0.00727276224            0.000546555555           
       2.969109             0.00583411938            0.000496775084           
       2.971749             0.00776571653            0.000569567438           
       2.974390             0.00739344225            0.000546123884           
       2.977030             0.00721678701            0.000551618238           
       2.979670             0.00946396558            0.000614439089           
       2.982311             0.00830080461            0.000596417776           
       2.984951             0.00663000432            0.000506953448           
       2.987592             0.00742201239            0.000547122538           
       2.990232             0.00733351587            0.000565599123           
       2.992872             0.00785057981             0.00055122426           
       2.995513             0.00922395782            0.000584549247           
       2.998153              0.0107442236            0.000641484328           
       3.000794              0.0138521817            0.000705510222           
       3.003434              0.0135513599            0.000698861148           
       3.006074              0.0470122334             0.00128343772           
       3.008715               0.121941634             0.00199532561           
       3.011355               0.181721186             0.00234889223           
       3.013995              0.0936755211             0.00169103802           
       3.016636              0.0626986301             0.00135474364           
       3.019276               0.130422522             0.00192065305           
       3.021917                0.48900075             0.00357600878           
       3.024557                1.66662886             0.00649072546           
       3.027197                1.15506613             0.00526815307           
       3.029838               0.515203537             0.00356830014           
       3.032478               0.263044116             0.00255227586           
       3.035118              0.0714649803             0.00134817957           
       3.037759              0.0995645137             0.00158925174           
       3.040399               0.136349412             0.00191843371           
       3.043040               0.535771613             0.00384947015           
       3.045680                0.39405867             0.00310610195           
       3.048320              0.0852231376             0.00147591447           
       3.050961               0.107067662             0.00168343876           
       3.053601              0.0842030423             0.00143784812           
       3.056242              0.0550937582             0.00123657476           
       3.058882              0.0480727856             0.00123907714           
       3.061522              0.0384627477             0.00108740327           
       3.064163              0.0424768589             0.00112834821           
       3.066803               0.103257679             0.00185211386           
       3.069443               0.102983062             0.00193520704           
       3.072084              0.0550639457             0.00137790136           
       3.074724              0.0393449432             0.00130074842           
       3.077365              0.0808297115             0.00192995838           
       3.080005              0.0169902077            0.000889847842           
       3.082645              0.0100790011            0.000719997307           
       3.085286              0.0141549383             0.00085998149           
       3.087926             0.00894692983            0.000678440846           
       3.090566              0.0102108548            0.000710144222           
       3.093207              0.0120185411            0.000801727274           
       3.095847             0.00942555068            0.000680517532           
       3.098488             0.00810486241            0.000699718396           
       3.101128             0.00992075766            0.000779124623           
       3.103768              0.0105463652             0.00078820186           
       3.106409             0.00825969929            0.000742368574           
       3.109049             0.00784832217            0.000694446759           
       3.111690             0.00752302778            0.000668231076           
       3.114330             0.00952435931            0.000767874412           
       3.116970             0.00779671807            0.000700083155           
       3.119611              0.0109453697            0.000882932869           
       3.122251              0.0186701799             0.00120623615           
       3.124891              0.0354579704             0.00167780557           
       3.127532              0.0237756957             0.00134406233           
       3.130172              0.0121258617            0.000976448501           
       3.132813             0.00842309376             0.00080117864           
       3.135453             0.00806478761            0.000777495402           
       3.138093             0.00815480741            0.000847132442           
       3.140734              0.0063658482            0.000690518337           
       3.143374             0.00686210153            0.000758182893           
       3.146014             0.00697091152            0.000822664254           
       3.148655              0.0067850568            0.000754479149           
       3.151295             0.00639229369            0.000780397771           
       3.153936             0.00524055326            0.000682558372           
       3.156576             0.00664202762            0.000757972996           
       3.159216             0.00584173771            0.000714399695           
       3.161857             0.00742767867            0.000802279505           
       3.164497             0.00802982042            0.000876467251           
       3.167138             0.00873328609            0.000944440359           
       3.169778             0.00708873469            0.000836851211           
       3.172418             0.00646289993             0.00079092901           
       3.175059             0.00629798383            0.000692187956           
       3.177699             0.00485214985            0.000643371059           
       3.180339             0.00646022263            0.000795387765           
       3.182980             0.00648257715            0.000823771701           
       3.185620             0.00629584421            0.000826770061           
       3.188261             0.00641391918            0.000849378577           
       3.190901             0.00619707289            0.000767862864           
       3.193541             0.00640243177             0.00082009826           
       3.196182             0.00684347628            0.000883607305           
       3.198822             0.00568399537            0.000805551503           
       3.201463             0.00593582696            0.000809020606           
       3.204103             0.00554785317            0.000777375906           
       3.206743             0.00543466742            0.000769332923           
       3.209384             0.00496812295            0.000794720563           
       3.212024             0.00451421461            0.000706271073           
       3.214664             0.00543639534            0.000881354683           
       3.217305             0.00837262087             0.00103970371           
       3.219945             0.00658003512            0.000948674622           
       3.222586             0.00758430675            0.000970104526           
       3.225226             0.00611125095            0.000966033029           
       3.227866             0.00572967224            0.000854935257           
       3.230507             0.00613704598            0.000917197978           
       3.233147             0.00529405249            0.000858757028           
       3.235787             0.00493627884            0.000848615284           
       3.238428             0.00557819879            0.000973487496           
       3.241068             0.00593584181            0.000938986252           
       3.243709             0.00428055694            0.000823825689           
       3.246349             0.00646855211             0.00092318731           
       3.248989             0.00588006799             0.00103931085           
       3.251630             0.00596335759              0.0010078913           
       3.254270             0.00448655346            0.000781322746           
       3.256911             0.00680457157             0.00104988894           
       3.259551             0.00677058575             0.00112747288           
       3.262191             0.00606065084             0.00108960666           
       3.264832             0.00684260094             0.00120969183           
       3.267472             0.00674864272             0.00112700275           
       3.270112             0.00642576986             0.00121532296           
       3.272753             0.00634887523             0.00110573816           
       3.275393             0.00359770162            0.000849307482           
       3.278034             0.00538057137             0.00103922843           
       3.280674             0.00710193894             0.00129559898           
       3.283314             0.00548040508              0.0010178835           
       3.285955             0.00608667534             0.00110679987           
       3.288595             0.00423455993             0.00102706472           
       3.291235             0.00550048777              0.0012033273           
       3.293876             0.00707159239             0.00138400653           
       3.296516             0.00399483469            0.000998643124           
       3.299157             0.00681654513             0.00128810575           
       3.301797             0.00568326266             0.00134163347           
       3.304437             0.00403667001            0.000979615221           
       3.307078             0.00718220614             0.00143940041           
       3.309718              0.0051777401             0.00126147344           
       3.312359             0.00554655686             0.00130593895           
       3.314999             0.00415637214             0.00111306411           
       3.317639             0.00682862134             0.00136445324           
       3.320280             0.00643593458             0.00140836597           
       3.322920             0.00575948959             0.00135472291           
       3.325560             0.00918015562             0.00171150609           
       3.328201               0.006456887             0.00129272712           
       3.330841             0.00652849094             0.00158202943           
       3.333482              0.0051240686             0.00132480795           
       3.336122             0.00375214327             0.00113418723           
       3.338762             0.00639564154              0.0017105167           
       3.341403             0.00624297154             0.00161484118           
       3.344043             0.00463971987             0.00133656031           
       3.346683              0.0072224915             0.00170246137           
       3.349324             0.00761951877             0.00196603361           
       3.351964             0.00393407117              0.0014938718           
       3.354605             0.00446298037             0.00181969635           
       3.357245             0.00661170007              0.0019980243           
       3.359885             0.00698166999             0.00164327189           
       3.362526             0.00482283395             0.00170796574           
       3.365166             0.00430186387             0.00152144818           
       3.367807             0.00703888929             0.00249070276           
       3.370447             0.00484868202             0.00171476777           
       3.373087             0.00891978277             0.00248712638           
       3.375728             0.00439746703              0.0019708848           
       3.378368              0.0038381018             0.00273267565           
       3.381008             0.00544165853             0.00242590407           
       3.383649             0.00419013942             0.00170768072           
       3.386289             0.00681989289             0.00257846807           
       3.388930             0.00740783376             0.00425071423           
       3.391570             0.00605870555             0.00271937253           
       3.394210             0.00393775415             0.00277442539           
       3.396851           -2.61343382e-05                         0           
       3.399491              0.0046911582             0.00338832202           
       3.402131           -2.61709008e-05                         0           
       3.404772           -2.61835321e-05                         0           
       3.407412                       nan                       nan           
       3.410053             0.00917193747             0.00949348406           
       3.412693                       nan                       nan           
       3.415333           -2.62981817e-05                         0           
