################################################################################
# EDF_DataBlockID                     0.Image.Psd
# EDF_BinarySize                      2105344
# EDF_HeaderSize                      2560
# ByteOrder                           LowByteFirst
# DataType                            FloatValue
# Dim_1                               512
# Dim_2                               1028
# Image                               0
# HeaderID                            EH:000000:000000:000000
# Size                                2105344
# Center_1                            304.9000
# Center_2                            588.7000
# Comment                             Xenocs_Cell_Window - 20251028_20perc_iodine_1.23mg
# DDummy                              0.6
# Date                                2025-11-03T00:52:50
# Delta                               21.910000
# Dummy                               -1.5
# ExposureTime                        360
# Gamma                               15.360000
# Intensity1                          8.7854e-10
# PSize_1                             7.5e-05
# PSize_2                             7.5e-05
# Pressure                            0.0327272
# SampleDistance                      0.115750
# SampleEnvKind                       large
# SampleEnvPN                         ElectroChemical cell
# SampleEnvSN                         1141
# Thickness                           0
# Wavelength                          1.541891e-10
# Wavelength                          1.54189e-10
# aux                                 0
# aux_dial                            0.002375
# beamx                               588.434
# beamx_dial                          588.434
# beamz                               657.808
# beamz_dial                          657.808
# det0x                               0
# det0x_dial                          6.36945
# det0xvd                             0
# det0xvd_dial                        0
# det0y                               450.002
# det0y_dial                          481.635
# det0z                               0
# det0z_dial                          1.23302
# det0zvd                             0
# det0zvd_dial                        0
# mag                                 1.818
# mag_dial                            1.818
# om                                  0.2499
# om_dial                             -0.610199
# phi                                 -0.0120535
# phi_dial                            0
# ry                                  0.599993
# ry_dial                             0.599993
# s1bot                               0.8
# s1bot_dial                          -1.66094
# s1hl                                0.8
# s1hl_dial                           -0.608437
# s1hr                                0.8
# s1hr_dial                           0.970938
# s1top                               0.8
# s1top_dial                          -0.461562
# s2bot                               0.45
# s2bot_dial                          1.36109
# s2hl                                0.45
# s2hl_dial                           -0.83375
# s2hr                                0.45
# s2hr_dial                           -0.118594
# s2top                               0.45
# s2top_dial                          1.44734
# w2theta                             32
# w2theta_dial                        32
# waxsch                              19.2605
# waxsch_dial                         -32.7355
# waxsh                               137.085
# waxsh_dial                          -43.5338
# waxsth                              26.0607
# waxsth_dial                         -19.4086
# waxsz                               67.0407
# waxsz_dial                          -23.7954
# wind                                65.9854
# wind_dial                           66.0041
# wpsi                                124
# wpsi_dial                           124
# wstod                               115
# wstod_dial                          115
# x                                   0
# x_dial                              1.00969
# z                                   0
# z_dial                              13.3172
# CountCutoff                         6807993
# DetectorModel                       Dectris EIGER2 Si 500K, S/N E-01-0554
# ThresholdSetting                    4023.88989258
# Saturation                          0
# FlatField                           Corrected
# BackgroundReductionExtra            0.02
# BackgroundCorrectionConstant        0.0026712
# Detector                            0
# Monitor                             0
# Pil_Roi0                            0
# SumForIntensity1                    3.16274e+08
# TransmittedFlux                     878540
# det                                 0
# mon                                 0
# pilai0                              3.16274e+08
# pilai1                              795128
# pilct0                              5.46926e+08
# pilct1                              795128
# pilroi0                             0
# pilroi1                             0
# sec                                 1
# title                               20251028_20perc_iodine_1.23mg_1_01186.edf
# usaxs0                              0
# Operation                           Azimuthal average I(q)
# Error_model                         ErrorModel.poisson
# Geometrical_correction              True
# Transmission_correction             True
# Thickness_correction                False
# Binning mode                        Uniform
# Binning factor                      1.0
# Psi                                 0.0
# Omega                               0.2499
# MaskInvalidPixels                   True
# DetectorEdge                        3
# MaskFiles                           ['WAXS_corrected.edf']
################################################################################
    q(A⁻¹)                Intensity(a.u.)            Sigma_I(a.u.)            
       0.693100           -2.31101632e-05                         0           
       0.695741              0.0081047675             0.00483182613           
       0.698381           -2.30910757e-05                         0           
       0.701021           -2.30737689e-05                         0           
       0.703662              0.0054864015             0.00397364729           
       0.706302              0.0118530667             0.00452186968           
       0.708942             0.00834335054             0.00489659266           
       0.711583             0.00427300151             0.00303442249           
       0.714223             0.00850357498             0.00494208508           
       0.716864             0.00855115868             0.00324259502           
       0.719504              0.0143481844             0.00453259129           
       0.722144             0.00611221184              0.0027396438           
       0.724785             0.00846905853             0.00257243182           
       0.727425              0.0143661319               0.004532484           
       0.730065             0.00644860423             0.00214803045           
       0.732706             0.00500625349             0.00158932507           
       0.735346             0.00858776617             0.00271344193           
       0.737987             0.00551087976              0.0015359885           
       0.740627             0.00474710797              0.0021270541           
       0.743267             0.00638443976             0.00165221872           
       0.745908             0.00755974955             0.00195060157           
       0.748548             0.00639621875             0.00165383033           
       0.751189             0.00623629294             0.00220043772           
       0.753829             0.00458118879             0.00173364443           
       0.756469             0.00597119863             0.00159600791           
       0.759110             0.00950092309             0.00212157171           
       0.761750             0.00777453675             0.00169696443           
       0.764390             0.00604637392             0.00156634868           
       0.767031             0.00573704461             0.00132124762           
       0.769671             0.00855050999             0.00201210553           
       0.772312             0.00683495407              0.0013695374           
       0.774952             0.00448861749             0.00149872555           
       0.777592             0.00582747882             0.00124383667           
       0.780233             0.00655109988             0.00159112348           
       0.782873             0.00742073345             0.00161961884           
       0.785513              0.0105120322              0.0020608032           
       0.788154             0.00896090491             0.00159166983           
       0.790794             0.00929090184               0.001937604           
       0.793435             0.00750548727             0.00156450066           
       0.796075             0.00542952395             0.00128183859           
       0.798715              0.0101219466             0.00206822237           
       0.801356             0.00621235526             0.00139453451           
       0.803996             0.00487463003             0.00125940285           
       0.806637             0.00511138925             0.00102630286           
       0.809277             0.00676147046             0.00127763845           
       0.811917             0.00718756586             0.00123144767           
       0.814558             0.00750535058              0.0013078574           
       0.817198             0.00844571385             0.00131806892           
       0.819838             0.00817827651             0.00131269263           
       0.822479             0.00728314006             0.00145465694           
       0.825119             0.00545726638               0.001071723           
       0.827760              0.0064587416             0.00118103227           
       0.830400             0.00722676393             0.00117580404           
       0.833040             0.00753230904             0.00125765274           
       0.835681             0.00542735492             0.00121362881           
       0.838321             0.00765968291              0.0012101268           
       0.840961             0.00837826363             0.00137894989           
       0.843602             0.00625643182             0.00109275679           
       0.846242             0.00587505895             0.00105876966           
       0.848883             0.00679996633             0.00116566975           
       0.851523             0.00542149084             0.00102790501           
       0.854163              0.0092152499             0.00142516894           
       0.856804             0.00639453522             0.00106743937           
       0.859444             0.00666405334             0.00106769793           
       0.862085             0.00744378915             0.00117611079           
       0.864725              0.0080024636             0.00124797851           
       0.867365             0.00769457052             0.00113475824           
       0.870006             0.00745199483             0.00106415603           
       0.872646             0.00801896345             0.00115758771           
       0.875286             0.00509059594             0.00088732376           
       0.877927             0.00862897586              0.0011147661           
       0.880567             0.00883416915             0.00116857141           
       0.883208              0.0110753786             0.00129610699           
       0.885848             0.00536685719            0.000936795546           
       0.888488             0.00775164885               0.001055981           
       0.891129             0.00939354255             0.00119359213           
       0.893769             0.00805696966             0.00105791517           
       0.896410             0.00792269022             0.00097809375           
       0.899050             0.00919397473             0.00115872702           
       0.901690             0.00903121236             0.00125096815           
       0.904331             0.00790126038             0.00103735433           
       0.906971             0.00786186743             0.00110081968           
       0.909611             0.00741163228            0.000972981029           
       0.912252             0.00665282138            0.000952152556           
       0.914892             0.00762297813             0.00111378508           
       0.917533             0.00840339841              0.0011062569           
       0.920173             0.00788131327            0.000993994018           
       0.922813             0.00672846523            0.000963780879           
       0.925454             0.00760218048            0.000922486068           
       0.928094             0.00775695845            0.000994806574           
       0.930734             0.00930882204             0.00117327259           
       0.933375             0.00794698508             0.00107340163           
       0.936015             0.00775327214              0.0009629233           
       0.938656             0.00800160786               0.001049402           
       0.941296             0.00825420887            0.000965942236           
       0.943936             0.00662836772             0.00084885395           
       0.946577             0.00835358167            0.000946641008           
       0.949217             0.00814588283            0.000859632052           
       0.951858             0.00594857784            0.000768978122           
       0.954498             0.00826446391             0.00104912957           
       0.957138             0.00706104174            0.000918697751           
       0.959779             0.00779572336            0.000951596529           
       0.962419             0.00674105208            0.000879002372           
       0.965059             0.00783666408            0.000996780497           
       0.967700             0.00823077317             0.00104625692           
       0.970340              0.0081199632            0.000919580511           
       0.972981             0.00758956938            0.000810000733           
       0.975621             0.00880320063            0.000928043713           
       0.978261             0.00847389381            0.000865154422           
       0.980902             0.00932892628             0.00108608184           
       0.983542             0.00931904765            0.000961286876           
       0.986182             0.00766384373            0.000855876058           
       0.988823             0.00721034188            0.000806093634           
       0.991463              0.0089137797            0.000956225809           
       0.994104             0.00663115443            0.000804559585           
       0.996744             0.00740111404            0.000866979757           
       0.999384             0.00794975885            0.000803595287           
       1.002025             0.00789206617            0.000893658039           
       1.004665             0.00753136668            0.000797811524           
       1.007306             0.00802268683            0.000819208898           
       1.009946             0.00773773103            0.000820506743           
       1.012586             0.00709226172            0.000765068662           
       1.015227             0.00770637501            0.000856769434           
       1.017867              0.0077424996            0.000825342348           
       1.020507             0.00686278942            0.000752669694           
       1.023148             0.00766341972            0.000858218455           
       1.025788             0.00733903748            0.000770083971           
       1.028429             0.00904211528            0.000895520977           
       1.031069              0.0081015175            0.000797684761           
       1.033709              0.0072580823            0.000802589222           
       1.036350             0.00808327009            0.000760708679           
       1.038990             0.00794205023            0.000767890793           
       1.041630             0.00817418982            0.000812538637           
       1.044271             0.00806436782            0.000759012369           
       1.046911             0.00956170452            0.000869347144           
       1.049552             0.00838754358            0.000855443783           
       1.052192             0.00764591456            0.000745795693           
       1.054832              0.0091228297            0.000822058617           
       1.057473             0.00851419239            0.000782877198           
       1.060113             0.00897810345            0.000784043102           
       1.062754             0.00899158671            0.000801095046           
       1.065394              0.0110247658            0.000937846472           
       1.068034             0.00937146879            0.000786732048           
       1.070675             0.00741570818            0.000730020051           
       1.073315             0.00768554272            0.000753835509           
       1.075955             0.00849006109             0.00074798523           
       1.078596             0.00841634308             0.00079150112           
       1.081236             0.00765083242            0.000722624274           
       1.083877             0.00722182753            0.000695774139           
       1.086517             0.00816164848            0.000793134784           
       1.089157              0.0085431892              0.0008419825           
       1.091798             0.00869160057            0.000744564119           
       1.094438             0.00956588988            0.000778593784           
       1.097078             0.00693655689            0.000635896366           
       1.099719             0.00837366774            0.000755718659           
       1.102359             0.00862227119            0.000718168663           
       1.105000              0.0090447654            0.000822492155           
       1.107640             0.00703656388            0.000693657658           
       1.110280             0.00852798447            0.000696762294           
       1.112921             0.00979086825            0.000801980394           
       1.115561             0.00933396768            0.000744217981           
       1.118202             0.00839109455            0.000706293728           
       1.120842             0.00873211937            0.000757253459           
       1.123482             0.00876379342             0.00075531222           
       1.126123             0.00958648696            0.000757712871           
       1.128763             0.00965499942            0.000765629303           
       1.131403             0.00827030043            0.000682799803           
       1.134044             0.00895474461            0.000731098258           
       1.136684             0.00896802085            0.000780055121           
       1.139325               0.009141463            0.000725501374           
       1.141965             0.00984926729            0.000758043224           
       1.144605               0.010606434            0.000750064739           
       1.147246             0.00708343238             0.00062731702           
       1.149886             0.00860549458            0.000688983224           
       1.152527             0.00850266227            0.000694813464           
       1.155167             0.00899287634            0.000679657539           
       1.157807             0.00897764883            0.000728096751           
       1.160448             0.00824258887            0.000681276234           
       1.163088             0.00885649679            0.000673602646           
       1.165728             0.00814361922            0.000663182545           
       1.168369             0.00890781544              0.0007000093           
       1.171009             0.00921237029            0.000690855626           
       1.173650              0.0092609436            0.000710849235           
       1.176290              0.0106729676            0.000745738808           
       1.178930              0.0109632819            0.000740765694           
       1.181571              0.0098960705             0.00071774454           
       1.184211             0.00879904543            0.000679193293           
       1.186851             0.00982046102            0.000701521136           
       1.189492              0.0095954084            0.000688771164           
       1.192132             0.00878372296            0.000651601695           
       1.194773             0.00942385258            0.000677876446           
       1.197413             0.00930760046             0.00064548307           
       1.200053             0.00822810556            0.000622318653           
       1.202694             0.00957614385               0.000638429           
       1.205334             0.00922353788            0.000675240826           
       1.207975             0.00952828407            0.000655097644           
       1.210615             0.00920733209            0.000710408256           
       1.213255              0.0097729857            0.000655404101           
       1.215896             0.00943552884            0.000655657728           
       1.218536             0.00990554708            0.000645954477           
       1.221176              0.0097072364            0.000695219575           
       1.223817               0.010170487            0.000668005028           
       1.226457             0.00967243289             0.00066456761           
       1.229098             0.00972672882            0.000666397798           
       1.231738              0.0103277204             0.00069005639           
       1.234378              0.0109336799            0.000667162734           
       1.237019              0.0112289375            0.000696725876           
       1.239659             0.00952092403            0.000635963867           
       1.242299             0.00940792727            0.000624146798           
       1.244940             0.00950806466            0.000610243893           
       1.247580             0.00936573457            0.000624181305           
       1.250221              0.0100914326            0.000643914479           
       1.252861             0.00951574418            0.000595267674           
       1.255501              0.0107936939            0.000688381756           
       1.258142               0.010608582            0.000641287366           
       1.260782              0.0101092561             0.00063955859           
       1.263423              0.0108772026            0.000637458057           
       1.266063              0.0111690134            0.000662082538           
       1.268703              0.0100440766            0.000622645566           
       1.271344             0.00973090259             0.00063363199           
       1.273984              0.0111966421            0.000656436708           
       1.276624              0.0107429574            0.000630920133           
       1.279265             0.00991444024            0.000616168468           
       1.281905               0.010656507            0.000641646763           
       1.284546             0.00959449429            0.000588494245           
       1.287186             0.00996380349            0.000588382482           
       1.289826              0.0109121855               0.000648948           
       1.292467              0.0103702795            0.000618695059           
       1.295107               0.010127194            0.000605327361           
       1.297747              0.0111360838            0.000607416004           
       1.300388              0.0107001019            0.000649068804           
       1.303028              0.0114057892            0.000639746891           
       1.305669              0.0101116596             0.00061670361           
       1.308309              0.0108407154            0.000632260808           
       1.310949              0.0118009456            0.000659005476           
       1.313590              0.0103488997            0.000597840658           
       1.316230              0.0107258618            0.000649494368           
       1.318871              0.0116780047            0.000663733306           
       1.321511              0.0107914979            0.000626216993           
       1.324151             0.00987188398             0.00058118455           
       1.326792              0.0102092516            0.000594685991           
       1.329432              0.0107049026            0.000604653428           
       1.332072              0.0111650616            0.000608309631           
       1.334713              0.0102967639            0.000602928713           
       1.337353              0.0111170372            0.000600810839           
       1.339994              0.0117444963            0.000648039747           
       1.342634              0.0110999375            0.000604136227           
       1.345274              0.0116337276            0.000640081055           
       1.347915              0.0100691989            0.000579043638           
       1.350555              0.0111679613            0.000620499035           
       1.353195              0.0116006855            0.000635512066           
       1.355836              0.0115792307            0.000625023674           
       1.358476              0.0102076561            0.000569910634           
       1.361117              0.0110398066            0.000593499273           
       1.363757              0.0113428023            0.000619957897           
       1.366397                0.01055499            0.000579943513           
       1.369038              0.0121927822            0.000629522376           
       1.371678              0.0116800209            0.000610711124           
       1.374319              0.0111044909            0.000590347198           
       1.376959              0.0117748924             0.00060179288           
       1.379599              0.0119558527            0.000649876651           
       1.382240              0.0114233558            0.000597029792           
       1.384880              0.0114335125            0.000632671278           
       1.387520              0.0114354503            0.000600918349           
       1.390161              0.0111246803            0.000562919602           
       1.392801              0.0113678605            0.000592883397           
       1.395442              0.0110263393             0.00059188444           
       1.398082              0.0111656155            0.000557763583           
       1.400722              0.0115824602            0.000595050388           
       1.403363              0.0115412508            0.000625247566           
       1.406003              0.0108551542            0.000567488533           
       1.408644              0.0112219546            0.000604441583           
       1.411284              0.0111827689            0.000571352385           
       1.413924              0.0117853794            0.000584370279           
       1.416565              0.0120357582            0.000588225359           
       1.419205              0.0117377589            0.000605968928           
       1.421845              0.0119921705             0.00061214115           
       1.424486              0.0111112834            0.000566385394           
       1.427126              0.0101806338            0.000563186255           
       1.429767              0.0109358293            0.000549191768           
       1.432407              0.0115942932            0.000591792184           
       1.435047              0.0111503308            0.000545046196           
       1.437688              0.0114190527            0.000559821888           
       1.440328              0.0118865812            0.000582940316           
       1.442968              0.0112240552            0.000579153537           
       1.445609              0.0111639009            0.000559276488           
       1.448249              0.0101251704            0.000546108442           
       1.450890              0.0110171796            0.000565938214           
       1.453530              0.0115020269             0.00060497326           
       1.456170              0.0112535367            0.000580763806           
       1.458811              0.0105926272            0.000538784719           
       1.461451              0.0111094215            0.000553218783           
       1.464092              0.0103751501              0.0005381192           
       1.466732              0.0118608688            0.000570415627           
       1.469372               0.011353511            0.000545021469           
       1.472013              0.0111668765            0.000582965122           
       1.474653              0.0105341566            0.000557474292           
       1.477293              0.0110974563            0.000584245038           
       1.479934              0.0111421726            0.000558613873           
       1.482574              0.0109662681             0.00053608918           
       1.485215              0.0114764856            0.000558632886           
       1.487855              0.0106798312            0.000546004015           
       1.490495              0.0103276581            0.000534948713           
       1.493136              0.0117666864            0.000563176225           
       1.495776              0.0113173766            0.000549804264           
       1.498416              0.0107631705            0.000553715555           
       1.501057              0.0110282422             0.00054814002           
       1.503697              0.0104653789            0.000522039625           
       1.506338              0.0112843386            0.000551986541           
       1.508978              0.0113554505            0.000548277591           
       1.511618              0.0108887357            0.000571787501           
       1.514259              0.0116152778            0.000570153688           
       1.516899              0.0113872631            0.000549664814           
       1.519540               0.010487275             0.00053600278           
       1.522180              0.0101993434            0.000533236928           
       1.524820             0.00925540683            0.000505112842           
       1.527461              0.0112765389            0.000560300682           
       1.530101              0.0101189807             0.00052545599           
       1.532741              0.0109368336            0.000543107812           
       1.535382              0.0102280142            0.000533668828           
       1.538022              0.0110281523            0.000522038896           
       1.540663              0.0115435199            0.000574454933           
       1.543303              0.0105895415            0.000510875354           
       1.545943              0.0103030345            0.000533358864           
       1.548584              0.0109827724            0.000560556824           
       1.551224              0.0104958699            0.000506668819           
       1.553864              0.0110302212            0.000548849631           
       1.556505              0.0109539283             0.00052836614           
       1.559145              0.0114688689            0.000547265499           
       1.561786              0.0103739513            0.000520887845           
       1.564426             0.00996252216            0.000494576956           
       1.567066             0.00962938585            0.000509483626           
       1.569707              0.0111959091            0.000539496221           
       1.572347              0.0105427317            0.000540851018           
       1.574988              0.0100250144            0.000502000363           
       1.577628              0.0101888501            0.000527722661           
       1.580268             0.00958432571            0.000495906705           
       1.582909             0.00986049407            0.000533160674           
       1.585549             0.00914534227              0.0004985557           
       1.588189             0.00939841286            0.000494375971           
       1.590830              0.0105165756            0.000522302181           
       1.593470             0.00983680283             0.00052514133           
       1.596111             0.00952559917             0.00050452582           
       1.598751             0.00907646388            0.000477204293           
       1.601391             0.00934870949            0.000494993386           
       1.604032             0.00976913044            0.000516579204           
       1.606672             0.00949940631            0.000494928473           
       1.609312             0.00917421504            0.000507727294           
       1.611953             0.00966881669            0.000510059936           
       1.614593             0.00947810009            0.000495369358           
       1.617234             0.00904151935             0.00050142601           
       1.619874             0.00869374026            0.000489745562           
       1.622514               0.009594765             0.00050748026           
       1.625155             0.00959348604            0.000510444173           
       1.627795             0.00981298392            0.000503601536           
       1.630436             0.00851413497            0.000466641205           
       1.633076             0.00933785565            0.000495102722           
       1.635716             0.00979847921            0.000499276013           
       1.638357              0.0103639576            0.000514834217           
       1.640997             0.00898180982            0.000493795194           
       1.643637             0.00930682206            0.000489135048           
       1.646278             0.00931482921            0.000504720698           
       1.648918             0.00897032886              0.0004966506           
       1.651559             0.00857902212            0.000489467014           
       1.654199             0.00958071593            0.000503074556           
       1.656839             0.00864377912            0.000478009769           
       1.659480             0.00914336966            0.000510091279           
       1.662120             0.00956816024            0.000491455189           
       1.664761             0.00929731814            0.000503218032           
       1.667401             0.00872593552            0.000465954983           
       1.670041             0.00862690335            0.000470367666           
       1.672682             0.00963252519            0.000494984235           
       1.675322             0.00894191644            0.000473843419           
       1.677962             0.00869496883             0.00046210016           
       1.680603             0.00872045166            0.000464200895           
       1.683243             0.00892715134             0.00049001318           
       1.685884             0.00970835627            0.000514777421           
       1.688524             0.00935566944            0.000495572159           
       1.691164             0.00985528506            0.000508747893           
       1.693805             0.00821466883            0.000469578214           
       1.696445             0.00963609968            0.000511535163           
       1.699085             0.00954697866            0.000492103029           
       1.701726             0.00967789453            0.000477294611           
       1.704366             0.00857685083            0.000473350952           
       1.707007             0.00942004557            0.000485015263           
       1.709647             0.00850706972            0.000466118068           
       1.712287             0.00887140941            0.000480138025           
       1.714928             0.00840973292            0.000471246775           
       1.717568             0.00812291013            0.000436280544           
       1.720209             0.00819483455            0.000458992289           
       1.722849             0.00897670503            0.000477920062           
       1.725489             0.00850921334            0.000465699756           
       1.728130             0.00770981723             0.00047108807           
       1.730770             0.00869173206             0.00047504413           
       1.733410             0.00862092872            0.000465668549           
       1.736051              0.0080049875             0.00045184827           
       1.738691             0.00808130448            0.000444793941           
       1.741332             0.00843264773            0.000467645801           
       1.743972             0.00918253224            0.000503938775           
       1.746612             0.00828232273            0.000459577932           
       1.749253             0.00877692943            0.000482444569           
       1.751893             0.00833682652            0.000466742066           
       1.754533             0.00855902225            0.000472479392           
       1.757174             0.00862655944             0.00046989789           
       1.759814             0.00816073079            0.000450106978           
       1.762455              0.0089806563            0.000480847644           
       1.765095             0.00865435417            0.000451555317           
       1.767735             0.00849034268            0.000461053906           
       1.770376             0.00821783442             0.00045479031           
       1.773016             0.00772911574              0.0004381054           
       1.775657             0.00846799778            0.000451970169           
       1.778297             0.00902803527             0.00046265811           
       1.780937             0.00828966052            0.000467939834           
       1.783578             0.00846458837            0.000461027992           
       1.786218             0.00787003112            0.000463927998           
       1.788858             0.00870924383            0.000463517214           
       1.791499             0.00841985557             0.00045063284           
       1.794139              0.0088729485            0.000458845646           
       1.796780             0.00939533861            0.000469883394           
       1.799420             0.00889447466            0.000454655375           
       1.802060              0.0081105044            0.000437663113           
       1.804701             0.00931458009            0.000450099455           
       1.807341             0.00888391269            0.000461893462           
       1.809981             0.00836051953             0.00044957469           
       1.812622             0.00799014793            0.000431591303           
       1.815262             0.00860061357             0.00045728693           
       1.817903             0.00954033554            0.000474485408           
       1.820543             0.00853861493            0.000455879281           
       1.823183             0.00859904039               0.000457238           
       1.825824             0.00886559509            0.000443545412           
       1.828464             0.00913326546            0.000469343988           
       1.831105             0.00819795989            0.000432369137           
       1.833745             0.00865315965            0.000453697834           
       1.836385             0.00839463257             0.00045962191           
       1.839026             0.00807449477            0.000449348455           
       1.841666             0.00810669842            0.000448647103           
       1.844306             0.00824628935             0.00044014679           
       1.846947             0.00817080898            0.000441968284           
       1.849587             0.00789827622            0.000479831949           
       1.852228             0.00780868569             0.00043141917           
       1.854868             0.00867096119            0.000480233874           
       1.857508              0.0076828591            0.000447610291           
       1.860149             0.00846450391            0.000478364641           
       1.862789             0.00738749062            0.000431358307           
       1.865429             0.00822700039            0.000475168127           
       1.868070             0.00745003756            0.000446147506           
       1.870710             0.00862127929            0.000468873185           
       1.873351             0.00761648243            0.000446151869           
       1.875991             0.00837338314            0.000475429951           
       1.878631             0.00750115972            0.000441369055           
       1.881272             0.00778074582            0.000446507338           
       1.883912             0.00887587593            0.000496309936           
       1.886553             0.00724104972            0.000443266957           
       1.889193             0.00773048155            0.000457219948           
       1.891833             0.00768969228             0.00047358636           
       1.894474             0.00776902809            0.000471877442           
       1.897114              0.0080709572            0.000465414346           
       1.899754             0.00762000919            0.000454117589           
       1.902395             0.00779899168            0.000450437692           
       1.905035             0.00717263697            0.000457530037           
       1.907676             0.00860180577            0.000472234505           
       1.910316             0.00777479995            0.000460880509           
       1.912956             0.00747384805            0.000441931199           
       1.915597             0.00757782013            0.000447481548           
       1.918237             0.00703113461            0.000445157511           
       1.920878             0.00801719904            0.000473402814           
       1.923518             0.00732368079            0.000452656161           
       1.926158             0.00797942672            0.000466355473           
       1.928799             0.00829859198            0.000470085698           
       1.931439             0.00722665466            0.000450181618           
       1.934079             0.00803441779            0.000494836956           
       1.936720             0.00776640755            0.000450769008           
       1.939360             0.00827969117            0.000496545085           
       1.942001             0.00781918044             0.00044227153           
       1.944641             0.00758195214            0.000444089341           
       1.947281             0.00774026199            0.000444565737           
       1.949922             0.00720769052            0.000443117963           
       1.952562             0.00674693081            0.000442159181           
       1.955202             0.00808341621            0.000483385119           
       1.957843             0.00764247939             0.00045782745           
       1.960483             0.00745100097            0.000472623683           
       1.963124             0.00705939517            0.000450598269           
       1.965764             0.00715445665            0.000427778245           
       1.968404             0.00854559284            0.000463104044           
       1.971045             0.00777188399            0.000450277513           
       1.973685             0.00778192979            0.000472612647           
       1.976326             0.00795862279            0.000471379209           
       1.978966              0.0080407396            0.000477962846           
       1.981606             0.00743108324            0.000469068788           
       1.984247             0.00764255105            0.000472568691           
       1.986887             0.00680521548            0.000440588299           
       1.989527             0.00803938474            0.000473719185           
       1.992168             0.00724662338            0.000466660448           
       1.994808             0.00701927508            0.000457313097           
       1.997449             0.00785215101            0.000473750929           
       2.000089             0.00736305697            0.000456940419           
       2.002729             0.00749899628            0.000461415691           
       2.005370             0.00711008525            0.000444457252           
       2.008010             0.00865871962             0.00051188398           
       2.010650             0.00794934322             0.00049412739           
       2.013291             0.00763036059            0.000464478654           
       2.015931             0.00781880657            0.000466855607           
       2.018572             0.00691603389            0.000469634604           
       2.021212              0.0070053197             0.00046416428           
       2.023852             0.00776030819            0.000462377001           
       2.026493             0.00771872987            0.000481739297           
       2.029133             0.00841820176            0.000492969356           
       2.031774             0.00844321725            0.000518128506           
       2.034414             0.00724726919            0.000441696646           
       2.037054             0.00763385456            0.000464814417           
       2.039695             0.00767102102            0.000462425474           
       2.042335             0.00806769133             0.00049282996           
       2.044975             0.00799267751            0.000484584602           
       2.047616             0.00773944046            0.000475661597           
       2.050256             0.00664087961            0.000444781545           
       2.052897             0.00756268256            0.000483398673           
       2.055537             0.00730360967            0.000459114566           
       2.058177             0.00733017089            0.000450413748           
       2.060818             0.00700992868            0.000461421186           
       2.063458             0.00639492401            0.000459269435           
       2.066098              0.0079204019            0.000482158026           
       2.068739             0.00714326046            0.000465010514           
       2.071379             0.00815507494             0.00050981178           
       2.074020             0.00804829497            0.000495456273           
       2.076660             0.00758637856            0.000484916928           
       2.079300             0.00666063532            0.000465501122           
       2.081941             0.00790460387            0.000464317814           
       2.084581             0.00721929906            0.000468365677           
       2.087222             0.00750732316            0.000460616291           
       2.089862             0.00854409617            0.000535202988           
       2.092502             0.00781452493            0.000496158705           
       2.095143             0.00755955333            0.000503930167           
       2.097783             0.00780928625            0.000495882553           
       2.100423             0.00800230972            0.000483697723           
       2.103064             0.00800048682            0.000501844219           
       2.105704             0.00748912034             0.00048313623           
       2.108345             0.00753841135            0.000465689714           
       2.110985             0.00767957624            0.000502025798           
       2.113625             0.00725433277            0.000492186337           
       2.116266             0.00759455974            0.000510740658           
       2.118906             0.00725238079             0.00046513523           
       2.121546             0.00736899018            0.000459907745           
       2.124187             0.00739599817            0.000483644965           
       2.126827             0.00727278236            0.000484952016           
       2.129468             0.00774286942            0.000501657559           
       2.132108             0.00747790077            0.000479650736           
       2.134748             0.00698202543            0.000461676462           
       2.137389             0.00780676427            0.000509296014           
       2.140029             0.00714460881             0.00043618794           
       2.142670             0.00806521942            0.000495287178           
       2.145310             0.00865611143            0.000499419077           
       2.147950             0.00782030583             0.00048859155           
       2.150591             0.00820890019            0.000495524618           
       2.153231             0.00659800926            0.000457288172           
       2.155871             0.00709985916            0.000458263638           
       2.158512             0.00753405905            0.000492570027           
       2.161152              0.0071066079            0.000463401128           
       2.163793             0.00733596616            0.000468700057           
       2.166433             0.00742533471            0.000484228398           
       2.169073             0.00726347586            0.000468259246           
       2.171714             0.00743472792             0.00047020571           
       2.174354             0.00763517241            0.000497900638           
       2.176995              0.0065398137            0.000458864737           
       2.179635             0.00734521724            0.000513880651           
       2.182275             0.00690336801            0.000470365484           
       2.184916             0.00763736735            0.000477854304           
       2.187556              0.0070614824            0.000454879928           
       2.190196             0.00630267743            0.000449078295           
       2.192837             0.00743887827            0.000485225796           
       2.195477             0.00698368106            0.000448227967           
       2.198118             0.00720000266            0.000466778731           
       2.200758             0.00688339705            0.000468239243           
       2.203398             0.00654677295            0.000459567728           
       2.206039              0.0072257306            0.000456939327           
       2.208679             0.00721132934            0.000467107394           
       2.211319             0.00578111529             0.00042064123           
       2.213960             0.00596798127            0.000433111717           
       2.216600             0.00700653277            0.000485466112           
       2.219241             0.00735600114            0.000475404574           
       2.221881             0.00703974975            0.000466029159           
       2.224521             0.00794564588            0.000501173984           
       2.227162             0.00753503949            0.000478280705           
       2.229802             0.00697824791            0.000474678961           
       2.232443              0.0076241659             0.00048833547           
       2.235083             0.00633064347            0.000458111535           
       2.237723             0.00690594539            0.000459165826           
       2.240364             0.00625048885            0.000447594234           
       2.243004             0.00665023841            0.000457999948           
       2.245644              0.0074804401            0.000490609355           
       2.248285             0.00792178797            0.000494760849           
       2.250925             0.00763858527            0.000488787813           
       2.253566             0.00721268929            0.000507775006           
       2.256206             0.00728134199            0.000499984664           
       2.258846             0.00714322234            0.000471091072           
       2.261487                0.00788709            0.000519561564           
       2.264127             0.00850855962             0.00052117878           
       2.266767             0.00801484307            0.000519308646           
       2.269408             0.00730832295            0.000497922465           
       2.272048             0.00737194371            0.000497099969           
       2.274689             0.00745986654            0.000506644455           
       2.277329             0.00726643895            0.000470813199           
       2.279969             0.00685342761            0.000486703009           
       2.282610             0.00709375065            0.000481391046           
       2.285250             0.00762880719            0.000477817408           
       2.287891              0.0077509814            0.000516378256           
       2.290531             0.00764111142            0.000519597508           
       2.293171             0.00735154062            0.000496451981           
       2.295812             0.00689504814            0.000478858813           
       2.298452             0.00673366184            0.000494863951           
       2.301092             0.00698623078            0.000468333024           
       2.303733             0.00726631193            0.000496900611           
       2.306373             0.00697633348            0.000494552407           
       2.309014             0.00712791313            0.000490144429           
       2.311654             0.00744448237            0.000522723866           
       2.314294             0.00746221468            0.000482160641           
       2.316935              0.0071637696            0.000474372221           
       2.319575             0.00637829551             0.00046899274           
       2.322215             0.00789805646            0.000543891151           
       2.324856             0.00709944024            0.000474096422           
       2.327496             0.00708141754             0.00050347309           
       2.330137             0.00767123205             0.00050144893           
       2.332777             0.00720865695            0.000501215971           
       2.335417             0.00709439278            0.000482385239           
       2.338058             0.00786860959            0.000523201191           
       2.340698             0.00729280406            0.000499736019           
       2.343339             0.00711976532            0.000504637636           
       2.345979             0.00592438617             0.00043550799           
       2.348619             0.00695177582            0.000489005881           
       2.351260             0.00750339852            0.000505076897           
       2.353900             0.00797324543            0.000519000917           
       2.356540             0.00700340642            0.000485722582           
       2.359181             0.00625465737            0.000452588712           
       2.361821             0.00766528202            0.000483984184           
       2.364462             0.00686218979            0.000478936786           
       2.367102             0.00719522862            0.000503986111           
       2.369742             0.00763354075            0.000546398988           
       2.372383             0.00786124725            0.000502088035           
       2.375023             0.00674214293            0.000488793442           
       2.377663             0.00775354948            0.000501188694           
       2.380304             0.00734676318            0.000495998812           
       2.382944             0.00680451708            0.000454654845           
       2.385585             0.00781661862            0.000519709324           
       2.388225             0.00709411013            0.000492781585           
       2.390865             0.00698427281            0.000483929235           
       2.393506               0.006615771            0.000462104017           
       2.396146             0.00724949635            0.000523031194           
       2.398787              0.0073771791            0.000486240073           
       2.401427             0.00677286784            0.000449700055           
       2.404067             0.00740038058            0.000480556445           
       2.406708             0.00716616407            0.000467219948           
       2.409348             0.00664514492            0.000477222607           
       2.411988             0.00717406818            0.000485824667           
       2.414629             0.00732157264            0.000506078924           
       2.417269             0.00727200829            0.000510251606           
       2.419910             0.00770277456            0.000526365461           
       2.422550              0.0065563338             0.00046460887           
       2.425190             0.00626126259            0.000478598755           
       2.427831             0.00724789603            0.000512033498           
       2.430471             0.00650439701             0.00046211383           
       2.433112             0.00747209198            0.000482302163           
       2.435752             0.00719005878            0.000500700622           
       2.438392             0.00612819845            0.000446167149           
       2.441033              0.0078486434            0.000535120985           
       2.443673              0.0071578669            0.000511422983           
       2.446313             0.00713039901            0.000510890814           
       2.448954             0.00719735579            0.000488718046           
       2.451594             0.00724214016            0.000527118441           
       2.454235             0.00773878766            0.000511248735           
       2.456875             0.00760841583            0.000530424253           
       2.459515             0.00781666397            0.000551552231           
       2.462156             0.00672419664            0.000482983382           
       2.464796             0.00791715642            0.000517317326           
       2.467436             0.00722472435            0.000511037674           
       2.470077             0.00906890463            0.000542681321           
       2.472717             0.00839235504            0.000524308126           
       2.475358               0.008560323            0.000535050421           
       2.477998             0.00847098006            0.000523277982           
       2.480638             0.00712647958            0.000488486318           
       2.483279             0.00765373362            0.000529095526           
       2.485919             0.00668156133             0.00047642129           
       2.488560             0.00881667277            0.000545744487           
       2.491200              0.0076722096            0.000524231369           
       2.493840             0.00758362804            0.000551493892           
       2.496481             0.00743027746            0.000536959902           
       2.499121             0.00659491062            0.000492044886           
       2.501761             0.00644293972            0.000492786383           
       2.504402             0.00695971783            0.000504685301           
       2.507042             0.00671235599            0.000491963784           
       2.509683             0.00723902988            0.000503091573           
       2.512323             0.00720837781            0.000527251316           
       2.514963             0.00672751344            0.000503068695           
       2.517604             0.00696556304            0.000531166401           
       2.520244             0.00755058775            0.000518459676           
       2.522884              0.0076048092            0.000527758938           
       2.525525              0.0116264251            0.000659957697           
       2.528165             0.00736072111            0.000516928189           
       2.530806             0.00717987321            0.000519437216           
       2.533446             0.00809782565             0.00053986951           
       2.536086             0.00692544963            0.000494793489           
       2.538727             0.00673293019            0.000468034878           
       2.541367             0.00689439239            0.000478278914           
       2.544008              0.0071902711             0.00050443307           
       2.546648             0.00692239199            0.000503437038           
       2.549288             0.00739473759            0.000530931652           
       2.551929             0.00693296274            0.000505892424           
       2.554569             0.00709024315            0.000492882385           
       2.557209             0.00724728479            0.000502887287           
       2.559850             0.00589015974            0.000454819322           
       2.562490             0.00648121433             0.00049310182           
       2.565131             0.00693174258            0.000528741594           
       2.567771             0.00681632757            0.000505524443           
       2.570411             0.00690130079            0.000503161956           
       2.573052             0.00695812953            0.000511592011           
       2.575692             0.00687949976            0.000505612806           
       2.578332             0.00670220014            0.000501118629           
       2.580973             0.00721690032             0.00051505695           
       2.583613             0.00739833124            0.000509073771           
       2.586254              0.0068855424            0.000490432145           
       2.588894             0.00719394263            0.000520570884           
       2.591534             0.00743959247            0.000548011968           
       2.594175             0.00765577487            0.000545426658           
       2.596815             0.00711835531            0.000529035484           
       2.599456             0.00704152229            0.000498967058           
       2.602096             0.00750487371            0.000519042472           
       2.604736             0.00729743202             0.00052395514           
       2.607377             0.00633648554            0.000475373219           
       2.610017             0.00684501494            0.000485434239           
       2.612657             0.00779344127            0.000550943297           
       2.615298             0.00715946815            0.000515551945           
       2.617938             0.00773007665            0.000573065136           
       2.620579             0.00813018485            0.000564194632           
       2.623219             0.00651768135            0.000504435664           
       2.625859             0.00655706753            0.000491932621           
       2.628500             0.00779196586            0.000532743692           
       2.631140             0.00645726447            0.000492447334           
       2.633780             0.00754439051            0.000531826383           
       2.636421             0.00696924521            0.000523722937           
       2.639061             0.00703319859            0.000495281907           
       2.641702             0.00638435434            0.000482807586           
       2.644342             0.00659007593            0.000492614724           
       2.646982             0.00736807045            0.000513094597           
       2.649623             0.00697880477            0.000523306012           
       2.652263             0.00679673625            0.000511252289           
       2.654904             0.00728566281            0.000529854083           
       2.657544             0.00710558675            0.000492861396           
       2.660184             0.00696637492            0.000516456131           
       2.662825             0.00675853587            0.000520495273           
       2.665465             0.00825508754            0.000556354699           
       2.668105             0.00716631775            0.000546380707           
       2.670746             0.00885424137             0.00056104117           
       2.673386             0.00794972425            0.000547869175           
       2.676027             0.00897607468            0.000572818991           
       2.678667             0.00979708623            0.000583930568           
       2.681307              0.0116958118            0.000626881755           
       2.683948              0.0151299381            0.000732573593           
       2.686588              0.0110970111            0.000616982921           
       2.689229              0.0103595022            0.000582511702           
       2.691869              0.0100438243            0.000606204136           
       2.694509             0.00950076382            0.000589911926           
       2.697150             0.00833188826             0.00054347035           
       2.699790              0.0074364644            0.000538265216           
       2.702430             0.00644447896            0.000478972135           
       2.705071             0.00709383202            0.000519263697           
       2.707711             0.00709697911            0.000504096113           
       2.710352             0.00651442679             0.00051031183           
       2.712992             0.00618383234             0.00050638772           
       2.715632              0.0074613148              0.0005160801           
       2.718273             0.00674639956            0.000508578939           
       2.720913             0.00700587077             0.00051679218           
       2.723553              0.0071936079            0.000527184248           
       2.726194             0.00632438185            0.000516715325           
       2.728834             0.00828116451             0.00059155035           
       2.731475             0.00747559351            0.000518715577           
       2.734115             0.00751811278            0.000536332925           
       2.736755             0.00700232679            0.000521868627           
       2.739396             0.00740166997            0.000533434753           
       2.742036              0.0073233082            0.000555310244           
       2.744677             0.00670032606            0.000515377124           
       2.747317             0.00694445386            0.000520940694           
       2.749957             0.00759608606            0.000548657517           
       2.752598              0.0073169355            0.000544325677           
       2.755238             0.00763027256            0.000565892978           
       2.757878             0.00750675751            0.000556386564           
       2.760519             0.00835411528            0.000580725852           
       2.763159             0.00897351072            0.000595854578           
       2.765800             0.00753310096            0.000520273581           
       2.768440             0.00875350279            0.000564967529           
       2.771080             0.00929919217            0.000587171837           
       2.773721             0.00687074338            0.000517732659           
       2.776361             0.00682317158            0.000523055066           
       2.779001             0.00811381429            0.000590689695           
       2.781642             0.00786976889            0.000577451433           
       2.784282              0.0067286917            0.000542729241           
       2.786923             0.00655619262            0.000540444241           
       2.789563             0.00779960892            0.000567728514           
       2.792203             0.00648249152            0.000494434179           
       2.794844             0.00655199923            0.000544789222           
       2.797484              0.0069328693            0.000528880837           
       2.800125             0.00646193304            0.000536898232           
       2.802765             0.00671021106             0.00053770304           
       2.805405             0.00684218998            0.000544802888           
       2.808046             0.00727331203            0.000571579055           
       2.810686             0.00735995397            0.000528333681           
       2.813326             0.00634163884            0.000509414935           
       2.815967             0.00660789526            0.000534784056           
       2.818607             0.00673020953             0.00051503213           
       2.821248             0.00580322691            0.000468320896           
       2.823888             0.00678832646            0.000525772754           
       2.826528             0.00652460294            0.000499196152           
       2.829169             0.00699364316             0.00054134822           
       2.831809             0.00715313154            0.000554933086           
       2.834449             0.00675024679            0.000542485726           
       2.837090             0.00715631823            0.000539484698           
       2.839730             0.00660498842            0.000515756523           
       2.842371             0.00682709274            0.000525113209           
       2.845011             0.00726356381            0.000545956388           
       2.847651             0.00790966062            0.000570420403           
       2.850292             0.00708240901            0.000545064721           
       2.852932             0.00712818009            0.000558740268           
       2.855573             0.00654393956            0.000519307552           
       2.858213              0.0061745037             0.00052971892           
       2.860853             0.00782500434            0.000554724017           
       2.863494             0.00699501666            0.000543026013           
       2.866134             0.00682370497            0.000557454058           
       2.868774             0.00627510652            0.000525378698           
       2.871415             0.00660830753            0.000547544795           
       2.874055             0.00576081669            0.000488672568           
       2.876696             0.00585547735            0.000505997159           
       2.879336             0.00827795432            0.000579854253           
       2.881976             0.00626735047            0.000520402687           
       2.884617             0.00813098674            0.000584041341           
       2.887257             0.00677196209            0.000535753596           
       2.889897             0.00740397874            0.000548667136           
       2.892538             0.00760919435            0.000609339781           
       2.895178             0.00677307521            0.000519372882           
       2.897819             0.00703341239            0.000539896137           
       2.900459             0.00717211977            0.000534588103           
       2.903099             0.00635256815            0.000497968401           
       2.905740             0.00615923613            0.000503018333           
       2.908380             0.00727074138            0.000552734411           
       2.911021             0.00651199977            0.000531604299           
       2.913661             0.00775654792            0.000580009898           
       2.916301             0.00795516972            0.000587949267           
       2.918942              0.0065944454            0.000512035894           
       2.921582             0.00709909896            0.000555858393           
       2.924222             0.00750938909            0.000553863092           
       2.926863             0.00780377781            0.000588111907           
       2.929503              0.0074772457            0.000582496585           
       2.932144             0.00731567511            0.000553086844           
       2.934784             0.00744682939            0.000548872675           
       2.937424             0.00798260496            0.000574108941           
       2.940065             0.00737310212            0.000526323157           
       2.942705             0.00694784857            0.000510278563           
       2.945346             0.00819469337            0.000588122058           
       2.947986             0.00676474432            0.000544853329           
       2.950626             0.00694924735            0.000549124294           
       2.953267             0.00709125699             0.00054574409           
       2.955907             0.00728865313            0.000573960022           
       2.958547             0.00688603369            0.000526669502           
       2.961188             0.00732833951            0.000566835371           
       2.963828             0.00729481082            0.000553199916           
       2.966469             0.00738986968            0.000546211643           
       2.969109              0.0076962235            0.000565677533           
       2.971749             0.00640531557            0.000512840832           
       2.974390             0.00742187088            0.000542478425           
       2.977030             0.00718510135            0.000545683808           
       2.979670             0.00952470902            0.000611119391           
       2.982311             0.00900909197            0.000616011669           
       2.984951             0.00628967972            0.000489534592           
       2.987592             0.00726490542            0.000536656873           
       2.990232              0.0068135217            0.000540500843           
       2.992872             0.00812287339            0.000555891769           
       2.995513             0.00888047468            0.000568641414           
       2.998153              0.0106419047            0.000632945271           
       3.000794              0.0115791971            0.000639501237           
       3.003434              0.0131991569            0.000683802207           
       3.006074              0.0472386789             0.00127548741           
       3.008715               0.119737823             0.00196024969           
       3.011355               0.187765097              0.0023671495           
       3.013995              0.0983191978             0.00171758177           
       3.016636              0.0612185213             0.00132717276           
       3.019276                0.13003201             0.00190132214           
       3.021917               0.483465548             0.00352520619           
       3.024557                1.64945307             0.00640179434           
       3.027197                 1.1539785             0.00522049596           
       3.029838               0.510616808             0.00352190355           
       3.032478               0.265569913             0.00254249846           
       3.035118              0.0681304765             0.00130505784           
       3.037759              0.0955367756             0.00154341829           
       3.040399                0.13299495             0.00187843288           
       3.043040               0.521419644             0.00376498063           
       3.045680               0.396160654             0.00308765578           
       3.048320              0.0867105149             0.00147596567           
       3.050961               0.105412255             0.00165604319           
       3.053601              0.0845480154             0.00142842939           
       3.056242               0.056745213             0.00124420442           
       3.058882              0.0465053152             0.00120825317           
       3.061522              0.0371369258             0.00105933032           
       3.064163              0.0411290454             0.00110077665           
       3.066803               0.102765847             0.00183184553           
       3.069443               0.100462997             0.00189498399           
       3.072084              0.0559359171             0.00137685369           
       3.074724              0.0430280313             0.00134859805           
       3.077365              0.0815404486              0.0019217944           
       3.080005              0.0186191478            0.000923536901           
       3.082645             0.00989637363            0.000707323541           
       3.085286              0.0129191943            0.000814536919           
       3.087926             0.00944511889            0.000691093217           
       3.090566              0.0107041828            0.000720858811           
       3.093207             0.00866257573            0.000674811149           
       3.095847             0.00756790855            0.000604549456           
       3.098488             0.00771357857            0.000676762626           
       3.101128               0.010530513            0.000795824343           
       3.103768             0.00983498245            0.000754624312           
       3.106409             0.00949925835            0.000789296643           
       3.109049             0.00863104873            0.000722005114           
       3.111690             0.00956493992             0.00074701514           
       3.114330             0.00741023976            0.000671500569           
       3.116970             0.00834786202            0.000718189893           
       3.119611              0.0124500234            0.000933588505           
       3.122251              0.0196365303             0.00122644595           
       3.124891               0.034057151             0.00163022218           
       3.127532              0.0268539337             0.00141616773           
       3.130172              0.0133223293             0.00101470795           
       3.132813             0.00983333185            0.000858226337           
       3.135453             0.00808349885            0.000771718653           
       3.138093             0.00674048364            0.000763568378           
       3.140734             0.00611914711            0.000671197715           
       3.143374             0.00692246049            0.000754976787           
       3.146014             0.00704940367            0.000820185292           
       3.148655             0.00674429462            0.000745755921           
       3.151295             0.00580149508            0.000737081599           
       3.153936             0.00627859652            0.000740696788           
       3.156576             0.00535161275            0.000674533743           
       3.159216             0.00651869916            0.000748184399           
       3.161857             0.00756936104            0.000802946666           
       3.164497             0.00722762363            0.000824400956           
       3.167138              0.0073099722            0.000856646218           
       3.169778              0.0048290405            0.000684781875           
       3.172418             0.00704611755            0.000818760112           
       3.175059             0.00656979294            0.000700901604           
       3.177699             0.00510322939             0.00065414633           
       3.180339             0.00760344078            0.000855496413           
       3.182980             0.00719486237            0.000860403587           
       3.185620             0.00534802241            0.000755461452           
       3.188261             0.00642057223            0.000842528062           
       3.190901             0.00503894643             0.00068646465           
       3.193541             0.00503050368            0.000720704264           
       3.196182             0.00515548617            0.000760350214           
       3.198822             0.00478905789            0.000733076746           
       3.201463             0.00682451936            0.000860028706           
       3.204103             0.00610526606            0.000808497794           
       3.206743             0.00621752939            0.000815820662           
       3.209384             0.00435937629            0.000738054457           
       3.212024             0.00597106684             0.00080531211           
       3.214664             0.00773816688             0.00104249071           
       3.217305             0.00518512857            0.000811178795           
       3.219945             0.00550260302            0.000860092604           
       3.222586             0.00623088147            0.000871752649           
       3.225226             0.00584423228            0.000936588014           
       3.227866             0.00525563047            0.000811780648           
       3.230507             0.00646426784            0.000933256486           
       3.233147             0.00713336703            0.000988283201           
       3.235787              0.0047221445            0.000822883945           
       3.238428             0.00583020562            0.000986695767           
       3.241068              0.0062764706            0.000957268501           
       3.243709             0.00686229068             0.00103413608           
       3.246349             0.00531197167            0.000829415421           
       3.248989             0.00560000969             0.00100555683           
       3.251630               0.004516419            0.000869607607           
       3.254270             0.00520849625            0.000834618808           
       3.256911             0.00846341186             0.00116084344           
       3.259551             0.00645200343             0.00109118458           
       3.262191             0.00617090809             0.00109004042           
       3.264832             0.00671924365             0.00118845374           
       3.267472             0.00552901774             0.00101134352           
       3.270112             0.00630102098             0.00119314308           
       3.272753             0.00662313772             0.00111967954           
       3.275393             0.00708204841             0.00118138042           
       3.278034              0.0053145991             0.00102397657           
       3.280674             0.00791084626             0.00135566239           
       3.283314             0.00669488851             0.00111537618           
       3.285955             0.00518441821             0.00101271441           
       3.288595             0.00490334978             0.00109571612           
       3.291235             0.00591631153             0.00123727612           
       3.293876             0.00667253516             0.00133285502           
       3.296516             0.00466136291             0.00106948651           
       3.299157             0.00595044859             0.00119316955           
       3.301797             0.00620936121              0.0013903253           
       3.304437             0.00558633784              0.0011425243           
       3.307078             0.00450641358              0.0011303844           
       3.309718             0.00605185598              0.0013521044           
       3.312359             0.00607065514             0.00135452451           
       3.314999             0.00820683699             0.00155063226           
       3.317639             0.00483694011             0.00113850631           
       3.320280             0.00271606119            0.000907062957           
       3.322920             0.00659185487             0.00143687914           
       3.325560             0.00749217917             0.00153290573           
       3.328201             0.00355174436            0.000950548023           
       3.330841             0.00603536235             0.00150805706           
       3.333482             0.00405064391             0.00116779184           
       3.336122             0.00605652476             0.00142861347           
       3.338762             0.00487523024             0.00148061032           
       3.341403             0.00611878263             0.00158498296           
       3.344043             0.00527237502             0.00141254981           
       3.346683             0.00432998823               0.001306878           
       3.349324             0.00951866876             0.00217857853           
       3.351964             0.00444597384             0.00157446721           
       3.354605             0.00658702085             0.00219173933           
       3.357245              0.0058385545             0.00186146472           
       3.359885             0.00494826295             0.00137155775           
       3.362526             0.00354815593             0.00145240352           
       3.365166             0.00475875154             0.00158647522           
       3.367807             0.00517091867             0.00211646765           
       3.370447             0.00295054242             0.00132617958           
       3.373087             0.00678026359             0.00214981926           
       3.375728             0.00779506609             0.00260152372           
       3.378368           -2.55418294e-05                         0           
       3.381008             0.00212888727             0.00150432702           
       3.383649             0.00811817944             0.00235656654           
       3.386289              0.0057564066             0.00234858702           
       3.388930              0.0120131062             0.00536663301           
       3.391570             0.00358883098             0.00207497673           
       3.394210              0.0077376347             0.00385576723           
       3.396851           -2.56878287e-05                         0           
       3.399491           -2.57022757e-05                         0           
       3.402131             0.00475500813             0.00478492026           
       3.404772             0.00939999948             0.00951662082           
       3.407412                       nan                       nan           
       3.410053           -2.57995705e-05                         0           
       3.412693                       nan                       nan           
       3.415333             0.00875834113             0.00920616013           
