################################################################################
# EDF_DataBlockID                     0.Image.Psd
# EDF_BinarySize                      4366944
# EDF_HeaderSize                      2560
# ByteOrder                           LowByteFirst
# DataType                            FloatValue
# Dim_1                               1028
# Dim_2                               1062
# Image                               0
# HeaderID                            EH:000000:000000:000000
# Size                                4366944
# Center_1                            607.5200
# Center_2                            651.5500
# Comment                             Xenocs_Cell_Window - 20251028_20perc_iodine_1.23mg
# DDummy                              0.6
# Date                                2025-11-02T09:20:30
# Delta                               0
# Dummy                               -1.5
# ExposureTime                        360
# Gamma                               0
# Intensity1                          8.76223e-10
# PSize_1                             7.5e-05
# PSize_2                             7.5e-05
# Pressure                            0.0326319
# SampleDistance                      0.450002
# SampleEnvKind                       large
# SampleEnvPN                         ElectroChemical cell
# SampleEnvSN                         1141
# Thickness                           0
# Wavelength                          1.541891e-10
# Wavelength                          1.54189e-10
# aux                                 0
# aux_dial                            0.002375
# beamx                               588.434
# beamx_dial                          588.434
# beamz                               657.808
# beamz_dial                          657.808
# det0x                               0
# det0x_dial                          6.36945
# det0xvd                             0
# det0xvd_dial                        0
# det0y                               450.002
# det0y_dial                          481.635
# det0z                               0
# det0z_dial                          1.23302
# det0zvd                             0
# det0zvd_dial                        0
# mag                                 1.818
# mag_dial                            1.818
# om                                  0.2499
# om_dial                             -0.610199
# phi                                 -0.0120535
# phi_dial                            0
# ry                                  0.599993
# ry_dial                             0.599993
# s1bot                               0.8
# s1bot_dial                          -1.66094
# s1hl                                0.8
# s1hl_dial                           -0.608437
# s1hr                                0.8
# s1hr_dial                           0.970938
# s1top                               0.8
# s1top_dial                          -0.461562
# s2bot                               0.45
# s2bot_dial                          1.36109
# s2hl                                0.45
# s2hl_dial                           -0.83375
# s2hr                                0.45
# s2hr_dial                           -0.118594
# s2top                               0.45
# s2top_dial                          1.44734
# w2theta                             32
# w2theta_dial                        32
# waxsch                              19.2605
# waxsch_dial                         -32.7355
# waxsh                               137.085
# waxsh_dial                          -43.5338
# waxsth                              26.0607
# waxsth_dial                         -19.4086
# waxsz                               67.0407
# waxsz_dial                          -23.7954
# wind                                65.9854
# wind_dial                           66.0041
# wpsi                                124
# wpsi_dial                           124
# wstod                               115
# wstod_dial                          115
# x                                   0
# x_dial                              1.00969
# z                                   0
# z_dial                              13.3172
# CountCutoff                         15302352
# DetectorModel                       Dectris EIGER2 Si 1M, S/N E-02-0362
# ThresholdSetting                    4023.88989258
# Saturation                          0
# FlatField                           Corrected
# BackgroundReductionExtra            0.02
# BackgroundCorrectionConstant        0.0026712
# Detector                            0
# Monitor                             0
# Pil_Roi0                            0
# SumForIntensity1                    3.1544e+08
# TransmittedFlux                     876223
# det                                 0
# mon                                 0
# pilai0                              3.1544e+08
# pilai1                              794423
# pilct0                              5.45478e+08
# pilct1                              794423
# pilroi0                             0
# pilroi1                             0
# sec                                 1
# title                               20251028_20perc_iodine_1.23mg_0_01045.edf
# usaxs0                              0
# Operation                           Azimuthal average I(q)
# Error_model                         ErrorModel.poisson
# Geometrical_correction              True
# Transmission_correction             True
# Thickness_correction                False
# Binning mode                        Uniform
# Binning factor                      1.0
# Psi                                 0.0
# Omega                               0.2499
# MaskInvalidPixels                   True
# DetectorEdge                        3
# MaskFiles                           ['20251028_20perc_iodine_1.23mg_0_00012_mask.edf']
################################################################################
    q(A⁻¹)                Intensity(a.u.)            Sigma_I(a.u.)            
       0.000340                371824.225                118.933123           
       0.001019                 358978.43                71.5622207           
       0.001698                349534.125                49.9320574           
       0.002377                330683.324                43.4396044           
       0.003056                308044.904                35.4342122           
       0.003735                253681.466                28.3588093           
       0.004415                204777.318                25.4791333           
       0.005094                152727.106                 19.056035           
       0.005773                100697.034                14.3254929           
       0.006452                58567.3311                10.4678675           
       0.007131                32239.4745                7.52372469           
       0.007810                16200.9129                5.29289847           
       0.008490                8135.16552                 3.3246012           
       0.009169                3928.85355                2.28338919           
       0.009848                1204.60232                1.22243123           
       0.010527                464.156777               0.758813765           
       0.011206                116.308597               0.362528598           
       0.011885                53.0031184               0.227381507           
       0.012564                24.7373281               0.159482338           
       0.013244                16.6705526               0.122397112           
       0.013923                12.1659515               0.106247538           
       0.014602                9.18611737              0.0856242448           
       0.015281                7.42571003              0.0783661708           
       0.015960                5.95739666              0.0696889338           
       0.016639                4.93849214              0.0599166282           
       0.017319                4.04998845              0.0534158141           
       0.017998                3.41608127              0.0469330113           
       0.018677                2.95435736              0.0452054696           
       0.019356                2.51283109              0.0411945938           
       0.020035                2.11825304              0.0354846686           
       0.020714                 1.8513791              0.0335252286           
       0.021394                1.52188132              0.0287596976           
       0.022073                1.43169171              0.0290220468           
       0.022752                1.27496757              0.0261991003           
       0.023431                1.11228464              0.0237531972           
       0.024110                1.01205991              0.0236223948           
       0.024789               0.862354569              0.0202508821           
       0.025469               0.815633593               0.020295541           
       0.026148               0.725179428              0.0179808722           
       0.026827               0.659955153              0.0174277005           
       0.027506               0.620011085              0.0171356519           
       0.028185               0.560367004              0.0155354377           
       0.028864               0.527717815              0.0149914763           
       0.029544               0.496074533              0.0140949245           
       0.030223                0.44014455              0.0134669827           
       0.030902               0.427991717              0.0134012883           
       0.031581               0.385551593              0.0120912763           
       0.032260               0.351547314              0.0117424952           
       0.032939                0.31754035              0.0107607652           
       0.033619               0.292326039              0.0104764395           
       0.034298               0.266271356             0.00973032543           
       0.034977                0.26889339             0.00958595579           
       0.035656               0.235276565             0.00920405568           
       0.036335               0.227759898             0.00878302567           
       0.037014               0.196094338             0.00817394226           
       0.037693                0.18281038             0.00759221659           
       0.038373               0.194395949             0.00790592886           
       0.039052               0.168776614              0.0073979144           
       0.039731               0.169907122             0.00724966838           
       0.040410               0.146323905             0.00668264583           
       0.041089               0.151449609             0.00669218787           
       0.041768               0.145530583             0.00659438431           
       0.042448               0.145347553             0.00653909907           
       0.043127               0.122273257             0.00585598008           
       0.043806               0.121779155             0.00588771138           
       0.044485               0.113883995              0.0055766913           
       0.045164               0.111919257             0.00563733651           
       0.045843               0.106342801             0.00527046732           
       0.046523              0.0975576543             0.00506550616           
       0.047202               0.111007253             0.00544116727           
       0.047881               0.104404652             0.00517510848           
       0.048560               0.098475622             0.00507182731           
       0.049239              0.0941885286             0.00476268613           
       0.049918              0.0924582226             0.00481098281           
       0.050598              0.0951638663             0.00480763965           
       0.051277               0.082036573             0.00444958323           
       0.051956              0.0799954177             0.00436628743           
       0.052635              0.0802691327             0.00428093087           
       0.053314              0.0841279729             0.00451075812           
       0.053993              0.0894201383             0.00452292235           
       0.054673              0.0806653127             0.00420011674           
       0.055352              0.0773023241             0.00417202575           
       0.056031              0.0793505156             0.00413812127           
       0.056710              0.0762266897             0.00415523818           
       0.057389              0.0656567967             0.00371877049           
       0.058068              0.0752043682             0.00402100859           
       0.058748              0.0718337786             0.00397888838           
       0.059427              0.0604330627             0.00358772171           
       0.060106               0.067672368              0.0038324654           
       0.060785              0.0569253733             0.00340968371           
       0.061464                0.05905148             0.00355648091           
       0.062143              0.0629063204             0.00363344018           
       0.062822              0.0563893931             0.00339971959           
       0.063502              0.0571843772             0.00341748387           
       0.064181              0.0524106069             0.00323718063           
       0.064860              0.0566075366             0.00341553979           
       0.065539               0.050563393             0.00319648517           
       0.066218              0.0555677744             0.00327918611           
       0.066897              0.0491224094             0.00310694901           
       0.067577              0.0486391324             0.00312132973           
       0.068256              0.0478017237              0.0031703546           
       0.068935              0.0470668569             0.00309502362           
       0.069614              0.0494110795             0.00320273112           
       0.070293              0.0550306107             0.00341111842           
       0.070972              0.0398152559             0.00288023449           
       0.071652              0.0438179991             0.00302708924           
       0.072331              0.0441538605             0.00298451206           
       0.073010              0.0496288715             0.00323644124           
       0.073689               0.039261489             0.00286279875           
       0.074368              0.0393129079             0.00285946286           
       0.075047              0.0411524466             0.00289415274           
       0.075727              0.0412318455             0.00287905061           
       0.076406              0.0398086502             0.00288536998           
       0.077085              0.0416726768             0.00289697873           
       0.077764              0.0342230735             0.00261610192           
       0.078443              0.0404922194             0.00286326496           
       0.079122              0.0436341086             0.00294372011           
       0.079802              0.0373636972             0.00275289854           
       0.080481              0.0384193655             0.00269735475           
       0.081160              0.0375133112             0.00272005206           
       0.081839              0.0336216791             0.00253387437           
       0.082518              0.0325637069             0.00249578922           
       0.083197              0.0365833668             0.00260424499           
       0.083876               0.038608172             0.00263088896           
       0.084556              0.0325985627             0.00248470845           
       0.085235                0.02829906             0.00227033191           
       0.085914              0.0364294009             0.00260092509           
       0.086593              0.0333890175             0.00247399871           
       0.087272              0.0398848212             0.00266574624           
       0.087951              0.0375129416             0.00264366637           
       0.088631              0.0337243388             0.00242123937           
       0.089310              0.0288275013             0.00228604254           
       0.089989              0.0333018649             0.00242833109           
       0.090668              0.0334681964             0.00246125915           
       0.091347              0.0344180698             0.00250991613           
       0.092026              0.0330873196             0.00235223744           
       0.092706              0.0312525748              0.0023690682           
       0.093385              0.0290974024             0.00225082057           
       0.094064              0.0308582799             0.00234490364           
       0.094743              0.0299184756             0.00227373405           
       0.095422              0.0317261598             0.00231530723           
       0.096101              0.0286920288             0.00224716035           
       0.096781              0.0314180432             0.00231781979           
       0.097460              0.0322195924             0.00228317175           
       0.098139              0.0257666937             0.00202606462           
       0.098818              0.0266540932             0.00203528122           
       0.099497               0.026907031             0.00204911399           
       0.100176              0.0269673196             0.00199756846           
       0.100856              0.0291633842             0.00207598091           
       0.101535              0.0356541151             0.00229097748           
       0.102214               0.029636349             0.00208872387           
       0.102893              0.0309813711             0.00211126296           
       0.103572              0.0261705206              0.0019117652           
       0.104251              0.0260374848             0.00191394438           
       0.104931              0.0260760416             0.00189792342           
       0.105610              0.0301037386             0.00204793746           
       0.106289              0.0285711351              0.0019619234           
       0.106968              0.0279200675             0.00194519665           
       0.107647              0.0279904492              0.0019488158           
       0.108326              0.0243708479             0.00179412224           
       0.109005               0.025200285             0.00181291877           
       0.109685               0.025017845             0.00178608272           
       0.110364              0.0274302555             0.00189145684           
       0.111043              0.0273057403             0.00187967651           
       0.111722              0.0222527078             0.00167612571           
       0.112401              0.0262544227             0.00182567059           
       0.113080               0.023331668             0.00170132994           
       0.113760              0.0251551129             0.00179606796           
       0.114439              0.0233384577             0.00170530833           
       0.115118              0.0226905268             0.00166879132           
       0.115797              0.0265454979             0.00182171319           
       0.116476              0.0261034906             0.00177944512           
       0.117155              0.0255574424             0.00177493602           
       0.117835              0.0265331374             0.00177254664           
       0.118514              0.0232099377             0.00167885182           
       0.119193              0.0228411715             0.00166547338           
       0.119872               0.019322586             0.00151267437           
       0.120551              0.0235079092             0.00165736161           
       0.121230               0.023695224              0.0016472067           
       0.121910              0.0207783054             0.00155739916           
       0.122589              0.0231698579             0.00164628056           
       0.123268               0.022363127             0.00158603265           
       0.123947              0.0258557206             0.00171642124           
       0.124626               0.022445887             0.00157968744           
       0.125305              0.0221135868               0.001575645           
       0.125985              0.0231880098             0.00160094892           
       0.126664              0.0229709761             0.00157826095           
       0.127343              0.0252820639             0.00167494455           
       0.128022              0.0207751003              0.0015066829           
       0.128701               0.020836551             0.00150104936           
       0.129380              0.0224244382             0.00153769131           
       0.130059              0.0217873593             0.00151921097           
       0.130739              0.0217970894             0.00153023605           
       0.131418              0.0208977564             0.00149414033           
       0.132097              0.0221690718             0.00151918109           
       0.132776              0.0226719469             0.00152937877           
       0.133455              0.0192551598             0.00142038238           
       0.134134              0.0194594302             0.00142334941           
       0.134814              0.0206772038             0.00145209259           
       0.135493              0.0188832982             0.00139328946           
       0.136172               0.024779997              0.0015840252           
       0.136851              0.0225219572             0.00151891343           
       0.137530              0.0222258896              0.0014730479           
       0.138209              0.0203575364             0.00142632681           
       0.138889              0.0210209179             0.00145576893           
       0.139568              0.0209002043             0.00145095564           
       0.140247                0.02017567             0.00142371592           
       0.140926              0.0198524394             0.00137188456           
       0.141605              0.0192176474             0.00138406499           
       0.142284              0.0194256282              0.0013684756           
       0.142964              0.0219190748             0.00145921252           
       0.143643              0.0170352303             0.00128479095           
       0.144322               0.017865061             0.00128817997           
       0.145001              0.0175608202             0.00130337932           
       0.145680              0.0216851922             0.00141410557           
       0.146359              0.0185140249             0.00131140355           
       0.147039              0.0217776347             0.00143400988           
       0.147718              0.0189574162              0.0013158615           
       0.148397              0.0199172057             0.00136971927           
       0.149076              0.0206273062             0.00135068066           
       0.149755              0.0213046773             0.00139387373           
       0.150434              0.0207512391             0.00137621153           
       0.151114              0.0207927102             0.00136996645           
       0.151793              0.0192819293             0.00131926988           
       0.152472              0.0191096976             0.00129016519           
       0.153151              0.0196469375             0.00132082225           
       0.153830              0.0171791901             0.00122609047           
       0.154509              0.0202444945             0.00132543625           
       0.155188              0.0187512574             0.00127514632           
       0.155868              0.0187391218              0.0012656625           
       0.156547              0.0214212257             0.00136190319           
       0.157226              0.0191172025             0.00125515431           
       0.157905              0.0190160095             0.00126234278           
       0.158584              0.0178145413             0.00121959382           
       0.159263              0.0186815704             0.00125351524           
       0.159943              0.0201204498             0.00130186382           
       0.160622              0.0174352738              0.0011884965           
       0.161301              0.0182416424             0.00123192931           
       0.161980              0.0188886415             0.00123227435           
       0.162659              0.0173441158             0.00119390644           
       0.163338              0.0166663305              0.0011608068           
       0.164018              0.0188690678             0.00122865441           
       0.164697              0.0181539898             0.00122062302           
       0.165376              0.0200665414             0.00125527183           
       0.166055              0.0195642645             0.00124763648           
       0.166734              0.0166208282             0.00114480844           
       0.167413              0.0163161597             0.00113506159           
       0.168093              0.0169843724             0.00116902562           
       0.168772              0.0186294166             0.00118852571           
       0.169451              0.0177520038             0.00118154514           
       0.170130              0.0183031692             0.00118399675           
       0.170809              0.0172404348              0.0011628231           
       0.171488              0.0170165784              0.0011447178           
       0.172168              0.0174422505              0.0011478133           
       0.172847              0.0216046517              0.0012942297           
       0.173526              0.0170561819             0.00112801208           
       0.174205              0.0191074529              0.0011994159           
       0.174884              0.0179951812              0.0011579169           
       0.175563              0.0159077453             0.00109333668           
       0.176243              0.0170106005             0.00114191587           
       0.176922              0.0149432786             0.00104238814           
       0.177601              0.0178024808             0.00115025345           
       0.178280              0.0178529829             0.00113902571           
       0.178959              0.0169576346             0.00111902545           
       0.179638              0.0190096992             0.00118138789           
       0.180317              0.0142326891              0.0010147825           
       0.180997              0.0186325444             0.00116739131           
       0.181676              0.0170993411             0.00110638896           
       0.182355               0.018589813             0.00116052952           
       0.183034              0.0175236999             0.00110867681           
       0.183713              0.0175635275              0.0011234533           
       0.184392              0.0166411387             0.00109322431           
       0.185072              0.0163742953              0.0010720651           
       0.185751              0.0163436605             0.00107404142           
       0.186430              0.0159725058             0.00105433922           
       0.187109              0.0164294201             0.00108122195           
       0.187788              0.0147657949              0.0010224925           
       0.188467               0.017034791             0.00108525045           
       0.189147              0.0154341892              0.0010434687           
       0.189826              0.0159699632             0.00104265544           
       0.190505              0.0166978412             0.00108370205           
       0.191184              0.0155370719             0.00103029027           
       0.191863              0.0146438473             0.00100234347           
       0.192542              0.0161248861             0.00106172883           
       0.193222              0.0156545705             0.00102268653           
       0.193901              0.0188012075             0.00113578796           
       0.194580              0.0155747692             0.00101566638           
       0.195259              0.0168796897             0.00106950266           
       0.195938              0.0156214109             0.00103132442           
       0.196617              0.0161802434             0.00103495827           
       0.197297              0.0169814882             0.00106460342           
       0.197976              0.0179193303             0.00107680774           
       0.198655              0.0168681621             0.00105615866           
       0.199334              0.0156070338             0.00100695153           
       0.200013              0.0169313423             0.00104822185           
       0.200692              0.0178764347             0.00108355863           
       0.201371               0.016439073             0.00102738157           
       0.202051               0.016229299             0.00102397992           
       0.202730              0.0166979919             0.00102828664           
       0.203409               0.015916445              0.0010106731           
       0.204088              0.0169139061             0.00104070825           
       0.204767              0.0159688539             0.00100590114           
       0.205446              0.0158412422             0.00100383161           
       0.206126              0.0156536024            0.000984311513           
       0.206805              0.0157852841             0.00100656358           
       0.207484              0.0155587002            0.000981348087           
       0.208163              0.0180911444             0.00106456295           
       0.208842              0.0161513852             0.00100314741           
       0.209521              0.0151355075            0.000963017141           
       0.210201              0.0162780969             0.00100985003           
       0.210880              0.0148685789            0.000946199898           
       0.211559              0.0157371832            0.000987838008           
       0.212238              0.0160223357            0.000991675516           
       0.212917              0.0160678132            0.000989392173           
       0.213596              0.0145433339            0.000946852732           
       0.214276              0.0146403307            0.000930213054           
       0.214955              0.0173146122             0.00103288406           
       0.215634              0.0163266909            0.000995796299           
       0.216313              0.0176444765             0.00103302992           
       0.216992              0.0157161778            0.000974705015           
       0.217671              0.0154366552            0.000959454995           
       0.218351              0.0151979617             0.00096131896           
       0.219030              0.0157709885            0.000963816578           
       0.219709               0.014004023            0.000913885844           
       0.220388              0.0172200103             0.00101210125           
       0.221067              0.0151215509            0.000949182239           
       0.221746              0.0140167995            0.000912915906           
       0.222426              0.0162998724            0.000969748182           
       0.223105              0.0154530404               0.000957085           
       0.223784              0.0147520423            0.000925849215           
       0.224463              0.0159057741            0.000969028314           
       0.225142              0.0143261685            0.000905101996           
       0.225821              0.0153141184            0.000939559606           
       0.226500              0.0147973943            0.000929444831           
       0.227180              0.0157565442            0.000944318606           
       0.227859              0.0168719466            0.000981554941           
       0.228538               0.014407008            0.000897916422           
       0.229217              0.0158418277            0.000949020923           
       0.229896              0.0135295972            0.000876610053           
       0.230575              0.0149824539            0.000907771971           
       0.231255              0.0152128026            0.000928418662           
       0.231934               0.014883513            0.000912041722           
       0.232613              0.0146015514             0.00090669417           
       0.233292               0.016142667            0.000944131478           
       0.233971                0.01397138            0.000877933787           
       0.234650              0.0149916568            0.000920122106           
       0.235330              0.0157268876            0.000934185204           
       0.236009              0.0165483842             0.00095620773           
       0.236688              0.0162101197             0.00094299754           
       0.237367              0.0140277581            0.000878500274           
       0.238046              0.0143616036            0.000895152497           
       0.238725              0.0149370882            0.000898826961           
       0.239405              0.0147199829            0.000897803932           
       0.240084              0.0162314048            0.000936767133           
       0.240763              0.0144972615            0.000893789589           
       0.241442              0.0157393367            0.000918168919           
       0.242121              0.0145755219            0.000885238786           
       0.242800              0.0158577868            0.000927728398           
       0.243480               0.015488189            0.000912560395           
       0.244159              0.0141046503            0.000871269576           
       0.244838              0.0150210143            0.000884332133           
       0.245517              0.0146242745            0.000885126986           
       0.246196              0.0143636656            0.000877627898           
       0.246875              0.0149571252            0.000883090621           
       0.247554              0.0146856456            0.000883932868           
       0.248234              0.0167656358            0.000930137337           
       0.248913               0.012611668            0.000815770017           
       0.249592              0.0120088577            0.000788471052           
       0.250271              0.0148235353            0.000873469813           
       0.250950              0.0137445922            0.000846232705           
       0.251629              0.0142883859            0.000855477213           
       0.252309              0.0145353227            0.000864589058           
       0.252988              0.0142355585            0.000840888778           
       0.253667              0.0141205875            0.000847271309           
       0.254346              0.0124830382             0.00079646535           
       0.255025              0.0160089616            0.000899986371           
       0.255704              0.0146606602            0.000857309113           
       0.256384              0.0133322266            0.000814717335           
       0.257063              0.0130237752            0.000809828648           
       0.257742               0.013252543            0.000811249943           
       0.258421               0.013386273            0.000813763385           
       0.259100              0.0139157886            0.000831149026           
       0.259779              0.0119881315            0.000770783538           
       0.260459              0.0122703655             0.00078133532           
       0.261138              0.0136811757            0.000808908239           
       0.261817              0.0147071929            0.000855621593           
       0.262496              0.0129917553            0.000796288704           
       0.263175               0.013703546            0.000819567877           
       0.263854              0.0128004655            0.000788422354           
       0.264534              0.0116990312            0.000747301495           
       0.265213              0.0114604369            0.000751297764           
       0.265892              0.0132056584            0.000796143788           
       0.266571              0.0141675414            0.000822753955           
       0.267250              0.0130582828            0.000791219086           
       0.267929              0.0122152879             0.00076446926           
       0.268609              0.0110036743            0.000729538879           
       0.269288              0.0125507146            0.000766193761           
       0.269967              0.0135379171            0.000804330415           
       0.270646               0.011528097            0.000739019571           
       0.271325              0.0135175105            0.000801586195           
       0.272004              0.0124467258             0.00076151508           
       0.272683              0.0120130548             0.00074905544           
       0.273363              0.0120883349            0.000756191093           
       0.274042              0.0114623992            0.000732008584           
       0.274721              0.0118991753            0.000745382653           
       0.275400              0.0112403948            0.000719658724           
       0.276079              0.0126533572            0.000767887755           
       0.276758              0.0110526796            0.000726733164           
       0.277438              0.0116273078            0.000737018136           
       0.278117              0.0125434272            0.000779422288           
       0.278796              0.0133805713            0.000796840289           
       0.279475              0.0110548029            0.000736249738           
       0.280154              0.0115386026            0.000741368076           
       0.280833              0.0117797242            0.000753629532           
       0.281513              0.0130010052            0.000804154353           
       0.282192              0.0106095209            0.000714045194           
       0.282871              0.0123116103            0.000774567817           
       0.283550              0.0111408998             0.00074076986           
       0.284229             0.00966746171            0.000700183161           
       0.284908              0.0107057437            0.000744595962           
       0.285588             0.00999763089            0.000711123732           
       0.286267              0.0100755543            0.000725320291           
       0.286946              0.0117804804            0.000779190027           
       0.287625              0.0104318749            0.000745719381           
       0.288304              0.0110922632            0.000758668807           
       0.288983              0.0103135995            0.000740819652           
       0.289663              0.0116270364            0.000791181873           
       0.290342             0.00952558237            0.000712310904           
       0.291021             0.00904870102            0.000697991956           
       0.291700              0.0102175485            0.000732014743           
       0.292379              0.0109387415            0.000774750124           
       0.293058              0.0110571202            0.000775988732           
       0.293738              0.0109185056            0.000764634076           
       0.294417             0.00944301166            0.000719359686           
       0.295096              0.0109264236            0.000765295361           
       0.295775              0.0107363884            0.000770196532           
       0.296454              0.0102933632            0.000744384132           
       0.297133              0.0100473451            0.000738914038           
       0.297812              0.0090132281            0.000703365718           
       0.298492             0.00965631541             0.00072943236           
       0.299171              0.0124084927             0.00082530865           
       0.299850             0.00936066422            0.000711925295           
       0.300529             0.00959968729            0.000729078656           
       0.301208             0.00936690592            0.000721937226           
       0.301887              0.0101028176             0.00074886964           
       0.302567             0.00945587471            0.000720867188           
       0.303246             0.00976830619            0.000737463015           
       0.303925              0.0100104261            0.000756132033           
       0.304604             0.00979425171            0.000731773362           
       0.305283              0.0107730765            0.000778851461           
       0.305962             0.00975023851             0.00073647972           
       0.306642              0.0096898844            0.000744168233           
       0.307321              0.0108054888            0.000783330492           
       0.308000              0.0090417858            0.000708062148           
       0.308679             0.00801172536             0.00068094466           
       0.309358             0.00987211828            0.000745657041           
       0.310037              0.0102043259            0.000759788414           
       0.310717              0.0092696864            0.000723460767           
       0.311396             0.00913008356            0.000722807707           
       0.312075             0.00995187394            0.000764206209           
       0.312754             0.00909560051            0.000715974307           
       0.313433             0.00788110023            0.000672257933           
       0.314112              0.0093554998            0.000732278539           
       0.314792             0.00753023825            0.000661611822           
       0.315471             0.00831300404            0.000686552351           
       0.316150             0.00940265903            0.000736920898           
       0.316829             0.00933400704            0.000739074223           
       0.317508             0.00831677824            0.000689811921           
       0.318187             0.00878823192            0.000718448237           
       0.318866             0.00802407412            0.000677254677           
       0.319546             0.00887320513            0.000722863755           
       0.320225             0.00809937357            0.000690637879           
       0.320904             0.00919682071            0.000724562727           
       0.321583             0.00801790159            0.000691437818           
       0.322262             0.00817770303            0.000687710891           
       0.322941             0.00857377736            0.000713189637           
       0.323621             0.00624530044            0.000604974508           
       0.324300              0.0070767957            0.000644494169           
       0.324979              0.0076236506            0.000670141633           
       0.325658             0.00784966301            0.000681236302           
       0.326337             0.00739084986            0.000661890225           
       0.327016             0.00792942568            0.000681229864           
       0.327696             0.00801487681            0.000692507843           
       0.328375             0.00820095781            0.000694589593           
       0.329054             0.00954235688            0.000753308615           
       0.329733             0.00692417552            0.000644039167           
       0.330412             0.00774871469            0.000675725034           
       0.331091             0.00713538027            0.000660193136           
       0.331771              0.0079044148            0.000676652378           
       0.332450             0.00701492004            0.000649820223           
       0.333129             0.00764061803            0.000676431788           
       0.333808             0.00832211848            0.000706887563           
       0.334487             0.00823686591            0.000706591899           
       0.335166             0.00716629571            0.000649429514           
       0.335846             0.00651421947            0.000630059424           
       0.336525             0.00661097934            0.000628454873           
       0.337204             0.00658692069            0.000628954875           
       0.337883             0.00703138171            0.000650689657           
       0.338562             0.00675434848            0.000641281451           
       0.339241             0.00610240304            0.000610689464           
       0.339921             0.00624652984            0.000607497587           
       0.340600             0.00692877663            0.000651963903           
       0.341279              0.0065879171            0.000628917519           
       0.341958             0.00684991004            0.000650348871           
       0.342637             0.00521053289            0.000559198411           
       0.343316             0.00633708976            0.000618479567           
       0.343995             0.00622742482            0.000623143812           
       0.344675             0.00730406928             0.00066246187           
       0.345354             0.00704456539            0.000654878673           
       0.346033             0.00623874512             0.00061467957           
       0.346712              0.0056280672             0.00058754636           
       0.347391             0.00806705888            0.000707784237           
       0.348070             0.00656755606            0.000629554502           
       0.348750             0.00608893255            0.000614939582           
       0.349429             0.00621881502            0.000613440606           
       0.350108             0.00662742428            0.000640893636           
       0.350787             0.00677840823            0.000637141471           
       0.351466             0.00700660874            0.000659710471           
       0.352145             0.00517290234             0.00056731834           
       0.352825             0.00633034058            0.000624743293           
       0.353504              0.0062133545            0.000618791887           
       0.354183              0.0060555417            0.000603844959           
       0.354862             0.00555229906            0.000591645749           
       0.355541             0.00642804972            0.000628260329           
       0.356220             0.00622197306            0.000619275147           
       0.356900             0.00646591317            0.000637294496           
       0.357579             0.00495916377            0.000551278767           
       0.358258             0.00554501165            0.000590999422           
       0.358937             0.00513955443            0.000558284967           
       0.359616             0.00410509251            0.000505914744           
       0.360295             0.00623796108            0.000624164177           
       0.360975             0.00557012055             0.00058728438           
       0.361654             0.00468391988            0.000541320075           
       0.362333             0.00636831847            0.000627982979           
       0.363012             0.00717679325            0.000675231712           
       0.363691             0.00530627964            0.000569152691           
       0.364370             0.00519802189            0.000570305153           
       0.365050             0.00606576957            0.000612774993           
       0.365729             0.00541386248            0.000584430778           
       0.366408             0.00438163497              0.0005269363           
       0.367087              0.0050254669             0.00055527256           
       0.367766             0.00479477665            0.000553679086           
       0.368445              0.0059289611            0.000604760259           
       0.369124             0.00480791456            0.000548871491           
       0.369804             0.00591896929            0.000608022812           
       0.370483             0.00428477867            0.000519585585           
       0.371162             0.00498041094            0.000563425011           
       0.371841             0.00578579249            0.000596686225           
       0.372520             0.00538404274            0.000587135047           
       0.373199             0.00505011511            0.000561842353           
       0.373879             0.00542664365            0.000589153959           
       0.374558               0.004160072            0.000508310997           
       0.375237             0.00597324113            0.000610092168           
       0.375916             0.00505143957            0.000571793551           
       0.376595             0.00441059411            0.000523851378           
       0.377274             0.00514681336            0.000574943855           
       0.377954             0.00490967782            0.000552721337           
       0.378633             0.00395960897            0.000502643171           
       0.379312              0.0041451264            0.000514153591           
       0.379991             0.00442499664            0.000528477857           
       0.380670             0.00529182824            0.000588141989           
       0.381349             0.00374949969            0.000487960909           
       0.382029              0.0045211514            0.000543502344           
       0.382708             0.00518737188            0.000569457946           
       0.383387             0.00504743823            0.000574454603           
       0.384066             0.00341532738            0.000468201878           
       0.384745             0.00350527534            0.000476191839           
       0.385424             0.00326566103            0.000461189042           
       0.386104             0.00509882705            0.000569904992           
       0.386783              0.0041469156            0.000525077617           
       0.387462              0.0037879841            0.000489355446           
       0.388141             0.00294966353            0.000438720772           
       0.388820             0.00489212903            0.000560918969           
       0.389499             0.00404497887            0.000512917264           
       0.390178             0.00335831935            0.000469219664           
       0.390858              0.0038762528            0.000500026226           
       0.391537             0.00442877151              0.0005399339           
       0.392216             0.00366818246            0.000485228714           
       0.392895             0.00414677428             0.00051765076           
       0.393574             0.00424713758            0.000522579025           
       0.394253             0.00331963907            0.000464086179           
       0.394933             0.00446331075             0.00054427252           
       0.395612             0.00450126872            0.000530705181           
       0.396291             0.00275070611            0.000423312234           
       0.396970             0.00513040883            0.000572993571           
       0.397649             0.00470816664            0.000550598153           
       0.398328             0.00467379037             0.00054617308           
       0.399008             0.00590128324            0.000612384281           
       0.399687             0.00314404038            0.000448725286           
       0.400366             0.00433116541            0.000524655945           
       0.401045             0.00411840166            0.000510639801           
       0.401724             0.00330634009            0.000458298453           
       0.402403             0.00387846539            0.000500237666           
       0.403083             0.00413751036            0.000509223011           
       0.403762             0.00341701601            0.000465048548           
       0.404441             0.00397240213            0.000504613253           
       0.405120             0.00477832007            0.000551624016           
       0.405799             0.00377838487            0.000488391194           
       0.406478             0.00391068185            0.000496880414           
       0.407158             0.00420549422            0.000514302127           
       0.407837             0.00359078569            0.000479425326           
       0.408516             0.00407232128            0.000506118957           
       0.409195              0.0042403069            0.000522310928           
       0.409874             0.00437249872            0.000537769418           
       0.410553             0.00372935565            0.000501988862           
       0.411233             0.00356412057             0.00048819935           
       0.411912             0.00339938047            0.000483538746           
       0.412591             0.00329567613            0.000479257006           
       0.413270             0.00368890753            0.000504634492           
       0.413949             0.00319462344              0.0004747397           
       0.414628             0.00333392913             0.00048410932           
       0.415307             0.00327266549            0.000484976041           
       0.415987              0.0029382203            0.000455740892           
       0.416666             0.00289215159            0.000449433555           
       0.417345             0.00264143605            0.000436684244           
       0.418024             0.00293545157            0.000460358319           
       0.418703             0.00241633416            0.000416906293           
       0.419382              0.0026106585            0.000431222633           
       0.420062             0.00311618802            0.000472447371           
       0.420741             0.00307778783            0.000472024373           
       0.421420             0.00333880497            0.000493497046           
       0.422099             0.00282850696            0.000454233275           
       0.422778             0.00247747979            0.000427416097           
       0.423457             0.00266164656            0.000445729227           
       0.424137             0.00357859928             0.00050841294           
       0.424816             0.00239341855             0.00042447516           
       0.425495             0.00299088552            0.000474058356           
       0.426174             0.00358583902            0.000519253397           
       0.426853             0.00301659501            0.000473365275           
       0.427532             0.00240294299            0.000426055351           
       0.428212             0.00145346426              0.0003335446           
       0.428891             0.00326586586            0.000498840814           
       0.429570             0.00288311638            0.000469019327           
       0.430249             0.00187710937            0.000376481578           
       0.430928             0.00229127408            0.000425042143           
       0.431607             0.00241848983            0.000429179076           
       0.432287             0.00316134072            0.000494277947           
       0.432966             0.00290842023            0.000478263812           
       0.433645             0.00204264762            0.000401225899           
       0.434324             0.00271873074            0.000460097121           
       0.435003             0.00226148132            0.000420343218           
       0.435682             0.00191113866            0.000389583924           
       0.436361              0.0027737939            0.000468716664           
       0.437041             0.00252841567            0.000446907422           
       0.437720             0.00239548744            0.000437099206           
       0.438399             0.00185734843            0.000386892351           
       0.439078             0.00198256203            0.000411312029           
       0.439757             0.00221326015            0.000431907279           
       0.440436             0.00136347306            0.000346638204           
       0.441116             0.00258469965            0.000485067664           
       0.441795             0.00196229517             0.00042315782           
       0.442474             0.00234507983            0.000463882869           
       0.443153             0.00218199929            0.000457901816           
       0.443832             0.00229010417            0.000469898548           
       0.444511             0.00226226014            0.000464928835           
       0.445191             0.00278612882            0.000528509523           
       0.445870             0.00209050077            0.000457814187           
       0.446549             0.00203695299            0.000456678199           
       0.447228             0.00191081605             0.00043981317           
       0.447907             0.00195678469             0.00045041261           
       0.448586             0.00165100398            0.000423680948           
       0.449266            0.000972204334            0.000322129446           
       0.449945             0.00169731846            0.000423894987           
       0.450624             0.00304754496            0.000577024489           
       0.451303             0.00204503285            0.000478809551           
       0.451982             0.00223557935            0.000497524655           
       0.452661             0.00186663684            0.000463090612           
       0.453341             0.00290231884            0.000579465944           
       0.454020             0.00189429213            0.000468856726           
       0.454699             0.00382256547            0.000672113551           
       0.455378             0.00169894675            0.000448319955           
       0.456057             0.00250407281            0.000553958847           
       0.456736             0.00198665548            0.000491879718           
       0.457416             0.00224618943            0.000523037896           
       0.458095             0.00269177987            0.000580857786           
       0.458774             0.00146196513            0.000433731016           
       0.459453             0.00201613733            0.000511913853           
       0.460132             0.00130592258            0.000403100866           
       0.460811             0.00167827823            0.000474018606           
       0.461490             0.00203479431            0.000516635298           
       0.462170             0.00196689569            0.000515869062           
       0.462849             0.00214755509            0.000542536143           
       0.463528             0.00200308373            0.000522754518           
       0.464207             0.00279573371            0.000629139843           
       0.464886              0.0021849614            0.000551856598           
       0.465565             0.00125167286            0.000422274191           
       0.466245             0.00255600888            0.000605307252           
       0.466924             0.00162561705            0.000494132443           
       0.467603             0.00098158344            0.000375826164           
       0.468282             0.00149859035            0.000475382437           
       0.468961            0.000734779065            0.000335060882           
       0.469640             0.00183710867            0.000531914539           
       0.470320             0.00198592685             0.00055342163           
       0.470999               0.001103971            0.000416514744           
       0.471678             0.00113018641            0.000425481926           
       0.472357             0.00161329905            0.000509769976           
       0.473036             0.00194521386            0.000563291488           
       0.473715             0.00100938004            0.000408941389           
       0.474395             0.00189179859            0.000567588214           
       0.475074             0.00104513333            0.000421885325           
       0.475753            0.000178938177             0.00017305988           
       0.476432             0.00128010919            0.000479731575           
       0.477111             3.9625603e-05            8.33832592e-05           
       0.477790             0.00180426709            0.000565660152           
       0.478470             0.00165913034            0.000549605452           
       0.479149            0.000613352296              0.0003376251           
       0.479828            0.000419845062            0.000278676715           
       0.480507             0.00174987186            0.000573517449           
       0.481186            0.000838107474            0.000405858522           
       0.481865           -0.000121156562                         0           
       0.482545            7.76354377e-05            0.000123428336           
       0.483224             0.00124240123            0.000497133763           
       0.483903            0.000697426036            0.000378337131           
       0.484582              0.0011549573            0.000494787226           
       0.485261            0.000678522792            0.000369634755           
       0.485940            0.000333204258            0.000269476804           
       0.486619            0.000543873306            0.000340495324           
       0.487299            0.000114174261            0.000158494868           
       0.487978            0.000334328822            0.000268454418           
       0.488657            0.000397626815            0.000304847674           
       0.489336           -8.58160022e-05                         0           
       0.490015            0.000139966635            0.000179091523           
       0.490694           -8.27540951e-05                         0           
       0.491374           -0.000311603432                         0           
       0.492053           -0.000311622409                         0           
       0.492732           -0.000311641254                         0           
       0.493411           -0.000311660343                         0           
       0.494090            0.000194003216            0.000221352498           
       0.494769           -4.98080557e-05                         0           
       0.495449            -0.00031171751                         0           
       0.496128           -0.000311736677                         0           
       0.496807           -0.000311755634                         0           
       0.497486           -0.000311774766                         0           
       0.498165           -0.000311794174                         0           
       0.498844           -0.000311813289                         0           
       0.499524           -0.000311832493                         0           
       0.500203           -0.000311852003                         0           
       0.500882           -0.000311871129                         0           
       0.501561           -0.000311890314                         0           
       0.502240           -0.000311909756                         0           
       0.502919           -0.000311929112                         0           
       0.503599           -0.000311948545                         0           
       0.504278           -0.000311968252                         0           
       0.504957           -0.000311987726                         0           
       0.505636           -0.000312007076                         0           
       0.506315           -0.000312026745                         0           
       0.506994            4.32656957e-06            3.78390859e-05           
       0.507673           -0.000312065339                         0           
       0.508353           -0.000312085023                         0           
       0.509032            0.000396911373            0.000375444472           
       0.509711            2.11273136e-05            8.41046405e-05           
       0.510390           -0.000312144147                         0           
       0.511069           -0.000312163997                         0           
       0.511748            4.40541116e-05            0.000125671377           
       0.512428           -0.000312203679                         0           
       0.513107             0.00042841978            0.000398711639           
       0.513786            8.17518264e-05            0.000179074485           
       0.514465           -0.000312262951                         0           
       0.515144           -0.000312282939                         0           
       0.515823           -0.000312302745                         0           
       0.516503           -0.000312322737                         0           
       0.517182           -0.000312342727                         0           
       0.517861           -0.000312362668                         0           
       0.518540           -0.000312382722                         0           
       0.519219            0.000108833776            0.000215139252           
       0.519898           -0.000312422799                         0           
       0.520578           -0.000312443059                         0           
       0.521257           -0.000312463058                         0           
       0.521936            0.000587769031             0.00051326678           
       0.522615            0.000158029299            0.000272485433           
       0.523294            0.000625679523            0.000542206354           
       0.523973             0.00016486681            0.000280027911           
       0.524653             0.00016964185            0.000293141036           
       0.525332           -0.000312583995                         0           
       0.526011           -0.000312604585                         0           
       0.526690           -0.000312625135                         0           
       0.527369            0.000210369121            0.000330072748           
       0.528048           -0.000312666042                         0           
       0.528728           -0.000312686544                         0           
       0.529407            -0.00031270695                         0           
       0.530086            0.000199798097            0.000320300712           
       0.530765           -0.000312747583                         0           
       0.531444           -0.000312768132                         0           
       0.532123           -0.000312789045                         0           
       0.532802           -0.000312809788                         0           
       0.533482            -0.00031283046                         0           
       0.534161            0.000250230248            0.000372687094           
       0.534840           -0.000312871692                         0           
       0.535519             -0.0003128926                         0           
       0.536198           -0.000312913292                         0           
       0.536877           -0.000312933698                         0           
       0.537557           -0.000312954455                         0           
       0.538236           -0.000312975399                         0           
       0.538915            0.000273519462            0.000400309167           
       0.539594             0.00159581039             0.00100812098           
       0.540273           -0.000313038479                         0           
       0.540952           -0.000313059478                         0           
       0.541632           -0.000313080093                         0           
       0.542311           -0.000313100897                         0           
       0.542990           -0.000313121934                         0           
       0.543669           -0.000313143146                         0           
       0.544348            0.000426672486             0.00055567742           
       0.545027           -0.000313185476                         0           
       0.545707            0.000404183855             0.00053921005           
       0.546386           -0.000313227947                         0           
       0.547065           -0.000313248957                         0           
       0.547744           -0.000313270062                         0           
       0.548423           -0.000313291401                         0           
       0.549102           -0.000313312761                         0           
       0.549782           -0.000313334013                         0           
       0.550461           -0.000313355517                         0           
       0.551140           -0.000313377151                         0           
       0.551819             0.00128982174             0.00102870795           
       0.552498             0.00129476926             0.00102006998           
       0.553177           -0.000313441281                         0           
       0.553856            0.000579619912            0.000715130742           
       0.554536            0.000477124809            0.000619289864           
       0.555215           -0.000313505547                         0           
       0.555894           -0.000313527158                         0           
       0.556573            0.000623744667            0.000765328428           
       0.557252           -0.000313570619                         0           
       0.557931              0.0024811681             0.00152652012           
       0.558611             0.00153653462              0.0011965495           
       0.559290           -0.000313635936                         0           
       0.559969           -0.000313656972                         0           
       0.560648           -0.000313678565                         0           
       0.561327           -0.000313700639                         0           
       0.562006           -0.000313722611                         0           
       0.562686           -0.000313744595                         0           
       0.563365            -0.00031376666                         0           
       0.564044           -0.000313788614                         0           
       0.564723           -0.000313810519                         0           
       0.565402           -0.000313832016                         0           
       0.566081           -0.000313853656                         0           
       0.566761           -0.000313875529                         0           
       0.567440           -0.000313897847                         0           
       0.568119           -0.000313919988                         0           
       0.568798           -0.000313942441                         0           
       0.569477           -0.000313964749                         0           
       0.570156             0.00111237728             0.00126276306           
       0.570836             0.00104006648             0.00119233833           
       0.571515           -0.000314031358                         0           
       0.572194           -0.000314053851                         0           
       0.572873            -0.00031407583                         0           
       0.573552            -0.00031409768                         0           
       0.574231           -0.000314119973                         0           
       0.574911           -0.000314142828                         0           
       0.575590           -0.000314165243                         0           
       0.576269           -0.000314187589                         0           
       0.576948           -0.000314210365                         0           
       0.577627           -0.000314232446                         0           
       0.578306           -0.000314254839                         0           
       0.578985           -0.000314277423                         0           
       0.579665           -0.000314299877                         0           
       0.580344           -0.000314322671                         0           
       0.581023            -0.00031434544                         0           
       0.581702           -0.000314367999                         0           
       0.582381           -0.000314390352                         0           
       0.583060           -0.000314413373                         0           
       0.583740           -0.000314436032                         0           
       0.584419           -0.000314458766                         0           
       0.585098           -0.000314481473                         0           
       0.585777           -0.000314504357                         0           
       0.586456           -0.000314527613                         0           
       0.587135           -0.000314550251                         0           
       0.587815           -0.000314572644                         0           
       0.588494             0.00722162411             0.00523793131           
       0.589173           -0.000314619357                         0           
       0.589852           -0.000314641723                         0           
       0.590531           -0.000314664933                         0           
       0.591210           -0.000314687607                         0           
       0.591890           -0.000314710719                         0           
       0.592569           -0.000314733058                         0           
       0.593248           -0.000314757481                         0           
       0.593927           -0.000314780701                         0           
       0.594606             -0.0003148044                         0           
       0.595285           -0.000314826686                         0           
       0.595965           -0.000314847482                         0           
       0.596644           -0.000314868883                         0           
