################################################################################
# EDF_DataBlockID                     0.Image.Psd
# EDF_BinarySize                      4366944
# EDF_HeaderSize                      2560
# ByteOrder                           LowByteFirst
# DataType                            FloatValue
# Dim_1                               1028
# Dim_2                               1062
# Image                               0
# HeaderID                            EH:000000:000000:000000
# Size                                4366944
# Center_1                            607.5200
# Center_2                            651.5500
# Comment                             Xenocs_Cell_Window - 20251028_20perc_iodine_1.23mg
# DDummy                              0.6
# Date                                2025-10-31T08:35:01
# Delta                               0
# Dummy                               -1.5
# ExposureTime                        360
# Gamma                               0
# Intensity1                          8.53345e-10
# PSize_1                             7.5e-05
# PSize_2                             7.5e-05
# Pressure                            0.0329351
# SampleDistance                      0.450002
# SampleEnvKind                       large
# SampleEnvPN                         ElectroChemical cell
# SampleEnvSN                         1141
# Thickness                           0
# Wavelength                          1.541891e-10
# Wavelength                          1.54189e-10
# aux                                 0
# aux_dial                            0.002375
# beamx                               588.434
# beamx_dial                          588.434
# beamz                               657.808
# beamz_dial                          657.808
# det0x                               0
# det0x_dial                          6.36945
# det0xvd                             0
# det0xvd_dial                        0
# det0y                               450.002
# det0y_dial                          481.635
# det0z                               0
# det0z_dial                          1.23302
# det0zvd                             0
# det0zvd_dial                        0
# mag                                 1.818
# mag_dial                            1.818
# om                                  0.2499
# om_dial                             -0.610199
# phi                                 -0.0120535
# phi_dial                            0
# ry                                  0.599993
# ry_dial                             0.599993
# s1bot                               0.8
# s1bot_dial                          -1.66094
# s1hl                                0.8
# s1hl_dial                           -0.608437
# s1hr                                0.8
# s1hr_dial                           0.970938
# s1top                               0.8
# s1top_dial                          -0.461562
# s2bot                               0.45
# s2bot_dial                          1.36109
# s2hl                                0.45
# s2hl_dial                           -0.83375
# s2hr                                0.45
# s2hr_dial                           -0.118594
# s2top                               0.45
# s2top_dial                          1.44734
# w2theta                             32
# w2theta_dial                        32
# waxsch                              19.2605
# waxsch_dial                         -32.7355
# waxsh                               137.085
# waxsh_dial                          -43.5338
# waxsth                              26.0607
# waxsth_dial                         -19.4086
# waxsz                               67.0407
# waxsz_dial                          -23.7954
# wind                                65.9854
# wind_dial                           66.0041
# wpsi                                124
# wpsi_dial                           124
# wstod                               115
# wstod_dial                          115
# x                                   0
# x_dial                              1.00969
# z                                   0
# z_dial                              13.3172
# CountCutoff                         15302352
# DetectorModel                       Dectris EIGER2 Si 1M, S/N E-02-0362
# ThresholdSetting                    4023.88989258
# Saturation                          0
# FlatField                           Corrected
# BackgroundReductionExtra            0.02
# BackgroundCorrectionConstant        0.0026712
# Detector                            0
# Monitor                             0
# Pil_Roi0                            0
# SumForIntensity1                    3.07204e+08
# TransmittedFlux                     853345
# det                                 0
# mon                                 0
# pilai0                              3.07204e+08
# pilai1                              782880
# pilct0                              5.31897e+08
# pilct1                              782880
# pilroi0                             0
# pilroi1                             0
# sec                                 1
# title                               20251028_20perc_iodine_1.23mg_0_00602.edf
# usaxs0                              0
# Operation                           Azimuthal average I(q)
# Error_model                         ErrorModel.poisson
# Geometrical_correction              True
# Transmission_correction             True
# Thickness_correction                False
# Binning mode                        Uniform
# Binning factor                      1.0
# Psi                                 0.0
# Omega                               0.2499
# MaskInvalidPixels                   True
# DetectorEdge                        3
# MaskFiles                           ['20251028_20perc_iodine_1.23mg_0_00012_mask.edf']
################################################################################
    q(A⁻¹)                Intensity(a.u.)            Sigma_I(a.u.)            
       0.000340                371821.073                120.516354           
       0.001019                359161.048                72.5336024           
       0.001698                349733.458                50.6113895           
       0.002377                330791.481                44.0252542           
       0.003056                307987.508                35.9027172           
       0.003735                253546.981                28.7288237           
       0.004415                205116.169                25.8397718           
       0.005094                153139.566                19.3358464           
       0.005773                101184.994                14.5513836           
       0.006452                59042.8164                10.6502311           
       0.007131                32380.7837                7.64060231           
       0.007810                 16156.921                5.35609313           
       0.008490                8055.60034                3.35235743           
       0.009169                3837.49472                2.28673541           
       0.009848                1182.99684                1.22755055           
       0.010527                 456.82926               0.762824809           
       0.011206                115.215531               0.365625836           
       0.011885                53.4088913               0.231289657           
       0.012564                25.1987814               0.163106387           
       0.013244                17.0470028               0.125419536           
       0.013923                12.1848872               0.107746108           
       0.014602                9.25620261              0.0870947919           
       0.015281                7.59161871               0.080291917           
       0.015960                6.11224726              0.0715288132           
       0.016639                 4.9290451              0.0606563927           
       0.017319                4.20837859              0.0551753836           
       0.017998                3.40296023              0.0474665601           
       0.018677                2.92466552              0.0455766683           
       0.019356                2.45488633              0.0412590545           
       0.020035                2.09484981              0.0357580051           
       0.020714                1.83383829              0.0338103439           
       0.021394                1.60643439              0.0299412839           
       0.022073                1.37040336              0.0287721616           
       0.022752                1.27171952              0.0265141359           
       0.023431                1.11956068              0.0241480975           
       0.024110                1.01584125               0.023981632           
       0.024789               0.908639567              0.0210640479           
       0.025469               0.779863729              0.0201097856           
       0.026148                0.72174833               0.018177155           
       0.026827               0.673849643              0.0178447052           
       0.027506               0.595865182              0.0170223654           
       0.028185               0.582839537              0.0160548673           
       0.028864               0.519702775              0.0150753027           
       0.029544               0.480484452              0.0140563952           
       0.030223               0.427551504              0.0134496771           
       0.030902                0.42452595              0.0135246486           
       0.031581               0.389256079              0.0123110075           
       0.032260               0.324715548              0.0114357602           
       0.032939               0.308039204              0.0107396887           
       0.033619                0.29013524              0.0105760915           
       0.034298               0.275965508               0.010037777           
       0.034977               0.237033386             0.00912000589           
       0.035656               0.230757566             0.00923661575           
       0.036335                0.21998098             0.00874667699           
       0.037014               0.188357796             0.00811775312           
       0.037693               0.179283501             0.00761874305           
       0.038373               0.172841507              0.0075540233           
       0.039052               0.166286605             0.00744092283           
       0.039731               0.163643768             0.00720953218           
       0.040410                0.14518074             0.00674512972           
       0.041089               0.142776501             0.00658426671           
       0.041768               0.140565719             0.00656722397           
       0.042448               0.138749378             0.00647402807           
       0.043127               0.135669227              0.0062505686           
       0.043806               0.122724719             0.00598923092           
       0.044485               0.120220499             0.00580603328           
       0.045164               0.122144046             0.00596764118           
       0.045843               0.112691556             0.00549775984           
       0.046523               0.101554916             0.00523706119           
       0.047202               0.106541851             0.00540158878           
       0.047881               0.107434162             0.00531956028           
       0.048560              0.0995368014              0.0051669818           
       0.049239               0.082804081             0.00452505463           
       0.049918              0.0952044939             0.00494691855           
       0.050598              0.0890174547             0.00471170895           
       0.051277              0.0867176431             0.00463568922           
       0.051956              0.0828869608             0.00450368363           
       0.052635              0.0782671031             0.00428349792           
       0.053314               0.082861319             0.00453628414           
       0.053993              0.0763093888             0.00423384984           
       0.054673              0.0732373409             0.00405535833           
       0.055352              0.0750437537              0.0041653642           
       0.056031              0.0725668716             0.00400998306           
       0.056710              0.0694360782             0.00401864816           
       0.057389              0.0711332513             0.00392230048           
       0.058068              0.0621782039             0.00370490907           
       0.058748              0.0644561413              0.0038192189           
       0.059427              0.0725801144             0.00398414624           
       0.060106              0.0668135428             0.00385877812           
       0.060785              0.0592552182             0.00352508385           
       0.061464              0.0592180084             0.00360891777           
       0.062143              0.0589550748             0.00356431822           
       0.062822               0.053332342             0.00335030786           
       0.063502              0.0520738251             0.00330462753           
       0.064181              0.0568959219             0.00341777059           
       0.064860              0.0450546953             0.00308771531           
       0.065539              0.0524510473             0.00329895713           
       0.066218              0.0537607609             0.00326837792           
       0.066897              0.0460192588             0.00304725715           
       0.067577              0.0492974803             0.00318422758           
       0.068256               0.045601917             0.00313778087           
       0.068935              0.0422501448             0.00297142977           
       0.069614              0.0403317668             0.00293208754           
       0.070293              0.0425816243             0.00304054015           
       0.070972              0.0485062985             0.00322141858           
       0.071652              0.0457875599             0.00313557868           
       0.072331               0.043499145             0.00300174889           
       0.073010               0.043624894             0.00307477059           
       0.073689              0.0427099433             0.00302563777           
       0.074368              0.0322724088             0.00262529171           
       0.075047              0.0393125113             0.00286638163           
       0.075727              0.0439764034             0.00301292115           
       0.076406              0.0333663444             0.00267677641           
       0.077085              0.0391490029             0.00284527967           
       0.077764              0.0327142932             0.00259184441           
       0.078443              0.0374416659             0.00278996227           
       0.079122               0.036145947             0.00271492768           
       0.079802              0.0352603971             0.00270990386           
       0.080481              0.0344332231             0.00258759803           
       0.081160              0.0314724231             0.00252461179           
       0.081839              0.0343079159              0.0025936869           
       0.082518              0.0314277567             0.00248452103           
       0.083197               0.035258632             0.00259070362           
       0.083876              0.0340871833             0.00250497535           
       0.084556              0.0317469602             0.00248469042           
       0.085235              0.0318519182              0.0024407098           
       0.085914              0.0299960373             0.00239154619           
       0.086593              0.0348323283             0.00256055378           
       0.087272               0.027449299             0.00224091617           
       0.087951              0.0253155455             0.00220066903           
       0.088631              0.0308710483             0.00234739781           
       0.089310              0.0334827395             0.00249652719           
       0.089989              0.0341819977             0.00249297168           
       0.090668              0.0316385748             0.00242490454           
       0.091347              0.0285849307             0.00231781904           
       0.092026              0.0303767414             0.00228384148           
       0.092706              0.0326927227             0.00245530364           
       0.093385              0.0359410352             0.00253486046           
       0.094064              0.0295063135             0.00232349434           
       0.094743              0.0286193427             0.00225343359           
       0.095422              0.0287575837             0.00223368059           
       0.096101              0.0273044627              0.0022213411           
       0.096781              0.0258445813              0.0021301974           
       0.097460              0.0302549468              0.0022419285           
       0.098139              0.0316357105             0.00227487606           
       0.098818                0.02831194             0.00212555469           
       0.099497              0.0295320695              0.0021753301           
       0.100176              0.0289346588             0.00209670323           
       0.100856              0.0279684853             0.00206007898           
       0.101535              0.0292330826             0.00210207543           
       0.102214              0.0279108021             0.00205399715           
       0.102893              0.0241773573             0.00188991132           
       0.103572              0.0283719971             0.00201705771           
       0.104251              0.0258845736             0.00193372764           
       0.104931              0.0238554766             0.00183948776           
       0.105610              0.0263833175             0.00194274668           
       0.106289              0.0261793765             0.00190301823           
       0.106968              0.0228279218             0.00178231092           
       0.107647              0.0224710925             0.00176938749           
       0.108326              0.0241905268             0.00181127492           
       0.109005              0.0251004863             0.00183341883           
       0.109685              0.0250142926             0.00180973812           
       0.110364              0.0265507601             0.00188566695           
       0.111043              0.0219625276             0.00170821408           
       0.111722              0.0229650366             0.00172541563           
       0.112401               0.022680481             0.00171946093           
       0.113080              0.0242991245             0.00175936506           
       0.113760              0.0219002282             0.00169816134           
       0.114439              0.0252345049             0.00179683928           
       0.115118              0.0237397086             0.00172966674           
       0.115797              0.0215203321             0.00166208814           
       0.116476              0.0193158506             0.00155109081           
       0.117155              0.0225497208             0.00168942763           
       0.117835              0.0216240294             0.00162149898           
       0.118514              0.0194961941             0.00155917656           
       0.119193              0.0235320256             0.00171298344           
       0.119872              0.0216508274             0.00162253873           
       0.120551              0.0218414973             0.00161881222           
       0.121230              0.0205490308             0.00155438416           
       0.121910              0.0211503713              0.0015922046           
       0.122589              0.0233184777              0.0016735445           
       0.123268              0.0242345185             0.00167304668           
       0.123947              0.0224359363             0.00162017772           
       0.124626              0.0203165021             0.00152290302           
       0.125305               0.022026154             0.00159346715           
       0.125985               0.017921431               0.001426189           
       0.126664               0.022367727             0.00157813814           
       0.127343              0.0211991459             0.00155416941           
       0.128022              0.0171694904             0.00138795057           
       0.128701              0.0217408406             0.00155369305           
       0.129380               0.019134055             0.00143931842           
       0.130059              0.0208362839              0.0015054659           
       0.130739              0.0199510405             0.00148349796           
       0.131418              0.0219148109             0.00155044164           
       0.132097              0.0208134324             0.00149160093           
       0.132776              0.0221919601              0.0015332518           
       0.133455              0.0198859223             0.00146268087           
       0.134134              0.0177314458              0.0013767768           
       0.134814              0.0199708964             0.00144607955           
       0.135493              0.0210643351              0.0014911499           
       0.136172              0.0214811435             0.00149446297           
       0.136851              0.0227973913             0.00154852255           
       0.137530              0.0228232051             0.00151258786           
       0.138209              0.0201743986             0.00143880433           
       0.138889              0.0202680805             0.00144849806           
       0.139568              0.0178653029             0.00135934302           
       0.140247              0.0191708193             0.00140628937           
       0.140926              0.0176873471             0.00131216055           
       0.141605              0.0197551615             0.00142197403           
       0.142284              0.0178588429             0.00132960053           
       0.142964              0.0194163239             0.00139166896           
       0.143643              0.0210488805             0.00144716472           
       0.144322              0.0186717553             0.00133447937           
       0.145001              0.0204088487             0.00142381211           
       0.145680               0.018594555             0.00132689968           
       0.146359              0.0185672427             0.00133077502           
       0.147039               0.021470968              0.0014428381           
       0.147718              0.0181478003             0.00130460069           
       0.148397              0.0184537435             0.00133599429           
       0.149076              0.0193472129               0.001325518           
       0.149755              0.0201073431             0.00137217119           
       0.150434              0.0203717667             0.00138172788           
       0.151114              0.0192315561             0.00133507786           
       0.151793              0.0198566703             0.00135661501           
       0.152472              0.0168564167             0.00122785206           
       0.153151              0.0181905833             0.00128784993           
       0.153830              0.0160232799             0.00119989125           
       0.154509              0.0165055064              0.0012127319           
       0.155188              0.0170190913             0.00123099987           
       0.155868              0.0156870878             0.00117343614           
       0.156547              0.0187160369             0.00128995935           
       0.157226              0.0174424208             0.00121487986           
       0.157905              0.0166179386             0.00119577971           
       0.158584              0.0179426462             0.00124026972           
       0.159263              0.0190242018             0.00128180261           
       0.159943              0.0167095182             0.00120219157           
       0.160622              0.0181473479             0.00122866957           
       0.161301              0.0194823266             0.00129008769           
       0.161980              0.0180615545             0.00122103921           
       0.162659               0.017048955             0.00119946642           
       0.163338              0.0183626214             0.00123467396           
       0.164018                0.01635735             0.00115919366           
       0.164697              0.0164356089             0.00117688334           
       0.165376              0.0151524775             0.00110532081           
       0.166055              0.0196819425             0.00126804679           
       0.166734              0.0162784408             0.00114804231           
       0.167413              0.0177510436             0.00119968548           
       0.168093              0.0157744331             0.00114161892           
       0.168772                0.01890506             0.00121322956           
       0.169451              0.0176833396             0.00119496111           
       0.170130              0.0180989875             0.00119305236           
       0.170809              0.0174881922             0.00118674388           
       0.171488              0.0152502353             0.00109810935           
       0.172168              0.0144242405             0.00105769749           
       0.172847              0.0179791604             0.00119637528           
       0.173526               0.018683543             0.00119632027           
       0.174205              0.0170077297             0.00114666505           
       0.174884              0.0165132689             0.00112398575           
       0.175563              0.0171891329             0.00115165286           
       0.176243              0.0177666388             0.00118255657           
       0.176922              0.0177485988             0.00115115433           
       0.177601              0.0153314708             0.00108165856           
       0.178280              0.0168543767             0.00112144888           
       0.178959              0.0146803761             0.00105504484           
       0.179638              0.0157741976             0.00109049463           
       0.180317              0.0158583174             0.00108543306           
       0.180997              0.0153652495             0.00107422482           
       0.181676              0.0168731002             0.00111368043           
       0.182355              0.0185700884             0.00117535935           
       0.183034              0.0168723052              0.0011023621           
       0.183713              0.0154036806             0.00106612077           
       0.184392              0.0167145034             0.00111022115           
       0.185072              0.0167643807             0.00109920478           
       0.185751              0.0145976406             0.00102856726           
       0.186430              0.0160321132             0.00107037072           
       0.187109               0.015854414             0.00107627644           
       0.187788              0.0177804661             0.00113696812           
       0.188467              0.0170698381             0.00110083257           
       0.189147              0.0173637388             0.00112151255           
       0.189826              0.0162505122             0.00106577955           
       0.190505               0.016504166             0.00109174578           
       0.191184               0.016521103              0.0010765632           
       0.191863              0.0162475034             0.00106986083           
       0.192542              0.0154631858              0.0010535612           
       0.193222              0.0151928266             0.00102090715           
       0.193901              0.0152432045             0.00103630485           
       0.194580              0.0146981836            0.000999809139           
       0.195259              0.0144855085             0.00100394868           
       0.195938              0.0162357908             0.00106541031           
       0.196617              0.0193311832             0.00114631647           
       0.197297              0.0156001991             0.00103397504           
       0.197976              0.0158237865             0.00102536264           
       0.198655              0.0160431216             0.00104372172           
       0.199334              0.0156411925             0.00102147634           
       0.200013              0.0160094558             0.00103285843           
       0.200692                0.01540712             0.00101933678           
       0.201371              0.0153664232             0.00100652486           
       0.202051              0.0167933171             0.00105549166           
       0.202730              0.0147517405              0.0009793743           
       0.203409              0.0153647609              0.0010062261           
       0.204088              0.0159784482             0.00102498932           
       0.204767              0.0160772552             0.00102274975           
       0.205446              0.0143238136            0.000967254109           
       0.206126              0.0165147539             0.00102448704           
       0.206805              0.0159140859             0.00102412003           
       0.207484              0.0156814747            0.000998331731           
       0.208163              0.0150611126            0.000984264581           
       0.208842               0.014707849            0.000970017236           
       0.209521              0.0133321281             0.00091586247           
       0.210201              0.0158336242              0.0010092302           
       0.210880               0.015634402            0.000983181737           
       0.211559              0.0155384894            0.000994653076           
       0.212238              0.0153119467            0.000982351431           
       0.212917              0.0163772679             0.00101217547           
       0.213596              0.0155202721            0.000991163078           
       0.214276              0.0164263881            0.000998442422           
       0.214955              0.0155539221            0.000991996526           
       0.215634              0.0165793927             0.00101683557           
       0.216313              0.0143959554            0.000945526612           
       0.216992               0.012953374            0.000896677321           
       0.217671              0.0138142528             0.00091972228           
       0.218351               0.015918898            0.000996956788           
       0.219030              0.0149284571            0.000950205186           
       0.219709              0.0162758387            0.000998348643           
       0.220388              0.0149466003            0.000955484109           
       0.221067              0.0147207995            0.000948991087           
       0.221746               0.014215082            0.000931592596           
       0.222426              0.0160152573            0.000974044575           
       0.223105              0.0146642991            0.000944754991           
       0.223784              0.0151296183            0.000950108438           
       0.224463              0.0136947631            0.000911132051           
       0.225142              0.0145347288             0.00092380639           
       0.225821              0.0160807088            0.000975609299           
       0.226500              0.0138172635            0.000910095601           
       0.227180              0.0132716061            0.000878202772           
       0.227859              0.0149844203            0.000937339655           
       0.228538              0.0140934831            0.000899918515           
       0.229217              0.0142136525            0.000910900606           
       0.229896              0.0154894798            0.000950445964           
       0.230575              0.0154788708            0.000934974854           
       0.231255              0.0123670754            0.000848238053           
       0.231934              0.0152260198            0.000934760121           
       0.232613              0.0135585812            0.000885346849           
       0.233292              0.0136245028            0.000878921656           
       0.233971              0.0146667386            0.000911494153           
       0.234650              0.0153793282            0.000944352928           
       0.235330              0.0140158865            0.000893648805           
       0.236009               0.013746604              0.0008831148           
       0.236688              0.0152314306             0.00092625976           
       0.237367              0.0148151783            0.000914842239           
       0.238046              0.0158740499            0.000953639937           
       0.238725              0.0143300212            0.000892095881           
       0.239405              0.0128802971             0.00085101221           
       0.240084              0.0145425998            0.000898503177           
       0.240763              0.0147242205            0.000912753405           
       0.241442               0.013749032            0.000869581791           
       0.242121              0.0145759881            0.000897041177           
       0.242800              0.0149413735            0.000912514607           
       0.243480              0.0148504455            0.000905474114           
       0.244159              0.0142212906            0.000886514602           
       0.244838              0.0150741969            0.000897693062           
       0.245517              0.0146282005            0.000897033927           
       0.246196               0.014135284            0.000882216238           
       0.246875              0.0143845411            0.000877554737           
       0.247554              0.0134237121             0.00085635547           
       0.248234              0.0124555242            0.000812387193           
       0.248913              0.0127818362            0.000832191161           
       0.249592              0.0142893733            0.000871538336           
       0.250271              0.0135381781            0.000845857327           
       0.250950              0.0135145527            0.000850295174           
       0.251629              0.0140421527            0.000859367065           
       0.252309              0.0151594934            0.000894715048           
       0.252988              0.0142782388            0.000853362631           
       0.253667              0.0157039198            0.000905409719           
       0.254346              0.0121532327            0.000796338372           
       0.255025              0.0122027961            0.000796212566           
       0.255704              0.0133539629            0.000829107338           
       0.256384              0.0131200182            0.000818969698           
       0.257063              0.0127085977            0.000810622227           
       0.257742              0.0137476015            0.000837266155           
       0.258421              0.0123359284            0.000791588044           
       0.259100              0.0126557135            0.000803180779           
       0.259779              0.0120757546            0.000783896676           
       0.260459              0.0128603706            0.000810551192           
       0.261138              0.0126314145            0.000787605142           
       0.261817              0.0130625359            0.000817100715           
       0.262496              0.0124587654            0.000790167465           
       0.263175              0.0130056343             0.00080905718           
       0.263854              0.0124428107            0.000787680864           
       0.264534              0.0123231018            0.000777187702           
       0.265213              0.0144184035            0.000853915894           
       0.265892              0.0124890276            0.000784550302           
       0.266571              0.0118033007            0.000760973388           
       0.267250              0.0129330086            0.000797900069           
       0.267929              0.0130358808            0.000800245727           
       0.268609              0.0136742058            0.000824091878           
       0.269288              0.0112144913            0.000733903865           
       0.269967              0.0131130801            0.000802150621           
       0.270646              0.0143697395            0.000836077576           
       0.271325              0.0129990915            0.000796532263           
       0.272004              0.0111134445            0.000729155723           
       0.272683               0.012825527            0.000784277657           
       0.273363              0.0107545278            0.000722751478           
       0.274042              0.0123952468            0.000771349138           
       0.274721              0.0122775525            0.000767223241           
       0.275400              0.0117302543            0.000744962694           
       0.276079              0.0126728025            0.000778710787           
       0.276758              0.0115386964            0.000752427334           
       0.277438              0.0132297637            0.000796635458           
       0.278117             0.00971658485            0.000695130809           
       0.278796              0.0134513921            0.000809585223           
       0.279475              0.0110813203            0.000746948066           
       0.280154              0.0105771308              0.0007192605           
       0.280833              0.0111921291            0.000744374871           
       0.281513              0.0115761634              0.0007689149           
       0.282192              0.0117472293            0.000761360843           
       0.282871              0.0118026724            0.000768488183           
       0.283550              0.0101676972            0.000717099587           
       0.284229              0.0101266198            0.000726160604           
       0.284908              0.0103903963            0.000743315711           
       0.285588              0.0117152413            0.000780040663           
       0.286267             0.00996583379            0.000730965996           
       0.286946              0.0114633042            0.000778864295           
       0.287625              0.0100054446            0.000740043827           
       0.288304              0.0109604168            0.000764188822           
       0.288983             0.00944507214            0.000718381273           
       0.289663              0.0115047669            0.000797490877           
       0.290342              0.0115250196            0.000793943615           
       0.291021              0.0110055872            0.000780025694           
       0.291700              0.0114423787            0.000784963808           
       0.292379              0.0106078193             0.00077310064           
       0.293058             0.00951640992            0.000729484335           
       0.293738              0.0113840236             0.00079116113           
       0.294417              0.0100845301            0.000753292541           
       0.295096              0.0110582954            0.000780151875           
       0.295775              0.0129263339            0.000856357561           
       0.296454             0.00916757806            0.000711853734           
       0.297133              0.0102725395            0.000757098122           
       0.297812             0.00932662251            0.000725017043           
       0.298492               0.010253114            0.000761644305           
       0.299171              0.0108397256            0.000781647652           
       0.299850              0.0115247133            0.000800462804           
       0.300529             0.00946537626            0.000733600777           
       0.301208             0.00899460728            0.000716865138           
       0.301887             0.00959163479            0.000739394619           
       0.302567             0.00966607847            0.000738540918           
       0.303246             0.00894514436            0.000715104136           
       0.303925              0.0101080898            0.000769929396           
       0.304604             0.00967024652            0.000736808689           
       0.305283              0.0102428285            0.000769555097           
       0.305962             0.00847610276            0.000695818994           
       0.306642              0.0110299289            0.000804531745           
       0.307321             0.00837105139            0.000698647046           
       0.308000              0.0090694112            0.000718586109           
       0.308679             0.00822460034            0.000699119143           
       0.309358             0.00876235227            0.000711851334           
       0.310037             0.00931173175            0.000735462839           
       0.310717             0.00849244419            0.000701687621           
       0.311396             0.00883343986            0.000720435869           
       0.312075             0.00889615745            0.000732157237           
       0.312754             0.00874886638            0.000711545442           
       0.313433              0.0084497955            0.000705359646           
       0.314112             0.00921167035            0.000736303735           
       0.314792             0.00922431657            0.000742012118           
       0.315471             0.00840275777            0.000699440194           
       0.316150             0.00984261787            0.000764004368           
       0.316829             0.00832614296            0.000707328122           
       0.317508             0.00847745691             0.00070571757           
       0.318187             0.00878855618            0.000728028693           
       0.318866             0.00805753441            0.000687702545           
       0.319546             0.00838533605            0.000712067927           
       0.320225             0.00777214302            0.000685551477           
       0.320904             0.00864506033            0.000711846156           
       0.321583             0.00812496321            0.000705307448           
       0.322262             0.00828378064            0.000701373786           
       0.322941             0.00965855047            0.000767043335           
       0.323621             0.00869857811            0.000723485017           
       0.324300             0.00724560799            0.000660819851           
       0.324979             0.00766272138            0.000680803258           
       0.325658             0.00611230739            0.000609143859           
       0.326337             0.00898028547            0.000739313862           
       0.327016             0.00759082084            0.000675401752           
       0.327696             0.00882920902            0.000736515973           
       0.328375             0.00806401601            0.000697937726           
       0.329054             0.00870784614            0.000729198019           
       0.329733             0.00877052811            0.000734490391           
       0.330412             0.00813667435            0.000701655027           
       0.331091             0.00656974868            0.000641921352           
       0.331771             0.00686303936             0.00063890163           
       0.332450             0.00777321751            0.000693150069           
       0.333129             0.00716027729            0.000663543936           
       0.333808             0.00739022083            0.000675005174           
       0.334487             0.00725983796            0.000672196304           
       0.335166             0.00716409794            0.000657976552           
       0.335846             0.00700137325            0.000661891699           
       0.336525             0.00679278573            0.000645520675           
       0.337204             0.00739112915            0.000675116413           
       0.337883             0.00814177145            0.000709509181           
       0.338562             0.00693426927            0.000658418913           
       0.339241             0.00707475681            0.000666301425           
       0.339921             0.00700545678            0.000651911102           
       0.340600             0.00628245962            0.000629078908           
       0.341279             0.00811599618            0.000707351937           
       0.341958             0.00710487372            0.000671161658           
       0.342637             0.00686531258            0.000650429179           
       0.343316             0.00642667633            0.000631129734           
       0.343995             0.00613859042            0.000626921796           
       0.344675             0.00626840999             0.00062187363           
       0.345354             0.00661041968            0.000642825744           
       0.346033             0.00676427343            0.000648568325           
       0.346712             0.00653389334            0.000641495367           
       0.347391             0.00618441198            0.000627967951           
       0.348070             0.00574070913            0.000596429631           
       0.348750             0.00769795675            0.000700639471           
       0.349429             0.00651462703            0.000636221703           
       0.350108              0.0060303502            0.000619483636           
       0.350787             0.00775811473            0.000690708997           
       0.351466              0.0048489385            0.000556119063           
       0.352145             0.00664640337            0.000651625441           
       0.352825             0.00682663161            0.000657409988           
       0.353504             0.00676272784            0.000654165295           
       0.354183             0.00683642393            0.000650142322           
       0.354862             0.00608415354            0.000627581895           
       0.355541             0.00535379435            0.000580999644           
       0.356220              0.0064498268            0.000638908424           
       0.356900             0.00502560449            0.000569330417           
       0.357579             0.00546840976            0.000586600684           
       0.358258             0.00562402416            0.000603120949           
       0.358937             0.00527942328            0.000573365346           
       0.359616             0.00434402513            0.000527359808           
       0.360295             0.00594995079            0.000617702269           
       0.360975             0.00457509774            0.000539338399           
       0.361654             0.00559149795            0.000599319613           
       0.362333             0.00539914386            0.000585926223           
       0.363012             0.00690229104            0.000671010393           
       0.363691             0.00551158505            0.000587782949           
       0.364370             0.00559157152            0.000599377155           
       0.365050             0.00495393049            0.000561148794           
       0.365729             0.00544381764            0.000593849306           
       0.366408              0.0050741156            0.000574599441           
       0.367087             0.00583543499            0.000606316828           
       0.367766             0.00465985068            0.000553101618           
       0.368445             0.00557840268            0.000594420632           
       0.369124              0.0046928208            0.000549483036           
       0.369804             0.00474593563            0.000551699705           
       0.370483             0.00406968189            0.000513119039           
       0.371162             0.00483639523            0.000562612563           
       0.371841             0.00485141354            0.000553660746           
       0.372520             0.00435279071            0.000534949331           
       0.373199             0.00486190075            0.000558614083           
       0.373879             0.00473678275            0.000557763233           
       0.374558             0.00497084082             0.00056303969           
       0.375237             0.00524626221            0.000579375897           
       0.375916             0.00499925227            0.000576406936           
       0.376595             0.00498172044            0.000564149517           
       0.377274             0.00482077572            0.000563844945           
       0.377954             0.00485906484            0.000557187136           
       0.378633             0.00452568546            0.000544528757           
       0.379312             0.00425442037            0.000527824062           
       0.379991             0.00440449865            0.000534273414           
       0.380670             0.00497581386            0.000577904903           
       0.381349             0.00384111202            0.000500462865           
       0.382029              0.0038374314            0.000507390356           
       0.382708             0.00365539454            0.000484395496           
       0.383387              0.0035656135            0.000489251696           
       0.384066             0.00435528432             0.00053575994           
       0.384745             0.00432462885            0.000535969777           
       0.385424             0.00402845673            0.000519048308           
       0.386104             0.00392874657            0.000506919886           
       0.386783             0.00466700807            0.000564449618           
       0.387462             0.00520473615            0.000581252336           
       0.388141             0.00370021731            0.000497921149           
       0.388820             0.00428765941            0.000532115998           
       0.389499             0.00435108049            0.000539054588           
       0.390178              0.0049315878            0.000576173915           
       0.390858             0.00331940034            0.000468879834           
       0.391537             0.00412796723            0.000528216641           
       0.392216             0.00349209695            0.000479743583           
       0.392895             0.00412453411            0.000523135399           
       0.393574             0.00553738949            0.000604646224           
       0.394253             0.00354792811            0.000486167146           
       0.394933             0.00382930563            0.000510849368           
       0.395612              0.0044320235            0.000533619738           
       0.396291             0.00509327351             0.00058368996           
       0.396970             0.00329108683             0.00046503799           
       0.397649             0.00416908908            0.000525018281           
       0.398328             0.00374587713            0.000495470088           
       0.399008             0.00405048187            0.000514101832           
       0.399687             0.00447297325             0.00054234999           
       0.400366             0.00431217566            0.000530475628           
       0.401045              0.0042843109            0.000527759186           
       0.401724             0.00319761732            0.000456701958           
       0.402403             0.00399227945            0.000514282677           
       0.403083             0.00366388581            0.000485572898           
       0.403762              0.0042328612            0.000524489503           
       0.404441             0.00369130762            0.000492909478           
       0.405120             0.00333872914            0.000467241212           
       0.405799             0.00310996894            0.000448991122           
       0.406478             0.00382304571            0.000497823485           
       0.407158             0.00380780504            0.000495897767           
       0.407837             0.00445851117            0.000541335065           
       0.408516             0.00366677085            0.000486651955           
       0.409195             0.00374273408             0.00049724446           
       0.409874             0.00338807253            0.000479681098           
       0.410553             0.00382486905            0.000515146159           
       0.411233             0.00411089305            0.000531292998           
       0.411912              0.0038316583            0.000520199319           
       0.412591             0.00303965653            0.000466394547           
       0.413270             0.00399030849            0.000531834227           
       0.413949             0.00307490181            0.000471961248           
       0.414628             0.00241978031            0.000417924885           
       0.415307             0.00299860434            0.000470407306           
       0.415987             0.00346444727            0.000501461735           
       0.416666             0.00304279254            0.000467128258           
       0.417345             0.00286727112            0.000461027523           
       0.418024             0.00234061015              0.0004165509           
       0.418703              0.0023318485            0.000415006711           
       0.419382             0.00311758194            0.000477507782           
       0.420062             0.00372154633            0.000523176617           
       0.420741             0.00375554965            0.000528356238           
       0.421420             0.00229650695            0.000414732352           
       0.422099             0.00282211006            0.000459761174           
       0.422778             0.00225756368            0.000413438408           
       0.423457             0.00319139189            0.000494573666           
       0.424137             0.00389865796            0.000537727971           
       0.424816             0.00245480008            0.000435608172           
       0.425495             0.00260762727            0.000448538441           
       0.426174             0.00283077352            0.000467499892           
       0.426853             0.00264208113            0.000448906575           
       0.427532             0.00200373989            0.000394239343           
       0.428212             0.00250549942            0.000443755643           
       0.428891             0.00296876391            0.000481942959           
       0.429570             0.00187600482            0.000383373092           
       0.430249              0.0023868691            0.000430187952           
       0.430928             0.00258905425            0.000457835059           
       0.431607             0.00240864383            0.000434007965           
       0.432287             0.00244985772             0.00044091108           
       0.432966             0.00258820932            0.000457176229           
       0.433645             0.00226208807            0.000427850445           
       0.434324             0.00215783073            0.000415355632           
       0.435003             0.00208760898            0.000409239099           
       0.435682               0.001317656            0.000327793963           
       0.436361             0.00211737308             0.00041497028           
       0.437041             0.00178291891            0.000380280562           
       0.437720             0.00221274431            0.000425690232           
       0.438399             0.00199673383            0.000406488759           
       0.439078             0.00195406515            0.000413782899           
       0.439757             0.00261525665            0.000475747428           
       0.440436              0.0021011311            0.000436038384           
       0.441116             0.00200670586            0.000433095969           
       0.441795             0.00126241747            0.000343927341           
       0.442474             0.00295509333            0.000527667226           
       0.443153             0.00353695416            0.000590751426           
       0.443832             0.00244004355            0.000491496323           
       0.444511             0.00281696676            0.000525715851           
       0.445191             0.00298843385            0.000554650035           
       0.445870             0.00173839795             0.00042304219           
       0.446549             0.00219880767             0.00048079329           
       0.447228             0.00174424848            0.000425802263           
       0.447907             0.00264708004            0.000530844788           
       0.448586             0.00213993537            0.000488776372           
       0.449266             0.00197039647            0.000464700842           
       0.449945             0.00229011514            0.000498942239           
       0.450624             0.00253278894            0.000533044768           
       0.451303              0.0025595201            0.000542796368           
       0.451982             0.00217692126            0.000497491795           
       0.452661             0.00238923726            0.000530897525           
       0.453341             0.00216722106            0.000507401752           
       0.454020             0.00253227723            0.000549309738           
       0.454699             0.00222324789            0.000519402613           
       0.455378             0.00175023409            0.000461095894           
       0.456057             0.00143960881            0.000425619261           
       0.456736             0.00268142927             0.00057906299           
       0.457416             0.00267073128            0.000577923113           
       0.458095             0.00366751169            0.000687038063           
       0.458774             0.00140433645            0.000430757211           
       0.459453             0.00167535976            0.000472863582           
       0.460132              0.0010903548            0.000373236352           
       0.460811             0.00145148583            0.000446698825           
       0.461490             0.00291627502            0.000626733715           
       0.462170             0.00190269678            0.000514136706           
       0.462849             0.00177176957            0.000499350096           
       0.463528            0.000930270747             0.00036099229           
       0.464207             0.00168509113            0.000494943909           
       0.464886             0.00152097486            0.000466563084           
       0.465565             0.00185143845            0.000520413748           
       0.466245             0.00289432273            0.000652699344           
       0.466924             0.00152282154              0.0004846227           
       0.467603             0.00173735541            0.000506655469           
       0.468282             0.00183094786            0.000532457141           
       0.468961             0.00171959016            0.000519401042           
       0.469640             0.00205497783            0.000570063202           
       0.470320             0.00125770942              0.0004462823           
       0.470999             0.00112122632            0.000425346819           
       0.471678             0.00130658059            0.000463574115           
       0.472357              0.0018261373            0.000549576975           
       0.473036            0.000505359025            0.000290934031           
       0.473715            0.000860638768             0.00038263894           
       0.474395            0.000890474431            0.000394595063           
       0.475074             0.00108271174            0.000435120949           
       0.475753             0.00088944784            0.000390976035           
       0.476432            0.000772067791            0.000377526563           
       0.477111             0.00148939671             0.00051801355           
       0.477790            0.000402489892            0.000270724563           
       0.478470            0.000800696665            0.000386892036           
       0.479149             0.00101268516             0.00043960432           
       0.479828             0.00062745364            0.000345216846           
       0.480507             0.00025465602            0.000221699894           
       0.481186            0.000279068798            0.000237315144           
       0.481865             0.00143170854            0.000530866791           
       0.482545            0.000886936196            0.000422742647           
       0.483224            -0.00011763582                         0           
       0.483903            0.000932021427            0.000443187841           
       0.484582             0.00032849245              0.0002673888           
       0.485261            0.000487155496            0.000317372565           
       0.485940             0.00119996295            0.000518197168           
       0.486619            -0.00011457999                         0           
       0.487299            0.000551765767            0.000353064032           
       0.487978            0.000343973992            0.000275925253           
       0.488657            0.000147378229            0.000188064456           
       0.489336           -9.43335457e-05                         0           
       0.490015            0.000142833938            0.000183325752           
       0.490694            0.000414795376            0.000321050427           
       0.491374           -0.000319957454                         0           
       0.492053            -0.00031997694                         0           
       0.492732            -0.00031999629                         0           
       0.493411           -6.44939359e-05                         0           
       0.494090           -0.000320035621                         0           
       0.494769            0.000216518768            0.000241178962           
       0.495449            0.000207819604            0.000234200447           
       0.496128           -0.000320094272                         0           
       0.496807           -0.000320113737                         0           
       0.497486           -0.000320133382                         0           
       0.498165            -0.00032015331                         0           
       0.498844           -0.000320172937                         0           
       0.499524           -3.68590742e-05                         0           
       0.500203            -0.00032021269                         0           
       0.500882           -1.35139576e-05                         0           
       0.501561           -0.000320252028                         0           
       0.502240           -0.000320271991                         0           
       0.502919           -0.000320291866                         0           
       0.503599            0.000284147293            0.000292960981           
       0.504278            0.000321436966            0.000319336823           
       0.504957           -0.000320352052                         0           
       0.505636            -0.00032037192                         0           
       0.506315            0.000986272816            0.000569298186           
       0.506994            0.000702061276            0.000488428841           
       0.507673           -0.000320431745                         0           
       0.508353           -0.000320451957                         0           
       0.509032            4.40722835e-05            0.000126772986           
       0.509711            2.24751409e-05            8.79010436e-05           
       0.510390            4.33532154e-05            0.000125173099           
       0.511069           -0.000320533048                         0           
       0.511748           -0.000320553349                         0           
       0.512428           -0.000320573794                         0           
       0.513107           -0.000320593924                         0           
       0.513786           -0.000320614118                         0           
       0.514465           -0.000320634655                         0           
       0.515144           -0.000320655179                         0           
       0.515823           -0.000320675516                         0           
       0.516503            0.000101511682            0.000206789829           
       0.517182            9.70809251e-05             0.00020294634           
       0.517861           -0.000320737045                         0           
       0.518540            0.000132257379            0.000243887543           
       0.519219           -0.000320778109                         0           
       0.519898           -0.000320798788                         0           
       0.520578           -0.000320819591                         0           
       0.521257           -0.000320840126                         0           
       0.521936            -0.00032086071                         0           
       0.522615           -0.000320881541                         0           
       0.523294           -0.000320902449                         0           
       0.523973            0.000662584416             0.00056885334           
       0.524653            0.000193930217            0.000317598073           
       0.525332           -0.000320964306                         0           
       0.526011           -0.000320985448                         0           
       0.526690            0.000159407713             0.00027962459           
       0.527369           -0.000321027477                         0           
       0.528048           -0.000321048553                         0           
       0.528728           -0.000321069604                         0           
       0.529407           -0.000321090558                         0           
       0.530086           -0.000321111404                         0           
       0.530765            -0.00032113228                         0           
       0.531444            -0.00032115338                         0           
       0.532123           -0.000321174854                         0           
       0.532802            0.000221216937            0.000346932518           
       0.533482           -0.000321217379                         0           
       0.534161           -0.000321238639                         0           
       0.534840           -0.000321259717                         0           
       0.535519           -0.000321281185                         0           
       0.536198           -0.000321302431                         0           
       0.536877           -0.000321323384                         0           
       0.537557           -0.000321344698                         0           
       0.538236           -0.000321366204                         0           
       0.538915           -0.000321387702                         0           
       0.539594           -0.000321409171                         0           
       0.540273           -0.000321430975                         0           
       0.540952            0.000321984422             0.00046140995           
       0.541632           -0.000321473704                         0           
       0.542311           -0.000321495066                         0           
       0.542990            0.000403424769            0.000539226938           
       0.543669           -0.000321538448                         0           
       0.544348            0.000432670356            0.000567020814           
       0.545027           -0.000321581913                         0           
       0.545707            0.000428311324            0.000562462115           
       0.546386           -0.000321625522                         0           
       0.547065           -0.000321647095                         0           
       0.547744           -0.000321668767                         0           
       0.548423            0.000401942763            0.000536776499           
       0.549102            -0.00032171261                         0           
       0.549782           -0.000321734432                         0           
       0.550461           -0.000321756512                         0           
       0.551140           -0.000321778726                         0           
       0.551819           -0.000321800678                         0           
       0.552498            0.000490213998            0.000636021259           
       0.553177           -0.000321844576                         0           
       0.553856             0.00150255891             0.00116674125           
       0.554536           -0.000321888322                         0           
       0.555215           -0.000321910565                         0           
       0.555894           -0.000321932755                         0           
       0.556573           -0.000321955078                         0           
       0.557252           -0.000321977381                         0           
       0.557931           -0.000321999584                         0           
       0.558611            0.000637253623            0.000780837481           
       0.559290             0.00164696962              0.0012705593           
       0.559969              0.0019651111             0.00149506435           
       0.560648           -0.000322088221                         0           
       0.561327           -0.000322110887                         0           
       0.562006           -0.000322133448                         0           
       0.562686           -0.000322156021                         0           
       0.563365           -0.000322178678                         0           
       0.564044            -0.00032220122                         0           
       0.564723           -0.000322223713                         0           
       0.565402           -0.000322245787                         0           
       0.566081             0.00363642867             0.00217195813           
       0.566761           -0.000322290466                         0           
       0.567440           -0.000322313382                         0           
       0.568119           -0.000322336117                         0           
       0.568798             0.00112714126              0.0012801679           
       0.569477             0.00723271341             0.00301541608           
       0.570156           -0.000322405095                         0           
       0.570836           -0.000322428026                         0           
       0.571515           -0.000322450472                         0           
       0.572194           -0.000322473569                         0           
       0.572873           -0.000322496137                         0           
       0.573552             0.00146048797             0.00161034412           
       0.574231           -0.000322541463                         0           
       0.574911           -0.000322564931                         0           
       0.575590           -0.000322587947                         0           
       0.576269           -0.000322610892                         0           
       0.576948           -0.000322634279                         0           
       0.577627           -0.000322656952                         0           
       0.578306           -0.000322679945                         0           
       0.578985           -0.000322703135                         0           
       0.579665           -0.000322726191                         0           
       0.580344           -0.000322749596                         0           
       0.581023           -0.000322772975                         0           
       0.581702           -0.000322796139                         0           
       0.582381           -0.000322819091                         0           
       0.583060           -0.000322842729                         0           
       0.583740           -0.000322865995                         0           
       0.584419           -0.000322889339                         0           
       0.585098           -0.000322912655                         0           
       0.585777           -0.000322936152                         0           
       0.586456           -0.000322960032                         0           
       0.587135           -0.000322983277                         0           
       0.587815           -0.000323006271                         0           
       0.588494           -0.000323029981                         0           
       0.589173           -0.000323054236                         0           
       0.589852           -0.000323077202                         0           
       0.590531           -0.000323101034                         0           
       0.591210           -0.000323124316                         0           
       0.591890           -0.000323148047                         0           
       0.592569           -0.000323170985                         0           
       0.593248           -0.000323196063                         0           
       0.593927           -0.000323219906                         0           
       0.594606           -0.000323244239                         0           
       0.595285           -0.000323267123                         0           
       0.595965           -0.000323288477                         0           
       0.596644           -0.000323310451                         0           
