################################################################################
# EDF_DataBlockID                     0.Image.Psd
# EDF_BinarySize                      2105344
# EDF_HeaderSize                      2560
# ByteOrder                           LowByteFirst
# DataType                            FloatValue
# Dim_1                               512
# Dim_2                               1028
# Image                               0
# HeaderID                            EH:000000:000000:000000
# Size                                2105344
# Center_1                            304.9000
# Center_2                            588.7000
# Comment                             Xenocs_Cell_Window - 20251028_20perc_iodine_1.23mg
# DDummy                              0.6
# Date                                2025-10-29T19:57:32
# Delta                               21.910000
# Dummy                               -1.5
# ExposureTime                        360
# Gamma                               15.360000
# Intensity1                          8.46354e-10
# PSize_1                             7.5e-05
# PSize_2                             7.5e-05
# Pressure                            0.0326128
# SampleDistance                      0.115750
# SampleEnvKind                       large
# SampleEnvPN                         ElectroChemical cell
# SampleEnvSN                         1141
# Thickness                           0
# Wavelength                          1.541891e-10
# Wavelength                          1.54189e-10
# aux                                 0
# aux_dial                            0.002375
# beamx                               588.434
# beamx_dial                          588.434
# beamz                               657.808
# beamz_dial                          657.808
# det0x                               0
# det0x_dial                          6.36945
# det0xvd                             0
# det0xvd_dial                        0
# det0y                               450.002
# det0y_dial                          481.635
# det0z                               0
# det0z_dial                          1.23302
# det0zvd                             0
# det0zvd_dial                        0
# mag                                 1.818
# mag_dial                            1.818
# om                                  0.2499
# om_dial                             -0.610199
# phi                                 -0.0120535
# phi_dial                            0
# ry                                  0.599993
# ry_dial                             0.599993
# s1bot                               0.8
# s1bot_dial                          -1.66094
# s1hl                                0.8
# s1hl_dial                           -0.608437
# s1hr                                0.8
# s1hr_dial                           0.970938
# s1top                               0.8
# s1top_dial                          -0.461562
# s2bot                               0.45
# s2bot_dial                          1.36109
# s2hl                                0.45
# s2hl_dial                           -0.83375
# s2hr                                0.45
# s2hr_dial                           -0.118594
# s2top                               0.45
# s2top_dial                          1.44734
# w2theta                             32
# w2theta_dial                        32
# waxsch                              19.2605
# waxsch_dial                         -32.7355
# waxsh                               137.085
# waxsh_dial                          -43.5338
# waxsth                              26.0607
# waxsth_dial                         -19.4086
# waxsz                               67.0407
# waxsz_dial                          -23.7954
# wind                                65.9854
# wind_dial                           66.0041
# wpsi                                124
# wpsi_dial                           124
# wstod                               115
# wstod_dial                          115
# x                                   0
# x_dial                              1.00969
# z                                   0
# z_dial                              13.3172
# CountCutoff                         6807993
# DetectorModel                       Dectris EIGER2 Si 500K, S/N E-01-0554
# ThresholdSetting                    4023.88989258
# Saturation                          0
# FlatField                           Corrected
# BackgroundReductionExtra            0.02
# BackgroundCorrectionConstant        0.0026712
# Detector                            0
# Monitor                             0
# Pil_Roi0                            0
# SumForIntensity1                    3.04688e+08
# TransmittedFlux                     846354
# det                                 0
# mon                                 0
# pilai0                              3.04688e+08
# pilai1                              770835
# pilct0                              5.27568e+08
# pilct1                              770835
# pilroi0                             0
# pilroi1                             0
# sec                                 1
# title                               20251028_20perc_iodine_1.23mg_1_00269.edf
# usaxs0                              0
# Operation                           Azimuthal average I(q)
# Error_model                         ErrorModel.poisson
# Geometrical_correction              True
# Transmission_correction             True
# Thickness_correction                False
# Binning mode                        Uniform
# Binning factor                      1.0
# Psi                                 0.0
# Omega                               0.2499
# MaskInvalidPixels                   True
# DetectorEdge                        3
# MaskFiles                           ['WAXS_corrected.edf']
################################################################################
    q(A⁻¹)                Intensity(a.u.)            Sigma_I(a.u.)            
       0.693100              0.0167387313             0.00866960502           
       0.695741              0.0027751292             0.00288062925           
       0.698381             0.00845372286             0.00615860886           
       0.701021           -2.39512413e-05                         0           
       0.703662              0.0086605319               0.005086541           
       0.706302             0.00530253035             0.00308140656           
       0.708942             0.00290001889             0.00294122934           
       0.711583             0.00665146528             0.00385720689           
       0.714223             0.00295185799                0.00296662           
       0.716864             0.00505709372             0.00254059521           
       0.719504             0.00895632909              0.0036485294           
       0.722144             0.00636989809             0.00284948181           
       0.724785             0.00798700224             0.00254520609           
       0.727425              0.0163578868              0.0049275915           
       0.730065             0.00733194158             0.00233357527           
       0.732706             0.00570581598             0.00172870122           
       0.735346             0.00441906818             0.00198312698           
       0.737987             0.00829794318             0.00192029287           
       0.740627             0.00775459775             0.00276979969           
       0.743267             0.00666408989             0.00171981332           
       0.745908             0.00997959861             0.00228336924           
       0.748548             0.00708370868             0.00177322722           
       0.751189             0.00807319863             0.00255078227           
       0.753829              0.0129810885             0.00297324866           
       0.756469             0.00616200963             0.00165184849           
       0.759110             0.00782164704             0.00196123063           
       0.761750             0.00879214263              0.0018386014           
       0.764390             0.00457354771             0.00138794512           
       0.767031             0.00816721662             0.00160613441           
       0.769671             0.00787859909             0.00196781375           
       0.772312             0.00741136404             0.00145298093           
       0.774952             0.00880874284             0.00213908244           
       0.777592             0.00826522199             0.00150922854           
       0.780233             0.00564497274             0.00150481268           
       0.782873             0.00621353283             0.00150995307           
       0.785513             0.00879236925             0.00192021954           
       0.788154             0.00703666793             0.00143702831           
       0.790794             0.00711422431             0.00172744651           
       0.793435             0.00609388094             0.00143627642           
       0.796075             0.00628377926             0.00140497201           
       0.798715             0.00653299056             0.00169287921           
       0.801356             0.00580079484             0.00137293388           
       0.803996             0.00471703542             0.00126221447           
       0.806637             0.00619677836               0.001151314           
       0.809277             0.00979610389               0.001566819           
       0.811917             0.00744633225             0.00127702968           
       0.814558             0.00635515119             0.00122614714           
       0.817198             0.00662784721             0.00118962731           
       0.819838             0.00897214783             0.00140082895           
       0.822479             0.00939498609              0.0016832711           
       0.825119             0.00761854698             0.00129013689           
       0.827760             0.00899005892             0.00141962561           
       0.830400              0.0104715717               0.001442028           
       0.833040             0.00741010627             0.00127090661           
       0.835681             0.00704289992                0.00140855           
       0.838321             0.00654257516             0.00113947444           
       0.840961             0.00820573274             0.00139038445           
       0.843602              0.0070894863             0.00118514716           
       0.846242             0.00766109738             0.00123181534           
       0.848883             0.00580547005             0.00109735106           
       0.851523             0.00807754186             0.00127831525           
       0.854163             0.00730474961             0.00129276683           
       0.856804             0.00631168237             0.00108047827           
       0.859444              0.0065423025             0.00107782741           
       0.862085             0.00633643792             0.00110555039           
       0.864725             0.00951934668             0.00138676723           
       0.867365             0.00747377457              0.0011394254           
       0.870006             0.00787928855             0.00111485217           
       0.872646             0.00782303595             0.00116489612           
       0.875286             0.00802693053             0.00113521284           
       0.877927             0.00685257987             0.00101212913           
       0.880567             0.00578135341            0.000963145508           
       0.883208             0.00925364062             0.00120704266           
       0.885848             0.00879999658             0.00122216768           
       0.888488             0.00475424403            0.000842567177           
       0.891129             0.00783272036             0.00111045841           
       0.893769             0.00834252673             0.00109677749           
       0.896410             0.00686990247            0.000927949146           
       0.899050             0.00864224702             0.00114458371           
       0.901690             0.00971948646             0.00132220754           
       0.904331             0.00848324412             0.00109512745           
       0.906971             0.00784015864             0.00112000638           
       0.909611             0.00661170109            0.000936286563           
       0.912252             0.00593376993            0.000916165012           
       0.914892             0.00877714748             0.00121764447           
       0.917533             0.00769753705             0.00107872106           
       0.920173             0.00674766271            0.000937056771           
       0.922813             0.00913933405             0.00114441178           
       0.925454             0.00825690886            0.000979499498           
       0.928094             0.00872509749             0.00107493648           
       0.930734             0.00766725697             0.00108486654           
       0.933375             0.00736497943             0.00105281379           
       0.936015             0.00830842068             0.00101557772           
       0.938656             0.00815659948             0.00107947495           
       0.941296             0.00727269041            0.000923773976           
       0.943936             0.00676706134            0.000873845145           
       0.946577             0.00756873033            0.000918047628           
       0.949217             0.00875190351            0.000907819538           
       0.951858             0.00867329885            0.000946028694           
       0.954498             0.00606940929            0.000916008999           
       0.957138              0.0075592639            0.000968462394           
       0.959779             0.00650546406            0.000885663048           
       0.962419             0.00748356518            0.000943594113           
       0.965059             0.00722958453            0.000975428253           
       0.967700             0.00603733919            0.000912946985           
       0.970340             0.00896063354            0.000984207863           
       0.972981             0.00921187071             0.00090919179           
       0.975621             0.00640771781            0.000806686086           
       0.978261             0.00850444878            0.000883039137           
       0.980902             0.00612665792            0.000896733264           
       0.983542             0.00729987026            0.000866821275           
       0.986182             0.00754385937            0.000865145382           
       0.988823             0.00815680607            0.000873519039           
       0.991463             0.00787858446            0.000915921713           
       0.994104             0.00484853726            0.000700928558           
       0.996744              0.0072725605            0.000875606194           
       0.999384             0.00836222817            0.000839703869           
       1.002025             0.00619901371            0.000806941498           
       1.004665             0.00640537413            0.000749618686           
       1.007306             0.00729158836            0.000795702196           
       1.009946             0.00912931128            0.000908027688           
       1.012586             0.00666996961            0.000755918037           
       1.015227             0.00662783846            0.000809523753           
       1.017867             0.00740842468            0.000822547928           
       1.020507             0.00823308719            0.000839924395           
       1.023148             0.00657524921            0.000809929833           
       1.025788             0.00887380278            0.000862736479           
       1.028429             0.00682488468            0.000792671323           
       1.031069             0.00790787429            0.000802939329           
       1.033709              0.0074526716             0.00082859654           
       1.036350             0.00803385158            0.000772665414           
       1.038990             0.00843076335            0.000806067367           
       1.041630             0.00728841892            0.000781705324           
       1.044271             0.00904039538            0.000818770423           
       1.046911             0.00812069618            0.000816257055           
       1.049552              0.0096084584            0.000932836823           
       1.052192             0.00839711912             0.00079629695           
       1.054832             0.00783945515            0.000776400286           
       1.057473             0.00844970747            0.000794598052           
       1.060113             0.00816498133            0.000761780722           
       1.062754              0.0085810264            0.000797333922           
       1.065394              0.0076253541            0.000794660847           
       1.068034             0.00747835445            0.000716029273           
       1.070675             0.00836491992            0.000789940011           
       1.073315             0.00899336498            0.000830816617           
       1.075955             0.00724187897             0.00070383035           
       1.078596             0.00834097391             0.00080279183           
       1.081236             0.00835146519            0.000769208869           
       1.083877             0.00932047549            0.000805320037           
       1.086517             0.00800754676            0.000800410063           
       1.089157             0.00947230803            0.000903286883           
       1.091798             0.00740504767            0.000700198051           
       1.094438             0.00795608557            0.000723440322           
       1.097078             0.00928386629            0.000749520559           
       1.099719             0.00791114161            0.000748387641           
       1.102359             0.00894435195            0.000745237664           
       1.105000              0.0100161039            0.000881834866           
       1.107640             0.00829483087            0.000767314455           
       1.110280             0.00977919533            0.000760182285           
       1.112921             0.00981411831            0.000818056947           
       1.115561             0.00920058606            0.000752799813           
       1.118202             0.00839864568            0.000719921952           
       1.120842             0.00824354017            0.000749623266           
       1.123482             0.00918137168            0.000787660331           
       1.126123             0.00869124706            0.000735056486           
       1.128763             0.00913163147            0.000758614874           
       1.131403             0.00900549489            0.000725924209           
       1.134044             0.00873476333            0.000735663929           
       1.136684             0.00838210954            0.000768348766           
       1.139325             0.00843244959            0.000709924244           
       1.141965             0.00937760307            0.000753603099           
       1.144605             0.00770780896             0.00065145477           
       1.147246             0.00990794689            0.000755895524           
       1.149886             0.00790079688            0.000672606287           
       1.152527             0.00929706665             0.00074023306           
       1.155167             0.00884369922            0.000686692895           
       1.157807             0.00906153707            0.000745269703           
       1.160448             0.00913579763            0.000730750969           
       1.163088             0.00796780089            0.000650948725           
       1.165728             0.00941660382            0.000726567975           
       1.168369             0.00985908507              0.0007503109           
       1.171009             0.00854209492            0.000677779683           
       1.173650              0.0105902578            0.000774475868           
       1.176290             0.00853973729            0.000679627822           
       1.178930             0.00805094226            0.000646753327           
       1.181571             0.00972921247            0.000725073605           
       1.184211             0.00924107669            0.000709155769           
       1.186851             0.00925606274            0.000693893327           
       1.189492             0.00982567769            0.000710115883           
       1.192132             0.00968023971            0.000696932457           
       1.194773             0.00834919544            0.000650074844           
       1.197413              0.0104649708            0.000697332239           
       1.200053              0.0088419517            0.000657266814           
       1.202694              0.0105614461              0.0006830991           
       1.205334              0.0112274977            0.000759025133           
       1.207975              0.0100320413            0.000684854146           
       1.210615              0.0096605883            0.000741391543           
       1.213255             0.00954150959            0.000659794685           
       1.215896               0.011219188             0.00072841607           
       1.218536              0.0104124854            0.000674752693           
       1.221176              0.0100205772            0.000719656581           
       1.223817             0.00992077863            0.000672181384           
       1.226457                0.01121805            0.000729179981           
       1.229098             0.00905217005            0.000654984836           
       1.231738             0.00990513781            0.000688521256           
       1.234378             0.00864003061            0.000604242109           
       1.237019             0.00931971418             0.00064669373           
       1.239659             0.00974848578            0.000655641171           
       1.242299              0.0104981705            0.000671740178           
       1.244940               0.010673017            0.000658727391           
       1.247580              0.0116175166            0.000708273887           
       1.250221             0.00975281251            0.000644943189           
       1.252861              0.0100718665            0.000623951227           
       1.255501              0.0106625398            0.000697074793           
       1.258142              0.0104924389            0.000649780964           
       1.260782             0.00919000319             0.00062127419           
       1.263423             0.00965647287            0.000611937424           
       1.266063             0.00969044286             0.00062832058           
       1.268703             0.00972427244            0.000624193434           
       1.271344              0.0106602018            0.000675690776           
       1.273984              0.0104553813            0.000646284356           
       1.276624              0.0111465279            0.000654767339           
       1.279265             0.00850555607            0.000581462178           
       1.281905              0.0103727074            0.000644969798           
       1.284546              0.0111961263            0.000647693912           
       1.287186              0.0101321898            0.000604510099           
       1.289826              0.0105738759             0.00065084246           
       1.292467               0.010230489            0.000626086528           
       1.295107              0.0100652018            0.000614839453           
       1.297747              0.0108370527            0.000610492483           
       1.300388              0.0110202458            0.000671115335           
       1.303028              0.0097530779            0.000602727635           
       1.305669              0.0107220644             0.00064700736           
       1.308309              0.0103622135            0.000629793688           
       1.310949             0.00982954184             0.00061277636           
       1.313590              0.0112105426            0.000633952061           
       1.316230              0.0110850095            0.000672716486           
       1.318871              0.0100471707            0.000627243144           
       1.321511             0.00997128704            0.000613287815           
       1.324151              0.0101050662            0.000599084888           
       1.326792              0.0107867117            0.000622787713           
       1.329432              0.0107244585            0.000616605778           
       1.332072              0.0112091475            0.000620990801           
       1.334713              0.0110497253            0.000636350039           
       1.337353              0.0107335417            0.000601477654           
       1.339994              0.0110815782            0.000641342468           
       1.342634              0.0108846109            0.000609516981           
       1.345274              0.0114671331            0.000647452183           
       1.347915              0.0106584454            0.000606967603           
       1.350555              0.0105955557            0.000615773186           
       1.353195              0.0109923513            0.000630277812           
       1.355836              0.0124949793            0.000661498906           
       1.358476              0.0105626407            0.000590656168           
       1.361117              0.0103516538            0.000585529894           
       1.363757              0.0106022675            0.000610669372           
       1.366397               0.010284865            0.000583258162           
       1.369038              0.0116708243            0.000627502228           
       1.371678              0.0113564961            0.000613537262           
       1.374319              0.0113311489            0.000607575004           
       1.376959              0.0103103376            0.000573732904           
       1.379599              0.0115083209            0.000649608027           
       1.382240              0.0108160995            0.000591887585           
       1.384880               0.011625824            0.000649987342           
       1.387520               0.010755894             0.00059376806           
       1.390161              0.0109288983             0.00056845428           
       1.392801              0.0112838405            0.000601815174           
       1.395442              0.0105617855            0.000590193827           
       1.398082              0.0114734354            0.000576050162           
       1.400722              0.0110869073            0.000593148294           
       1.403363              0.0117295226            0.000642200267           
       1.406003              0.0106121695             0.00057167069           
       1.408644              0.0113033975            0.000618058133           
       1.411284              0.0106317987            0.000567593598           
       1.413924              0.0109296038            0.000573354584           
       1.416565              0.0113051756            0.000580831843           
       1.419205              0.0117116159            0.000616695695           
       1.421845              0.0107055367            0.000589266353           
       1.424486              0.0118219859            0.000595223263           
       1.427126              0.0105758127            0.000584825444           
       1.429767              0.0121083067            0.000588768556           
       1.432407              0.0109049562            0.000584741331           
       1.435047              0.0113282804            0.000559726895           
       1.437688              0.0102046941            0.000539187202           
       1.440328              0.0108236336            0.000566743956           
       1.442968              0.0107829902             0.00057835323           
       1.445609                0.01068733            0.000557516763           
       1.448249             0.00976796682            0.000546492935           
       1.450890               0.010369083            0.000559382306           
       1.453530              0.0114050209            0.000613764517           
       1.456170              0.0101249432            0.000561249631           
       1.458811              0.0118015682            0.000579412726           
       1.461451              0.0100807447            0.000536910934           
       1.464092              0.0109145967            0.000562328227           
       1.466732              0.0113141979             0.00056760968           
       1.469372              0.0106706987            0.000538331375           
       1.472013             0.00988833338            0.000558911454           
       1.474653              0.0107241016            0.000573073285           
       1.477293              0.0109186156            0.000590434659           
       1.479934              0.0107256052            0.000558396161           
       1.482574              0.0107140318            0.000539869536           
       1.485215              0.0106296023            0.000547753666           
       1.487855              0.0110908574            0.000566892807           
       1.490495              0.0111749152            0.000566941285           
       1.493136             0.00997339987             0.00052825496           
       1.495776              0.0100581219            0.000528078411           
       1.498416              0.0108681874            0.000566891464           
       1.501057               0.010878053            0.000554649586           
       1.503697              0.0107275629            0.000538494499           
       1.506338              0.0103617834            0.000538905273           
       1.508978              0.0104617411            0.000536173123           
       1.511618              0.0101138897            0.000561448313           
       1.514259              0.0106022962             0.00055498577           
       1.516899             0.00992270392            0.000522766826           
       1.519540              0.0102074891            0.000538765678           
       1.522180              0.0103239762            0.000546590844           
       1.524820              0.0103381563            0.000543897353           
       1.527461              0.0102788717            0.000545017825           
       1.530101              0.0097457369             0.00052538788           
       1.532741             0.00986041021            0.000525402922           
       1.535382              0.0112438497            0.000570083453           
       1.538022             0.00996567052            0.000505602823           
       1.540663              0.0106442513            0.000562016593           
       1.543303             0.00965428733             0.00049698265           
       1.545943              0.0106328426            0.000552034699           
       1.548584              0.0098860681            0.000541851393           
       1.551224              0.0102587652            0.000510348976           
       1.553864              0.0109141934            0.000556239509           
       1.556505             0.00956705861            0.000503088041           
       1.559145              0.0109588686            0.000545036241           
       1.561786             0.00995967235            0.000519995268           
       1.564426              0.0110604946            0.000530934866           
       1.567066              0.0105012667            0.000542071439           
       1.569707              0.0100202642            0.000519999653           
       1.572347              0.0096063829            0.000526000026           
       1.574988              0.0092853599             0.00049222724           
       1.577628              0.0092447821            0.000512148895           
       1.580268              0.0106259259            0.000531994736           
       1.582909              0.0102223385            0.000553080878           
       1.585549             0.00934360711            0.000513423487           
       1.588189             0.00924619172            0.000499592932           
       1.590830             0.00916760525            0.000496840925           
       1.593470             0.00941428258            0.000523416701           
       1.596111              0.0088343736            0.000495028121           
       1.598751             0.00893869684             0.00048248948           
       1.601391             0.00856602662             0.00048274526           
       1.604032             0.00937857772             0.00051568227           
       1.606672             0.00928975598            0.000498656064           
       1.609312             0.00902336869            0.000513021006           
       1.611953              0.0090480228            0.000502708393           
       1.614593             0.00983383243            0.000514084654           
       1.617234             0.00933223595             0.00051901959           
       1.619874              0.0093655572            0.000517891441           
       1.622514             0.00937233691            0.000511011499           
       1.625155             0.00841895022            0.000487184813           
       1.627795             0.00872620947            0.000483842556           
       1.630436             0.00942026732            0.000500091159           
       1.633076              0.0101538268            0.000526006797           
       1.635716             0.00869064479            0.000479062424           
       1.638357             0.00956408392            0.000503884529           
       1.640997             0.00851625784            0.000489884926           
       1.643637             0.00905643925            0.000491599645           
       1.646278             0.00912122097               0.000508856           
       1.648918             0.00876618672              0.0005002152           
       1.651559             0.00811402991            0.000484984191           
       1.654199             0.00936600535            0.000506775156           
       1.656839             0.00902775699            0.000497713724           
       1.659480             0.00965959026            0.000534169216           
       1.662120             0.00933030497            0.000494449986           
       1.664761             0.00874429792            0.000497215394           
       1.667401             0.00849506765            0.000468409965           
       1.670041             0.00854186525            0.000476860221           
       1.672682             0.00854807797            0.000475072916           
       1.675322             0.00948714512            0.000497269778           
       1.677962             0.00920081418            0.000484306143           
       1.680603             0.00859815176            0.000469616969           
       1.683243             0.00826074488            0.000480248107           
       1.685884             0.00831286917            0.000485318508           
       1.688524             0.00806508467            0.000468790364           
       1.691164             0.00961958317            0.000512095429           
       1.693805             0.00811971247            0.000475650524           
       1.696445             0.00932574911            0.000512709611           
       1.699085             0.00893064476            0.000484919014           
       1.701726             0.00793989041            0.000440461635           
       1.704366             0.00814270184            0.000469903129           
       1.707007             0.00876452421             0.00047664805           
       1.709647             0.00891310116            0.000486099421           
       1.712287             0.00909547745            0.000495321621           
       1.714928             0.00877440749            0.000490423118           
       1.717568             0.00938416767            0.000477763146           
       1.720209             0.00887751367            0.000486727309           
       1.722849             0.00782826464            0.000454709762           
       1.725489             0.00838962336            0.000471126226           
       1.728130             0.00809592593            0.000491833462           
       1.730770             0.00808487944            0.000466790823           
       1.733410              0.0086139368            0.000474247952           
       1.736051             0.00905640538            0.000489660381           
       1.738691             0.00840593347            0.000462184999           
       1.741332             0.00847641761             0.00047768981           
       1.743972             0.00869906917              0.0004997326           
       1.746612             0.00923972026            0.000494558018           
       1.749253             0.00843883421            0.000481972313           
       1.751893             0.00791760387            0.000463423648           
       1.754533             0.00895983205            0.000492521816           
       1.757174             0.00838991309            0.000472137135           
       1.759814             0.00904847984            0.000482885068           
       1.762455             0.00827697637             0.00047032066           
       1.765095             0.00801882941            0.000442847156           
       1.767735             0.00873775697            0.000476533922           
       1.770376             0.00919702443            0.000490186023           
       1.773016             0.00920010027            0.000486984037           
       1.775657             0.00793573092            0.000445776956           
       1.778297             0.00779602952            0.000438031192           
       1.780937             0.00850074612            0.000482786271           
       1.783578             0.00916796911            0.000488838821           
       1.786218              0.0090763901            0.000507602414           
       1.788858              0.0078345611             0.00044790687           
       1.791499             0.00859363999            0.000463835345           
       1.794139             0.00935772377            0.000480089811           
       1.796780             0.00963955593            0.000484916695           
       1.799420             0.00947131725            0.000478004642           
       1.802060             0.00876216874            0.000463475267           
       1.804701             0.00959219583            0.000465361669           
       1.807341             0.00937174552            0.000483342142           
       1.809981             0.00916116729            0.000479474342           
       1.812622             0.00939380319            0.000476782984           
       1.815262             0.00930652107            0.000484643618           
       1.817903             0.00776645921            0.000436171529           
       1.820543             0.00810663818            0.000452565329           
       1.823183             0.00837379159            0.000459709142           
       1.825824             0.00906831609            0.000457037899           
       1.828464             0.00871614188            0.000467137905           
       1.831105             0.00855523023             0.00045001023           
       1.833745              0.0103208134            0.000504825234           
       1.836385             0.00860778039            0.000474187619           
       1.839026             0.00843311789            0.000467869143           
       1.841666             0.00865566629            0.000472321653           
       1.844306             0.00858718325            0.000457613011           
       1.846947              0.0091697758             0.00047702669           
       1.849587             0.00899002262            0.000521564639           
       1.852228             0.00860393962            0.000461385445           
       1.854868             0.00947619337            0.000511494386           
       1.857508             0.00910924806            0.000496574755           
       1.860149             0.00887732904            0.000499119133           
       1.862789             0.00825790187            0.000464653592           
       1.865429             0.00870834338             0.00049807995           
       1.868070             0.00893106509            0.000497686213           
       1.870710              0.0088388053            0.000483694408           
       1.873351             0.00844373513             0.00047860534           
       1.875991             0.00930089112             0.00051050862           
       1.878631             0.00842387232            0.000476538843           
       1.881272             0.00890353891            0.000486635807           
       1.883912              0.0086371535            0.000498812607           
       1.886553               0.008286635            0.000483123812           
       1.889193             0.00918944974            0.000507892025           
       1.891833             0.00940289972            0.000533556422           
       1.894474             0.00889041919            0.000514294328           
       1.897114             0.00906153714            0.000502438518           
       1.899754                0.00884041            0.000498346628           
       1.902395             0.00802062747            0.000465397894           
       1.905035             0.00829085707            0.000501169512           
       1.907676             0.00914547996            0.000496101907           
       1.910316             0.00881754954            0.000500060359           
       1.912956             0.00843158838            0.000478235679           
       1.915597              0.0092375847            0.000503369558           
       1.918237             0.00865797364            0.000503284868           
       1.920878             0.00936960052            0.000521416516           
       1.923518             0.00871020897            0.000502947627           
       1.926158             0.00851284517            0.000490764731           
       1.928799             0.00869912204            0.000490362543           
       1.931439             0.00889555763            0.000508874208           
       1.934079             0.00995868376            0.000561294305           
       1.936720             0.00793355825            0.000464176033           
       1.939360             0.00908664242            0.000529978293           
       1.942001             0.00843026542            0.000467879196           
       1.944641             0.00915075187            0.000497064748           
       1.947281             0.00890319006            0.000485775631           
       1.949922             0.00792813361            0.000473490766           
       1.952562             0.00811508791            0.000494056796           
       1.955202             0.00788701181            0.000486470821           
       1.957843             0.00830501604            0.000486250065           
       1.960483             0.00889426884            0.000526099684           
       1.963124             0.00855091626             0.00050526224           
       1.965764             0.00804157763            0.000462067837           
       1.968404             0.00872780142            0.000476831182           
       1.971045             0.00936626362            0.000503622398           
       1.973685              0.0084061572            0.000500455173           
       1.976326             0.00799639695               0.000481397           
       1.978966             0.00832584471            0.000495524391           
       1.981606             0.00722265253            0.000471154755           
       1.984247             0.00831252768            0.000502131038           
       1.986887             0.00777473129            0.000479799131           
       1.989527              0.0079622742            0.000480322439           
       1.992168             0.00838276727            0.000511365703           
       1.994808             0.00841087669            0.000510026669           
       1.997449             0.00844780639            0.000500647985           
       2.000089             0.00851476069            0.000500635293           
       2.002729              0.0078068041            0.000479658533           
       2.005370             0.00861581455            0.000498477441           
       2.008010             0.00834897167            0.000512113162           
       2.010650             0.00848294914            0.000520057638           
       2.013291             0.00859099757            0.000502134164           
       2.015931             0.00762428681            0.000469695827           
       2.018572             0.00740687859            0.000495169504           
       2.021212             0.00749957604            0.000489306333           
       2.023852             0.00667831369            0.000437013539           
       2.026493             0.00788537725            0.000496083903           
       2.029133             0.00897851852            0.000518701309           
       2.031774             0.00792869915            0.000511551331           
       2.034414             0.00822212136            0.000479328874           
       2.037054             0.00804755646            0.000486232977           
       2.039695             0.00822041293            0.000487715688           
       2.042335             0.00754855029            0.000485689803           
       2.044975             0.00769201955            0.000484337839           
       2.047616             0.00836490497             0.00050382366           
       2.050256               0.007691208            0.000487681159           
       2.052897             0.00733538883            0.000485047011           
       2.055537              0.0081158952             0.00049308893           
       2.058177             0.00786288846            0.000475280931           
       2.060818             0.00707456848             0.00047227554           
       2.063458             0.00714552283            0.000494619916           
       2.066098             0.00886462619            0.000519697645           
       2.068739             0.00803620045            0.000502509938           
       2.071379             0.00779475929            0.000507810863           
       2.074020             0.00743638833            0.000485220525           
       2.076660             0.00777592593            0.000500185263           
       2.079300             0.00885393634            0.000546809242           
       2.081941             0.00812186577             0.00047952134           
       2.084581             0.00791413208            0.000499624741           
       2.087222             0.00777052689            0.000477448702           
       2.089862             0.00873130785            0.000551226211           
       2.092502             0.00748457154            0.000494717805           
       2.095143             0.00752728833            0.000512325898           
       2.097783              0.0090868878            0.000544986174           
       2.100423             0.00801200985             0.00049310777           
       2.103064              0.0080316615            0.000512292693           
       2.105704             0.00795275799            0.000507245063           
       2.108345             0.00837145595            0.000499990753           
       2.110985             0.00749826505            0.000505408504           
       2.113625             0.00770722892            0.000516874004           
       2.116266             0.00852607661            0.000551351411           
       2.118906             0.00747149284            0.000481002543           
       2.121546             0.00746173639            0.000471510567           
       2.124187             0.00751514066             0.00049670848           
       2.126827             0.00748380915            0.000501204048           
       2.129468             0.00790991306            0.000516591187           
       2.132108             0.00750430918              0.0004895481           
       2.134748              0.0073448336            0.000482439374           
       2.137389             0.00789168051            0.000521704084           
       2.140029             0.00804948667            0.000471708024           
       2.142670             0.00837492124            0.000514214243           
       2.145310             0.00708455822            0.000460325295           
       2.147950             0.00754096455            0.000488823726           
       2.150591             0.00761744565            0.000486331247           
       2.153231             0.00750035628            0.000496740075           
       2.155871              0.0082212271            0.000502416159           
       2.158512             0.00758516255            0.000503547753           
       2.161152             0.00708520555            0.000471418781           
       2.163793             0.00811515159             0.00050224938           
       2.166433              0.0077010048             0.00050242435           
       2.169073             0.00762698662            0.000488872208           
       2.171714             0.00808828423            0.000499675787           
       2.174354              0.0072487504            0.000494276059           
       2.176995             0.00755965985             0.00050264095           
       2.179635             0.00789407368              0.0005427693           
       2.182275             0.00827143228            0.000524565876           
       2.184916             0.00668648076            0.000455540722           
       2.187556             0.00644383988            0.000442716743           
       2.190196             0.00734184225             0.00049381786           
       2.192837             0.00713724197            0.000484239386           
       2.195477             0.00658783864            0.000443540184           
       2.198118             0.00864943248            0.000521246656           
       2.200758             0.00711549492            0.000485035693           
       2.203398             0.00706092934            0.000486263376           
       2.206039             0.00718636218            0.000464276765           
       2.208679             0.00737146223            0.000481161249           
       2.211319             0.00676151131             0.00046348177           
       2.213960             0.00728799215            0.000487635034           
       2.216600             0.00743944451              0.0005096621           
       2.219241             0.00698468407            0.000471976732           
       2.221881             0.00666212138            0.000461897376           
       2.224521              0.0087036159            0.000534414851           
       2.227162             0.00662120334            0.000456786543           
       2.229802             0.00791452581            0.000515043582           
       2.232443             0.00711064905            0.000480486807           
       2.235083             0.00698949179            0.000490427532           
       2.237723             0.00760523042            0.000490929264           
       2.240364             0.00766162958            0.000504885398           
       2.243004             0.00651476451            0.000461849977           
       2.245644             0.00698986142             0.00048318259           
       2.248285             0.00737943776            0.000486519331           
       2.250925              0.0086804312            0.000530871362           
       2.253566             0.00764196695            0.000532512774           
       2.256206             0.00763314401              0.0005215638           
       2.258846             0.00714023304            0.000479864616           
       2.261487              0.0069362136            0.000496414652           
       2.264127             0.00722904493            0.000489445013           
       2.266767             0.00667369728             0.00048279864           
       2.269408             0.00775183544            0.000522468213           
       2.272048              0.0070945734             0.00049684465           
       2.274689              0.0071478365            0.000505277331           
       2.277329             0.00741230173            0.000484472471           
       2.279969             0.00747338001             0.00051781353           
       2.282610             0.00722394326            0.000494939318           
       2.285250             0.00702421083            0.000467129358           
       2.287891             0.00732251522            0.000511357329           
       2.290531             0.00741700979            0.000521564428           
       2.293171             0.00725594061            0.000502504172           
       2.295812              0.0078017898            0.000518968144           
       2.298452             0.00747632788            0.000531262401           
       2.301092             0.00710107117             0.00048106083           
       2.303733             0.00695651562            0.000495351108           
       2.306373             0.00797822568            0.000538836003           
       2.309014             0.00716828496            0.000500789537           
       2.311654             0.00754707805            0.000536227696           
       2.314294             0.00640493534            0.000455113802           
       2.316935             0.00750330022            0.000494628744           
       2.319575              0.0077371636            0.000526270997           
       2.322215              0.0072324853            0.000530274082           
       2.324856             0.00687387378            0.000475291606           
       2.327496             0.00697479424            0.000509080669           
       2.330137             0.00714045707            0.000492903497           
       2.332777             0.00857112285            0.000556828334           
       2.335417             0.00688184044            0.000484053582           
       2.338058             0.00620946137            0.000473534291           
       2.340698             0.00692326277            0.000496082072           
       2.343339             0.00724005128            0.000518468485           
       2.345979             0.00762089691            0.000503248205           
       2.348619             0.00778986482            0.000527394878           
       2.351260             0.00670665235             0.00048650369           
       2.353900             0.00705560008            0.000497418898           
       2.356540             0.00705499048            0.000496691342           
       2.359181             0.00799129755            0.000521213135           
       2.361821             0.00733208931            0.000482264971           
       2.364462             0.00631180011            0.000467980972           
       2.367102             0.00770104698            0.000531221813           
       2.369742             0.00719373437            0.000540416767           
       2.372383             0.00628705785            0.000457469998           
       2.375023             0.00707352116            0.000510092532           
       2.377663             0.00713053451            0.000489684967           
       2.380304             0.00716295635             0.00049898043           
       2.382944             0.00675062915            0.000461381353           
       2.385585             0.00688101803            0.000496800631           
       2.388225             0.00671309451            0.000488395475           
       2.390865             0.00643613875            0.000473302399           
       2.393506             0.00655946277            0.000468800852           
       2.396146             0.00678831199            0.000515655097           
       2.398787             0.00621249048             0.00045461441           
       2.401427             0.00764434283            0.000486756167           
       2.404067             0.00679696478            0.000469223368           
       2.406708             0.00728562083            0.000479972141           
       2.409348             0.00744350766            0.000514591188           
       2.411988             0.00700586301            0.000489139096           
       2.414629             0.00726641366            0.000513666054           
       2.417269             0.00751285117            0.000528401857           
       2.419910             0.00739401289            0.000525422463           
       2.422550             0.00656653066            0.000473728705           
       2.425190             0.00768029514            0.000540050415           
       2.427831             0.00766668001            0.000536538399           
       2.430471             0.00689210826            0.000484647789           
       2.433112             0.00734574905            0.000487215272           
       2.435752             0.00722325968            0.000511308802           
       2.438392             0.00737428373            0.000498650025           
       2.441033             0.00686153173            0.000509764943           
       2.443673             0.00743948144            0.000531207879           
       2.446313             0.00737056382            0.000529207849           
       2.448954             0.00671302605            0.000480878988           
       2.451594             0.00763578784            0.000551450351           
       2.454235              0.0068324947            0.000489429539           
       2.456875             0.00700658768            0.000518602108           
       2.459515             0.00751160226            0.000550867259           
       2.462156             0.00854135167            0.000554600213           
       2.464796             0.00776221898            0.000521879335           
       2.467436             0.00786641925            0.000543294822           
       2.470077             0.00807885305            0.000521851642           
       2.472717             0.00812199193            0.000525509638           
       2.475358             0.00790527956            0.000523857294           
       2.477998             0.00821907804            0.000525148257           
       2.480638             0.00763264472              0.0005150592           
       2.483279             0.00660031125            0.000500592536           
       2.485919              0.0068595133            0.000491817045           
       2.488560             0.00728587958            0.000505455277           
       2.491200             0.00819454097            0.000551988252           
       2.493840             0.00669814132            0.000528060998           
       2.496481             0.00667435941            0.000518500141           
       2.499121             0.00681632228            0.000509659434           
       2.501761             0.00793922643            0.000557327539           
       2.504402             0.00733736702            0.000527958402           
       2.507042             0.00685119911            0.000506388322           
       2.509683             0.00710982241            0.000507973409           
       2.512323             0.00663161903            0.000515244579           
       2.514963             0.00724545104            0.000531909152           
       2.517604             0.00596778954            0.000500914929           
       2.520244             0.00679558584            0.000501121229           
       2.522884             0.00728643106            0.000526324529           
       2.525525             0.00745725762            0.000538501995           
       2.528165             0.00730056739             0.00052450917           
       2.530806             0.00733165912            0.000534786642           
       2.533446             0.00746575845            0.000528136643           
       2.536086             0.00707245856             0.00050943636           
       2.538727             0.00691666397            0.000483313855           
       2.541367             0.00808524277            0.000527696863           
       2.544008             0.00660813939            0.000492691715           
       2.546648             0.00665493515            0.000502914002           
       2.549288             0.00618652847            0.000494772423           
       2.551929             0.00665114935            0.000504837767           
       2.554569              0.0077799126            0.000526023124           
       2.557209             0.00706517789            0.000505882071           
       2.559850             0.00713044246            0.000509845222           
       2.562490             0.00700001441            0.000522110738           
       2.565131             0.00821258806            0.000586363633           
       2.567771             0.00696967897            0.000520808501           
       2.570411             0.00617186497            0.000484791806           
       2.573052             0.00683679827            0.000516664505           
       2.575692             0.00716591692             0.00052575119           
       2.578332             0.00677580201               0.000513354           
       2.580973             0.00623301061            0.000487678462           
       2.583613             0.00759013148            0.000525343338           
       2.586254              0.0063092516            0.000478303454           
       2.588894             0.00797839005            0.000558545768           
       2.591534              0.0062417841            0.000511416324           
       2.594175              0.0070174503            0.000532030097           
       2.596815             0.00702589534               0.000535489           
       2.599456             0.00685771675            0.000501687305           
       2.602096             0.00651287288            0.000492631579           
       2.604736             0.00545250295             0.00046143632           
       2.607377             0.00692151457             0.00050619261           
       2.610017             0.00664672204            0.000487362049           
       2.612657             0.00593231334            0.000489732646           
       2.615298             0.00647488817            0.000499520056           
       2.617938              0.0075863544            0.000578406807           
       2.620579             0.00796915789             0.00056910146           
       2.623219             0.00761579782            0.000555548104           
       2.625859             0.00720249653            0.000525287502           
       2.628500             0.00777109712            0.000542051697           
       2.631140             0.00643968368            0.000501040135           
       2.633780             0.00798529736            0.000557452784           
       2.636421             0.00640338539            0.000511467787           
       2.639061             0.00687282816            0.000498825344           
       2.641702              0.0077250135            0.000541090566           
       2.644342              0.0073705485            0.000530782784           
       2.646982             0.00679247045            0.000501925407           
       2.649623             0.00733421368            0.000546571173           
       2.652263             0.00693774568            0.000526258336           
       2.654904             0.00809052069            0.000568872227           
       2.657544             0.00642141955            0.000477358981           
       2.660184             0.00630806077            0.000500705883           
       2.662825             0.00798505496            0.000576413544           
       2.665465             0.00653926399            0.000504498754           
       2.668105             0.00695666392            0.000548469625           
       2.670746             0.00655881008              0.0004919674           
       2.673386             0.00920695567            0.000600708261           
       2.676027             0.00995332778            0.000614558283           
       2.678667             0.00940534964            0.000582914639           
       2.681307              0.0115038055            0.000633426099           
       2.683948              0.0117691913            0.000658280119           
       2.686588              0.0106942186            0.000617091273           
       2.689229              0.0095005005            0.000568346511           
       2.691869              0.0105440582            0.000632816775           
       2.694509             0.00975307455            0.000608952519           
       2.697150             0.00694994197            0.000505707588           
       2.699790             0.00727255016             0.00054232693           
       2.702430              0.0069495935            0.000506758205           
       2.705071             0.00712970703            0.000530381171           
       2.707711              0.0073580652            0.000522953586           
       2.710352             0.00609759055            0.000503015544           
       2.712992             0.00606030107            0.000510747391           
       2.715632             0.00685647104            0.000504039414           
       2.718273             0.00648340041            0.000507958824           
       2.720913             0.00758642054            0.000547908544           
       2.723553             0.00633651035            0.000504102513           
       2.726194             0.00670620636            0.000542107607           
       2.728834             0.00693195256            0.000551414961           
       2.731475             0.00857924514            0.000566155504           
       2.734115             0.00670250625            0.000515944989           
       2.736755             0.00767402666            0.000556616912           
       2.739396             0.00636846057             0.00050412522           
       2.742036             0.00629642298            0.000524606565           
       2.744677             0.00702545107             0.00053767398           
       2.747317              0.0074475669            0.000549643615           
       2.749957             0.00636306914            0.000511616404           
       2.752598             0.00760477306            0.000565382135           
       2.755238             0.00717962472            0.000559267903           
       2.757878             0.00748659882            0.000566105619           
       2.760519             0.00753346059            0.000561853296           
       2.763159              0.0084455942            0.000588950693           
       2.765800             0.00731427199            0.000522318222           
       2.768440             0.00744516309            0.000530853155           
       2.771080             0.00975941001            0.000612856973           
       2.773721             0.00719821963            0.000539909524           
       2.776361             0.00639578461            0.000515947991           
       2.779001             0.00628219039            0.000529550222           
       2.781642             0.00712500722            0.000559798683           
       2.784282             0.00682783835            0.000557011633           
       2.786923             0.00924999075            0.000654034163           
       2.789563              0.0058164373            0.000499502382           
       2.792203             0.00668994181             0.00051174478           
       2.794844             0.00713853237            0.000579363057           
       2.797484             0.00672061366            0.000530530717           
       2.800125             0.00675593437            0.000559317236           
       2.802765             0.00692019524             0.00055633748           
       2.805405             0.00679099971             0.00055298511           
       2.808046             0.00739886084            0.000587350537           
       2.810686             0.00640450662            0.000502132501           
       2.813326             0.00726858243            0.000555648985           
       2.815967             0.00668752555            0.000548130978           
       2.818607             0.00707514549            0.000538012619           
       2.821248             0.00654162229            0.000506589561           
       2.823888             0.00776719211              0.0005729985           
       2.826528             0.00636340939             0.00050227766           
       2.829169             0.00751900596            0.000571886622           
       2.831809             0.00701115941             0.00055974752           
       2.834449             0.00700338052            0.000562972391           
       2.837090             0.00645146767             0.00052187719           
       2.839730             0.00651978204            0.000522071496           
       2.842371             0.00666656882            0.000528677672           
       2.845011             0.00715262372            0.000551976397           
       2.847651             0.00701170138            0.000547182975           
       2.850292              0.0067072432            0.000540423646           
       2.852932             0.00673365807            0.000553287571           
       2.855573             0.00744016145            0.000564158224           
       2.858213              0.0070391697            0.000576248648           
       2.860853             0.00708786744            0.000537894636           
       2.863494             0.00715985184            0.000559735716           
       2.866134             0.00716800352            0.000582106984           
       2.868774             0.00767280258            0.000591893628           
       2.871415             0.00634714288            0.000546724346           
       2.874055             0.00671383234            0.000537484473           
       2.876696             0.00667313168            0.000550346891           
       2.879336             0.00616193337            0.000509706976           
       2.881976             0.00653902219            0.000541575101           
       2.884617             0.00760819656            0.000575595738           
       2.887257             0.00663995317             0.00054049924           
       2.889897             0.00802026374            0.000581802302           
       2.892538             0.00662466646            0.000579264544           
       2.895178             0.00657201002            0.000521242925           
       2.897819              0.0061459391            0.000514192869           
       2.900459             0.00620770461            0.000506717366           
       2.903099             0.00586859849            0.000487639707           
       2.905740             0.00690237732              0.0005425309           
       2.908380             0.00691908158            0.000549358849           
       2.911021             0.00653202551            0.000542450329           
       2.913661             0.00723853071             0.00057086198           
       2.916301             0.00731252212            0.000574319377           
       2.918942             0.00614312177            0.000503512869           
       2.921582             0.00660423664             0.00054623385           
       2.924222             0.00848354184            0.000599782058           
       2.926863             0.00768859837            0.000594751925           
       2.929503             0.00748515004            0.000593782723           
       2.932144             0.00707593489            0.000554195228           
       2.934784             0.00705885017            0.000544449539           
       2.937424             0.00647696629            0.000526881021           
       2.940065             0.00797008587             0.00055752404           
       2.942705              0.0077893985            0.000550476593           
       2.945346             0.00741540645             0.00056999801           
       2.947986             0.00752540911             0.00058549571           
       2.950626             0.00711767345            0.000566207408           
       2.953267               0.007407381            0.000568282804           
       2.955907              0.0064200503            0.000548822569           
       2.958547             0.00625820943            0.000511544465           
       2.961188             0.00668847897            0.000551724893           
       2.963828             0.00723512411            0.000561310059           
       2.966469              0.0072590647            0.000551553495           
       2.969109             0.00708738986            0.000553067324           
       2.971749             0.00682384323             0.00053930146           
       2.974390             0.00712854014            0.000541665053           
       2.977030             0.00736560188            0.000562902896           
       2.979670             0.00756589161            0.000554925916           
       2.982311             0.00921690675            0.000634812938           
       2.984951             0.00752236691            0.000545445196           
       2.987592              0.0067570472            0.000527308697           
       2.990232             0.00613486655            0.000522537976           
       2.992872             0.00730342973            0.000537036215           
       2.995513             0.00959813745            0.000602307988           
       2.998153              0.0129572708             0.00071157059           
       3.000794              0.0126503246            0.000681016674           
       3.003434              0.0110575155            0.000637662571           
       3.006074              0.0394359069             0.00118734783           
       3.008715               0.112183902             0.00193315079           
       3.011355               0.213712672             0.00257299022           
       3.013995               0.117048417             0.00190935101           
       3.016636              0.0724171636             0.00147065749           
       3.019276               0.139269142             0.00200476172           
       3.021917               0.496220655             0.00363868049           
       3.024557                1.46360105             0.00614395233           
       3.027197                1.13841143             0.00528283776           
       3.029838               0.555317464              0.0037420132           
       3.032478               0.258797022              0.0025571467           
       3.035118              0.0713837616             0.00136101687           
       3.037759              0.0828370124             0.00146425026           
       3.040399               0.119816509             0.00181652418           
       3.043040               0.492232859             0.00372699746           
       3.045680               0.396135778             0.00314571945           
       3.048320              0.0991994492             0.00160842105           
       3.050961               0.115471467             0.00176590849           
       3.053601              0.0982826467              0.0015690986           
       3.056242              0.0796116078             0.00150148178           
       3.058882              0.0813729483             0.00162836372           
       3.061522              0.0606478008             0.00137924272           
       3.064163              0.0778895338             0.00154336693           
       3.066803               0.149418239             0.00225045845           
       3.069443               0.103457541             0.00195924299           
       3.072084              0.0363148548             0.00113028851           
       3.074724              0.0483562196             0.00145659128           
       3.077365              0.0504421664             0.00154000448           
       3.080005              0.0111127705            0.000726926113           
       3.082645              0.0142217127            0.000863894612           
       3.085286              0.0139473917            0.000862272037           
       3.087926              0.0100470619            0.000726201598           
       3.090566               0.010971878            0.000743564558           
       3.093207              0.0105258179             0.00075786421           
       3.095847             0.00873035458            0.000661552908           
       3.098488             0.00751432395            0.000680546986           
       3.101128             0.00967220765            0.000777069753           
       3.103768             0.00955098535            0.000757657335           
       3.106409             0.00808996378            0.000742118809           
       3.109049             0.00933449794             0.00076499521           
       3.111690             0.00980010007             0.00077038582           
       3.114330              0.0096011202            0.000778746222           
       3.116970             0.00609415234            0.000625191486           
       3.119611              0.0117480054            0.000923968628           
       3.122251              0.0187303772             0.00122037708           
       3.124891              0.0349627993             0.00168286967           
       3.127532               0.024392471             0.00137512881           
       3.130172              0.0148518965             0.00109155767           
       3.132813             0.00866700208            0.000820900811           
       3.135453             0.00679146546            0.000720685525           
       3.138093             0.00662600552            0.000771317253           
       3.140734             0.00756888186             0.00076054625           
       3.143374              0.0088082853            0.000867668412           
       3.146014             0.00851608927            0.000918460818           
       3.148655             0.00708922881            0.000778991439           
       3.151295             0.00768522381            0.000864328054           
       3.153936             0.00680471048            0.000785631239           
       3.156576             0.00537650286            0.000688836299           
       3.159216             0.00683544623            0.000780578093           
       3.161857             0.00722565913            0.000799282986           
       3.164497             0.00749717918            0.000855449568           
       3.167138             0.00810746231            0.000919159442           
       3.169778             0.00765511317            0.000878420343           
       3.172418             0.00720931067            0.000843788009           
       3.175059               0.006286025            0.000698512222           
       3.177699             0.00730968881            0.000797639316           
       3.180339             0.00649709813            0.000805707797           
       3.182980             0.00564469847            0.000776454632           
       3.185620             0.00498411681            0.000743044033           
       3.188261             0.00654657713            0.000866781025           
       3.190901             0.00650162031            0.000794445032           
       3.193541             0.00578141752            0.000787178579           
       3.196182             0.00557855565            0.000805831962           
       3.198822             0.00697730309            0.000901514961           
       3.201463             0.00686776668            0.000879001108           
       3.204103             0.00544702739            0.000778056375           
       3.206743             0.00643780223             0.00084578375           
       3.209384             0.00634018863            0.000906842909           
       3.212024             0.00621166433            0.000836848799           
       3.214664             0.00554091487            0.000898770127           
       3.217305             0.00484035627            0.000798509767           
       3.219945             0.00780446334             0.00104360797           
       3.222586             0.00606896655            0.000876557979           
       3.225226             0.00560083186            0.000934148398           
       3.227866              0.0057191474            0.000862773252           
       3.230507              0.0074036814             0.00101758325           
       3.233147             0.00439906993            0.000790713776           
       3.235787              0.0050531346            0.000867269613           
       3.238428              0.0083011111             0.00119953849           
       3.241068             0.00469584337             0.00084360193           
       3.243709             0.00468739493            0.000870790443           
       3.246349             0.00618078178            0.000911529399           
       3.248989             0.00504566185            0.000972469628           
       3.251630             0.00643404152             0.00105748177           
       3.254270             0.00622052433            0.000929287788           
       3.256911             0.00511102098            0.000919093067           
       3.259551             0.00537608543             0.00101481938           
       3.262191             0.00658221757             0.00114698813           
       3.264832             0.00829541099             0.00134538253           
       3.267472             0.00613678857             0.00108555049           
       3.270112             0.00514590314             0.00109855704           
       3.272753             0.00452224996             0.00094263568           
       3.275393             0.00550596506             0.00106128443           
       3.278034             0.00469394362            0.000980456756           
       3.280674             0.00675663469             0.00127646832           
       3.283314             0.00172125687            0.000576205339           
       3.285955             0.00716888508             0.00121329813           
       3.288595             0.00432953519             0.00104900364           
       3.291235             0.00345024047            0.000962654713           
       3.293876             0.00466967617             0.00113601902           
       3.296516               0.004307054             0.00104740287           
       3.299157             0.00521289374             0.00113781456           
       3.301797             0.00610244591             0.00140426696           
       3.304437             0.00361417074             0.00093629116           
       3.307078              0.0055521866             0.00127834302           
       3.309718             0.00531561315             0.00129106278           
       3.312359             0.00470335232             0.00121472393           
       3.314999             0.00759327523             0.00151963828           
       3.317639             0.00699250068             0.00139466881           
       3.320280              0.0028212069            0.000941867627           
       3.322920               0.004249156             0.00117536432           
       3.325560             0.00680111975             0.00148801163           
       3.328201             0.00499958614             0.00114901311           
       3.330841             0.00389331885             0.00123404453           
       3.333482             0.00592815237             0.00143935468           
       3.336122              0.0062592451              0.0014796831           
       3.338762             0.00606407411             0.00168240365           
       3.341403             0.00425188277             0.00134613144           
       3.344043             0.00390031235             0.00123781307           
       3.346683             0.00282717714             0.00107590257           
       3.349324             0.00570788931             0.00171880903           
       3.351964             0.00633968931             0.00191552975           
       3.354605              0.0037719619             0.00168979015           
       3.357245             0.00424677827             0.00161747165           
       3.359885             0.00591793717             0.00152819098           
       3.362526             0.00428667444             0.00162648829           
       3.365166             0.00933813251              0.0022642352           
       3.367807             0.00178944344             0.00126850304           
       3.370447             0.00368674666             0.00151035068           
       3.373087             0.00280943772             0.00140991558           
       3.375728             0.00264010713             0.00154252925           
       3.378368             0.00787256228             0.00395321637           
       3.381008             0.00770553509             0.00291589627           
       3.383649             0.00492008613             0.00186913849           
       3.386289             0.00893891127             0.00298179638           
       3.388930             0.00249114051             0.00248987816           
       3.391570             0.00494962387             0.00248271902           
       3.394210              0.0160941281             0.00566559033           
       3.396851             0.00498227268             0.00352613539           
       3.399491             0.00498092632             0.00352665022           
       3.402131              0.0146406265             0.00855428366           
       3.404772           -2.67149035e-05                         0           
       3.407412                       nan                       nan           
       3.410053           -2.67807025e-05                         0           
       3.412693                       nan                       nan           
       3.415333           -2.68318799e-05                         0           
