################################################################################
# EDF_DataBlockID                     0.Image.Psd
# EDF_BinarySize                      2105344
# EDF_HeaderSize                      2560
# ByteOrder                           LowByteFirst
# DataType                            FloatValue
# Dim_1                               512
# Dim_2                               1028
# Image                               0
# HeaderID                            EH:000000:000000:000000
# Size                                2105344
# Center_1                            304.9000
# Center_2                            588.7000
# Comment                             Xenocs_Cell_Window - 20251028_20perc_iodine_1.23mg
# DDummy                              0.6
# Date                                2025-10-31T10:00:45
# Delta                               21.910000
# Dummy                               -1.5
# ExposureTime                        360
# Gamma                               15.360000
# Intensity1                          8.52121e-10
# PSize_1                             7.5e-05
# PSize_2                             7.5e-05
# Pressure                            0.0328026
# SampleDistance                      0.115750
# SampleEnvKind                       large
# SampleEnvPN                         ElectroChemical cell
# SampleEnvSN                         1141
# Thickness                           0
# Wavelength                          1.541891e-10
# Wavelength                          1.54189e-10
# aux                                 0
# aux_dial                            0.002375
# beamx                               588.434
# beamx_dial                          588.434
# beamz                               657.808
# beamz_dial                          657.808
# det0x                               0
# det0x_dial                          6.36945
# det0xvd                             0
# det0xvd_dial                        0
# det0y                               450.002
# det0y_dial                          481.635
# det0z                               0
# det0z_dial                          1.23302
# det0zvd                             0
# det0zvd_dial                        0
# mag                                 1.818
# mag_dial                            1.818
# om                                  0.2499
# om_dial                             -0.610199
# phi                                 -0.0120535
# phi_dial                            0
# ry                                  0.599993
# ry_dial                             0.599993
# s1bot                               0.8
# s1bot_dial                          -1.66094
# s1hl                                0.8
# s1hl_dial                           -0.608437
# s1hr                                0.8
# s1hr_dial                           0.970938
# s1top                               0.8
# s1top_dial                          -0.461562
# s2bot                               0.45
# s2bot_dial                          1.36109
# s2hl                                0.45
# s2hl_dial                           -0.83375
# s2hr                                0.45
# s2hr_dial                           -0.118594
# s2top                               0.45
# s2top_dial                          1.44734
# w2theta                             32
# w2theta_dial                        32
# waxsch                              19.2605
# waxsch_dial                         -32.7355
# waxsh                               137.085
# waxsh_dial                          -43.5338
# waxsth                              26.0607
# waxsth_dial                         -19.4086
# waxsz                               67.0407
# waxsz_dial                          -23.7954
# wind                                65.9854
# wind_dial                           66.0041
# wpsi                                124
# wpsi_dial                           124
# wstod                               115
# wstod_dial                          115
# x                                   0
# x_dial                              1.00969
# z                                   0
# z_dial                              13.3172
# CountCutoff                         6807993
# DetectorModel                       Dectris EIGER2 Si 500K, S/N E-01-0554
# ThresholdSetting                    4023.88989258
# Saturation                          0
# FlatField                           Corrected
# BackgroundReductionExtra            0.02
# BackgroundCorrectionConstant        0.0026712
# Detector                            0
# Monitor                             0
# Pil_Roi0                            0
# SumForIntensity1                    3.06763e+08
# TransmittedFlux                     852121
# det                                 0
# mon                                 0
# pilai0                              3.06763e+08
# pilai1                              782556
# pilct0                              5.31034e+08
# pilct1                              782556
# pilroi0                             0
# pilroi1                             0
# sec                                 1
# title                               20251028_20perc_iodine_1.23mg_1_00615.edf
# usaxs0                              0
# Operation                           Azimuthal average I(q)
# Error_model                         ErrorModel.poisson
# Geometrical_correction              True
# Transmission_correction             True
# Thickness_correction                False
# Binning mode                        Uniform
# Binning factor                      1.0
# Psi                                 0.0
# Omega                               0.2499
# MaskInvalidPixels                   True
# DetectorEdge                        3
# MaskFiles                           ['WAXS_corrected.edf']
################################################################################
    q(A⁻¹)                Intensity(a.u.)            Sigma_I(a.u.)            
       0.693100             0.00413299709             0.00429334693           
       0.695741             0.00567105748             0.00410396056           
       0.698381             0.00418635148             0.00431918548           
       0.701021           -2.37891437e-05                         0           
       0.703662             0.00280556151             0.00288526399           
       0.706302             0.00859992526             0.00391093097           
       0.708942             0.00285600044              0.0029089282           
       0.711583             0.00886104995              0.0044369267           
       0.714223             0.00880885797             0.00510739427           
       0.716864             0.00755730317             0.00309523614           
       0.719504             0.00883112269             0.00361065655           
       0.722144             0.00884857481             0.00334704616           
       0.724785             0.00962623655             0.00278474035           
       0.727425             0.00883621046              0.0036093543           
       0.730065             0.00580794215             0.00206989754           
       0.732706             0.00717465887             0.00193191084           
       0.735346              0.0079269149             0.00264705314           
       0.737987             0.00395135961             0.00132062925           
       0.740627             0.00779616843             0.00276780012           
       0.743267             0.00876051815             0.00196517474           
       0.745908             0.00779364331             0.00201101479           
       0.748548             0.00699270054             0.00175582771           
       0.751189              0.0128718739             0.00320993953           
       0.753829             0.00743261139             0.00224218675           
       0.756469             0.00703160739             0.00175857835           
       0.759110             0.00680471387             0.00182309746           
       0.761750             0.00879477435             0.00183264339           
       0.764390             0.00705575496             0.00171807779           
       0.767031             0.00846034714             0.00162916223           
       0.769671              0.0073200911             0.00189035393           
       0.772312              0.0053696258             0.00123256049           
       0.774952             0.00927628218              0.0021876756           
       0.777592              0.0100844833             0.00166142203           
       0.780233             0.00714248992             0.00168694813           
       0.782873             0.00723928704             0.00162430447           
       0.785513             0.00790705733             0.00181480831           
       0.788154             0.00671568573             0.00139911163           
       0.790794             0.00829643663             0.00185913969           
       0.793435             0.00601472435              0.0014220809           
       0.796075             0.00403503043             0.00112203398           
       0.798715             0.00738948905             0.00179433096           
       0.801356             0.00511560077             0.00128493034           
       0.803996             0.00739207991             0.00157473436           
       0.806637             0.00721622923             0.00123820159           
       0.809277             0.00949273048             0.00153713887           
       0.811917             0.00651877314             0.00119079804           
       0.814558             0.00587018692             0.00117444045           
       0.817198             0.00508265167               0.001038234           
       0.819838              0.0087227046             0.00137653694           
       0.822479             0.00719217901             0.00146778225           
       0.825119             0.00822697323             0.00133611904           
       0.827760             0.00533643182              0.0010900425           
       0.830400             0.00784852194              0.0012441911           
       0.833040             0.00711934584             0.00124150038           
       0.835681             0.00782054784             0.00147924629           
       0.838321             0.00668705453             0.00114808238           
       0.840961              0.0072573466              0.0013031384           
       0.843602             0.00803261428             0.00125724161           
       0.846242              0.0105920125             0.00144349323           
       0.848883             0.00763399465             0.00125408857           
       0.851523             0.00763395732             0.00123850743           
       0.854163              0.0081735143             0.00136284774           
       0.856804             0.00716440354             0.00114725216           
       0.859444             0.00615440167             0.00104184287           
       0.862085             0.00727611136             0.00118067674           
       0.864725             0.00724671375             0.00120585738           
       0.867365             0.00896657167             0.00124381131           
       0.870006              0.0056318726            0.000939345985           
       0.872646             0.00811670437             0.00118253714           
       0.875286             0.00714328023             0.00106727608           
       0.877927             0.00740507828             0.00104857401           
       0.880567             0.00653214405             0.00102030593           
       0.883208             0.00717646659             0.00105936844           
       0.885848             0.00858118007             0.00120278621           
       0.888488             0.00678804704             0.00100337116           
       0.891129             0.00844170576             0.00114891125           
       0.893769             0.00788619989             0.00106274485           
       0.896410             0.00656836896            0.000904280263           
       0.899050             0.00859158604             0.00113735565           
       0.901690             0.00658451391             0.00108458906           
       0.904331             0.00758977143             0.00103234158           
       0.906971             0.00538547506            0.000925114463           
       0.909611             0.00604785983            0.000892438782           
       0.912252             0.00813589757             0.00106914468           
       0.914892             0.00786418205             0.00114867184           
       0.917533             0.00748163054             0.00105988021           
       0.920173             0.00748610865            0.000983654707           
       0.922813             0.00839309472             0.00109297819           
       0.925454             0.00818105097            0.000971684808           
       0.928094             0.00811627242             0.00103324035           
       0.930734             0.00929307055             0.00119031338           
       0.933375             0.00895541146             0.00115700159           
       0.936015             0.00751183771            0.000962392911           
       0.938656             0.00710576546             0.00100412742           
       0.941296             0.00652413103            0.000871976743           
       0.943936             0.00773064738            0.000930824369           
       0.946577             0.00529032584            0.000764927543           
       0.949217             0.00708884226            0.000814256647           
       0.951858             0.00737853283            0.000869606049           
       0.954498             0.00684701443            0.000969622179           
       0.957138             0.00824573755              0.0010080525           
       0.959779             0.00730561975            0.000935369721           
       0.962419             0.00587806681             0.00083343858           
       0.965059             0.00691591712            0.000950799495           
       0.967700             0.00806716947             0.00105174087           
       0.970340             0.00857751202            0.000959673563           
       0.972981             0.00656946452            0.000765194721           
       0.975621             0.00717102696            0.000850489481           
       0.978261              0.0080086192            0.000854006312           
       0.980902             0.00779715014             0.00100819561           
       0.983542             0.00848651783            0.000931455575           
       0.986182             0.00701364532            0.000831360896           
       0.988823             0.00752318565            0.000836062198           
       0.991463             0.00802810858            0.000921438316           
       0.994104             0.00925102763            0.000964914354           
       0.996744             0.00923920215            0.000983575675           
       0.999384             0.00770194266            0.000803138934           
       1.002025             0.00749783326            0.000884451519           
       1.004665             0.00680456811            0.000770005499           
       1.007306             0.00783685717             0.00082212119           
       1.009946             0.00851172865            0.000873804667           
       1.012586             0.00833825317            0.000842317281           
       1.015227             0.00883319809            0.000931382375           
       1.017867              0.0071719314            0.000806569383           
       1.020507             0.00929313114            0.000889334749           
       1.023148             0.00703847449            0.000835133585           
       1.025788             0.00790331989            0.000811434459           
       1.028429             0.00805253407            0.000858098544           
       1.031069              0.0074470709            0.000776552796           
       1.033709               0.008128614            0.000862423864           
       1.036350             0.00893300747            0.000811995851           
       1.038990             0.00873616874            0.000817756092           
       1.041630             0.00632404719            0.000725687009           
       1.044271             0.00795118287            0.000765261203           
       1.046911             0.00932088539            0.000871533915           
       1.049552             0.00765872357            0.000830008257           
       1.052192             0.00749925592            0.000749970833           
       1.054832             0.00779691513            0.000771666313           
       1.057473             0.00877077973            0.000806809777           
       1.060113             0.00860552299            0.000779410776           
       1.062754             0.00821742811             0.00077761382           
       1.065394             0.00714722809            0.000766736292           
       1.068034             0.00920200868            0.000791579366           
       1.070675             0.00838630775              0.0007882682           
       1.073315             0.00884357024            0.000821075836           
       1.075955             0.00869583251            0.000768640623           
       1.078596             0.00890368919            0.000826618175           
       1.081236             0.00900726214            0.000796131372           
       1.083877             0.00830841753            0.000757764086           
       1.086517             0.00754490216            0.000774310228           
       1.089157             0.00813675488            0.000834351028           
       1.091798             0.00998101927            0.000810158153           
       1.094438             0.00999171562            0.000807975909           
       1.097078             0.00739049121            0.000666470844           
       1.099719             0.00885659827            0.000789161504           
       1.102359             0.00938390567            0.000760742298           
       1.105000             0.00839739583            0.000804702887           
       1.107640             0.00890084688            0.000792155914           
       1.110280              0.0087782081            0.000717785221           
       1.112921             0.00907606073            0.000784028735           
       1.115561             0.00900838726            0.000742370443           
       1.118202             0.00870500956            0.000730450522           
       1.120842             0.00865040225            0.000765296489           
       1.123482             0.00899740573            0.000777086266           
       1.126123             0.00887295425            0.000740183123           
       1.128763              0.0089326271            0.000747759878           
       1.131403              0.0099910536            0.000762023779           
       1.134044             0.00985712523            0.000778851068           
       1.136684              0.0090251412             0.00079457359           
       1.139325             0.00859834305            0.000714443528           
       1.141965             0.00968984228            0.000763449822           
       1.144605             0.00988780704             0.00073535014           
       1.147246             0.00719199652            0.000641830076           
       1.149886             0.00865522155            0.000701600613           
       1.152527             0.00976967674            0.000756242349           
       1.155167              0.0090605486            0.000692704822           
       1.157807             0.00841059006            0.000715568402           
       1.160448             0.00896276303            0.000721344148           
       1.163088             0.00950639617            0.000708615896           
       1.165728             0.00967679746            0.000734041002           
       1.168369             0.00968661565            0.000741198231           
       1.171009              0.0087511263            0.000683697068           
       1.173650             0.00853317506            0.000692843814           
       1.176290             0.00940257652            0.000710718669           
       1.178930             0.00902214799            0.000682331907           
       1.181571             0.00991868222            0.000729618154           
       1.184211             0.00944759469            0.000714605527           
       1.186851             0.00935155506            0.000695099339           
       1.189492             0.00947880582            0.000695104618           
       1.192132              0.0108016913            0.000733700655           
       1.194773             0.00868658952            0.000660832035           
       1.197413             0.00955710713            0.000664139563           
       1.200053              0.0101612686            0.000702209973           
       1.202694               0.009569969            0.000648041288           
       1.205334              0.0102264784            0.000721943339           
       1.207975              0.0093132267            0.000657625905           
       1.210615             0.00891932277            0.000709965381           
       1.213255             0.00945819595            0.000654681113           
       1.215896              0.0094335079            0.000665672791           
       1.218536              0.0104045936            0.000672210629           
       1.221176             0.00846134928            0.000659058758           
       1.223817             0.00979762361            0.000665731901           
       1.226457              0.0095960251            0.000672120483           
       1.229098             0.00983785685            0.000680503768           
       1.231738             0.00925887174            0.000663424516           
       1.234378              0.0104324028            0.000661714897           
       1.237019              0.0107339817            0.000691676736           
       1.239659             0.00975875838            0.000653762958           
       1.242299              0.0102708429            0.000662175257           
       1.244940             0.00927939104            0.000612135057           
       1.247580              0.0105868939            0.000673836062           
       1.250221              0.0098983092             0.00064753377           
       1.252861              0.0099762656            0.000618878017           
       1.255501             0.00958519841            0.000658680781           
       1.258142              0.0107469844            0.000655386451           
       1.260782             0.00963222598            0.000633890443           
       1.263423              0.0109063755            0.000648131853           
       1.266063              0.0114068348            0.000679387323           
       1.268703               0.010534009            0.000647459893           
       1.271344              0.0110896655            0.000686831006           
       1.273984             0.00955601524            0.000615768563           
       1.276624             0.00927519725            0.000595256537           
       1.279265              0.0110884583            0.000661654225           
       1.281905              0.0102652779            0.000639446274           
       1.284546             0.00970941348            0.000601115339           
       1.287186              0.0101053232            0.000601661743           
       1.289826              0.0118247806             0.00068593144           
       1.292467             0.00981664802            0.000611213816           
       1.295107             0.00924921721            0.000587392457           
       1.297747              0.0109622096            0.000611926373           
       1.300388              0.0120763094            0.000700154734           
       1.303028              0.0098691896            0.000604249633           
       1.305669              0.0116714531            0.000672756448           
       1.308309             0.00965016135            0.000605709959           
       1.310949              0.0105069132            0.000631390915           
       1.313590             0.00956710801            0.000583658523           
       1.316230             0.00979282584            0.000630149278           
       1.318871              0.0102928516             0.00063271376           
       1.321511               0.011205081            0.000647920348           
       1.324151              0.0102578131            0.000601549771           
       1.326792              0.0102070778            0.000603770103           
       1.329432              0.0117409428             0.00064297899           
       1.332072              0.0104158125            0.000596582956           
       1.334713                0.01079462            0.000626829468           
       1.337353              0.0109860684            0.000606449322           
       1.339994              0.0106396151            0.000626292975           
       1.342634              0.0120522879            0.000639204019           
       1.345274              0.0124760923            0.000673046319           
       1.347915              0.0108038554            0.000609022519           
       1.350555              0.0114741265            0.000638622349           
       1.353195              0.0106633582            0.000618670074           
       1.355836              0.0117209545            0.000638510791           
       1.358476              0.0113099832            0.000609122808           
       1.361117              0.0103166778            0.000582558479           
       1.363757              0.0120683694            0.000649316513           
       1.366397              0.0106325674            0.000591025187           
       1.369038               0.011495892            0.000620670689           
       1.371678               0.011411046            0.000612924365           
       1.374319              0.0112545871            0.000603466406           
       1.376959              0.0111619059             0.00059493276           
       1.379599                0.01272203             0.00068068942           
       1.382240              0.0114139799            0.000605965414           
       1.384880              0.0105631856            0.000617470017           
       1.387520              0.0106776033            0.000589597805           
       1.390161               0.010941912            0.000566864614           
       1.392801              0.0125031104            0.000631348406           
       1.395442              0.0108798462            0.000596984095           
       1.398082              0.0109102378            0.000559829869           
       1.400722              0.0106104419            0.000578296024           
       1.403363              0.0108444951            0.000615404083           
       1.406003              0.0111236927            0.000583302342           
       1.408644              0.0109363578            0.000605879938           
       1.411284             0.00992570432             0.00054656293           
       1.413924              0.0112469845            0.000579648237           
       1.416565              0.0105499664            0.000559194242           
       1.419205              0.0114832463            0.000608583592           
       1.421845              0.0108754247             0.00059191034           
       1.424486              0.0113866905            0.000582182071           
       1.427126              0.0105881166            0.000583182028           
       1.429767              0.0106634231            0.000550651229           
       1.432407              0.0108019762            0.000580001114           
       1.435047              0.0118864596            0.000571407361           
       1.437688              0.0116406782            0.000573923639           
       1.440328              0.0109022416            0.000566870227           
       1.442968              0.0104903488            0.000568517603           
       1.445609              0.0110514566            0.000565013041           
       1.448249              0.0105013013            0.000564715119           
       1.450890              0.0119334005            0.000598061779           
       1.453530              0.0112704061            0.000608063464           
       1.456170              0.0110474228            0.000584272777           
       1.458811              0.0111949139            0.000562411171           
       1.461451              0.0106658895            0.000550401832           
       1.464092              0.0105003087            0.000549683197           
       1.466732              0.0114542537            0.000569176156           
       1.469372              0.0105395925            0.000533200519           
       1.472013               0.010222089            0.000566339275           
       1.474653              0.0101557584            0.000555790699           
       1.477293              0.0108713992            0.000587159603           
       1.479934              0.0114296517            0.000574478011           
       1.482574              0.0100880773             0.00052208588           
       1.485215              0.0107616815            0.000549278047           
       1.487855              0.0106386443            0.000553333446           
       1.490495              0.0104386473             0.00054608905           
       1.493136              0.0101589047            0.000531337908           
       1.495776              0.0120620831            0.000576337017           
       1.498416               0.010714776            0.000560968271           
       1.501057              0.0106964505             0.00054813602           
       1.503697              0.0100099015            0.000518407205           
       1.506338              0.0112061557            0.000558533075           
       1.508978              0.0104720859            0.000534619807           
       1.511618              0.0100843345            0.000558727038           
       1.514259              0.0111108709            0.000566214938           
       1.516899             0.00982254621            0.000518358752           
       1.519540              0.0099119415            0.000529109081           
       1.522180              0.0105853365            0.000551590248           
       1.524820              0.0102784026            0.000540484946           
       1.527461              0.0101906286            0.000540833845           
       1.530101              0.0108033744            0.000551287078           
       1.532741             0.00994935022            0.000525978198           
       1.535382              0.0101415251            0.000539582611           
       1.538022               0.010574323             0.00051904846           
       1.540663              0.0113024296            0.000577168837           
       1.543303              0.0103833018            0.000513658226           
       1.545943              0.0106266234            0.000550002571           
       1.548584              0.0102527649            0.000549938703           
       1.551224              0.0107738245            0.000521230767           
       1.553864              0.0107754496             0.00055081924           
       1.556505                0.01108106            0.000539598607           
       1.559145              0.0107138343            0.000537081723           
       1.561786              0.0102908178            0.000526777481           
       1.564426              0.0098903034            0.000500361828           
       1.567066             0.00967938846            0.000518662718           
       1.569707             0.00923218513            0.000497440466           
       1.572347              0.0095262765            0.000522026803           
       1.574988             0.00904227758            0.000484094983           
       1.577628             0.00996381795            0.000529890561           
       1.580268             0.00968717981            0.000506230158           
       1.582909             0.00968520392             0.00053652911           
       1.585549              0.0107037523            0.000547661062           
       1.588189             0.00958675242            0.000506986022           
       1.590830             0.00851784367            0.000477287031           
       1.593470             0.00926827167            0.000517581482           
       1.596111             0.00897177209            0.000497171812           
       1.598751             0.00951284407            0.000496056706           
       1.601391               0.009774523            0.000513927061           
       1.604032             0.00962428427            0.000520622965           
       1.606672             0.00962189867            0.000505771941           
       1.609312             0.00868794964            0.000501689296           
       1.611953             0.00890798319            0.000497112151           
       1.614593             0.00897459876             0.00048944754           
       1.617234             0.00866607216            0.000498456698           
       1.619874             0.00874337087             0.00049869701           
       1.622514             0.00945141039            0.000511423204           
       1.625155             0.00881409222            0.000496796992           
       1.627795             0.00949222737            0.000502922081           
       1.630436             0.00880067731            0.000481727017           
       1.633076             0.00884693664            0.000489326043           
       1.635716             0.00932053758            0.000494438159           
       1.638357             0.00907628714            0.000489202694           
       1.640997             0.00808527925            0.000475710326           
       1.643637             0.00820802492            0.000466420409           
       1.646278             0.00872769086             0.00049607059           
       1.648918             0.00821645224            0.000482635302           
       1.651559             0.00920926607            0.000514928799           
       1.654199              0.0085595907            0.000482825285           
       1.656839             0.00814350739            0.000471108375           
       1.659480             0.00989122882            0.000538703776           
       1.662120             0.00885033229            0.000479931913           
       1.664761             0.00840320113            0.000485769075           
       1.667401             0.00947405313             0.00049298761           
       1.670041             0.00830735717            0.000468674765           
       1.672682             0.00874144243            0.000478787691           
       1.675322             0.00859619382            0.000471740089           
       1.677962             0.00880699206             0.00047222181           
       1.680603             0.00836290435            0.000461578089           
       1.683243             0.00832143014             0.00048037504           
       1.685884             0.00831812092            0.000483826205           
       1.688524             0.00904328621            0.000494723727           
       1.691164             0.00825568377            0.000472796974           
       1.693805             0.00900521009            0.000499217695           
       1.696445             0.00935405483            0.000511746572           
       1.699085             0.00771956522            0.000449313656           
       1.701726             0.00832555327            0.000449503188           
       1.704366             0.00835726814            0.000474440364           
       1.707007             0.00904157491            0.000482481963           
       1.709647             0.00868685783            0.000478263717           
       1.712287             0.00770946745            0.000454477216           
       1.714928             0.00874345369            0.000487897882           
       1.717568             0.00883655967             0.00046204233           
       1.720209             0.00940671178            0.000499326195           
       1.722849             0.00774772666            0.000450831305           
       1.725489             0.00869691682            0.000478050853           
       1.728130             0.00835929375            0.000498075287           
       1.730770              0.0077499289            0.000455470009           
       1.733410             0.00801376949            0.000455877794           
       1.736051             0.00811987358            0.000462079886           
       1.738691             0.00832178633            0.000458307056           
       1.741332             0.00850422618            0.000476850889           
       1.743972             0.00926775719            0.000514060227           
       1.746612             0.00825179838             0.00046578718           
       1.749253             0.00858200461            0.000484396087           
       1.751893             0.00889056553            0.000489408369           
       1.754533             0.00969212342            0.000510517221           
       1.757174             0.00851872347            0.000474135072           
       1.759814             0.00849196679            0.000466214202           
       1.762455             0.00861871468            0.000478304913           
       1.765095             0.00805514632            0.000442344346           
       1.767735             0.00872647968            0.000474612064           
       1.770376             0.00843325682            0.000467800097           
       1.773016             0.00897416323            0.000479336852           
       1.775657             0.00880278378            0.000467907015           
       1.778297             0.00884208438            0.000464912282           
       1.780937             0.00897418648            0.000494366831           
       1.783578             0.00910692006            0.000485557057           
       1.786218             0.00958448344            0.000519848565           
       1.788858             0.00902297192             0.00047904971           
       1.791499             0.00880512563            0.000467916577           
       1.794139             0.00821416791             0.00044827504           
       1.796780             0.00951652485            0.000480179049           
       1.799420              0.0101211404            0.000492455552           
       1.802060             0.00869243864            0.000460062638           
       1.804701             0.00832110049            0.000431963812           
       1.807341             0.00920506902            0.000477401011           
       1.809981             0.00989864795            0.000496710449           
       1.812622             0.00974669358            0.000484009702           
       1.815262             0.00872022463            0.000467539215           
       1.817903             0.00959611251            0.000483191001           
       1.820543             0.00855238149             0.00046326534           
       1.823183             0.00897400581            0.000474286355           
       1.825824             0.00880195859            0.000448749462           
       1.828464             0.00947690991            0.000485446899           
       1.831105             0.00930033792             0.00046760731           
       1.833745             0.00828017395            0.000450639456           
       1.836385             0.00837271838            0.000466082992           
       1.839026             0.00874246007            0.000474758269           
       1.841666              0.0089786644            0.000479422999           
       1.844306             0.00929961496            0.000474603431           
       1.846947             0.00871322249            0.000463423565           
       1.849587             0.00865626006              0.0005100565           
       1.852228             0.00837566442            0.000453680631           
       1.854868             0.00857310368            0.000484862217           
       1.857508              0.0088992449              0.0004891537           
       1.860149             0.00926054301             0.00050805026           
       1.862789             0.00989696808            0.000506956757           
       1.865429             0.00998143474            0.000531438684           
       1.868070             0.00933676241            0.000507139605           
       1.870710             0.00843336047            0.000470868899           
       1.873351             0.00891008871            0.000489978072           
       1.875991             0.00935180446            0.000510168805           
       1.878631             0.00839973022            0.000474242508           
       1.881272             0.00886828412            0.000484025143           
       1.883912             0.00880867943             0.00050203373           
       1.886553             0.00864385653            0.000491754683           
       1.889193             0.00852251027            0.000487456424           
       1.891833             0.00855908889            0.000507327739           
       1.894474             0.00889076428            0.000512560996           
       1.897114             0.00799340611            0.000470298202           
       1.899754             0.00970774832            0.000520451142           
       1.902395             0.00854416985            0.000478718894           
       1.905035             0.00798808198            0.000490265776           
       1.907676             0.00945473117            0.000502710121           
       1.910316             0.00870386711            0.000495142256           
       1.912956             0.00853990702            0.000479666333           
       1.915597             0.00824666578            0.000473993426           
       1.918237             0.00874179962            0.000504001186           
       1.920878             0.00956079196            0.000524924172           
       1.923518             0.00781247819            0.000474709886           
       1.926158             0.00867579439            0.000493760102           
       1.928799             0.00847300818             0.00048230724           
       1.931439             0.00857389488            0.000497895636           
       1.934079              0.0081722504            0.000506740819           
       1.936720             0.00902979783            0.000493529492           
       1.939360             0.00956924166            0.000542026495           
       1.942001             0.00777665251            0.000447852341           
       1.944641             0.00868283955             0.00048254837           
       1.947281             0.00859874949            0.000475779737           
       1.949922             0.00804251563            0.000475277639           
       1.952562             0.00940362606            0.000530033513           
       1.955202             0.00895576579            0.000516627245           
       1.957843             0.00839030495            0.000487083815           
       1.960483              0.0083933197            0.000509336957           
       1.963124             0.00805419796             0.00048870531           
       1.965764             0.00851918663             0.00047397951           
       1.968404             0.00839382912            0.000466034076           
       1.971045             0.00854574365            0.000479426649           
       1.973685             0.00879196505            0.000510075892           
       1.976326             0.00771130444            0.000471135167           
       1.978966             0.00789844735            0.000481002284           
       1.981606             0.00854247745            0.000510660809           
       1.984247             0.00909604968            0.000523482681           
       1.986887             0.00875808448            0.000507512472           
       1.989527             0.00932127142            0.000517937409           
       1.992168              0.0087342436            0.000520206691           
       1.994808             0.00816672957            0.000500866207           
       1.997449              0.0076779309            0.000475672438           
       2.000089             0.00760315505             0.00047147379           
       2.002729             0.00829154464            0.000492650181           
       2.005370             0.00798630342             0.00047829477           
       2.008010             0.00801165673            0.000499960855           
       2.010650             0.00765629355            0.000492393971           
       2.013291             0.00768440273            0.000473291193           
       2.015931             0.00789250313             0.00047626631           
       2.018572              0.0083443233            0.000523790032           
       2.021212             0.00799418809            0.000503471687           
       2.023852             0.00840180565            0.000488509699           
       2.026493             0.00842236793              0.0005109594           
       2.029133             0.00850500704            0.000503127125           
       2.031774              0.0086566928            0.000532708521           
       2.034414             0.00835233259            0.000481471883           
       2.037054             0.00761193956             0.00047128699           
       2.039695             0.00778486485            0.000473010563           
       2.042335             0.00840293777            0.000510702724           
       2.044975             0.00720303926            0.000467101747           
       2.047616             0.00820526335            0.000497301428           
       2.050256             0.00801122854             0.00049603652           
       2.052897               0.007957249            0.000503476412           
       2.055537             0.00796679289            0.000486882531           
       2.058177             0.00826873882            0.000485740552           
       2.060818             0.00704087754            0.000469552614           
       2.063458             0.00815275683            0.000526541044           
       2.066098             0.00679551843            0.000453479046           
       2.068739             0.00729142673            0.000477035746           
       2.071379             0.00824819334             0.00052060153           
       2.074020             0.00795121005            0.000500034694           
       2.076660             0.00776107222            0.000498013469           
       2.079300             0.00713338889            0.000489148798           
       2.081941              0.0074007389            0.000456187066           
       2.084581             0.00795030438             0.00049906781           
       2.087222             0.00669939721            0.000441819356           
       2.089862             0.00725591335            0.000500796915           
       2.092502             0.00828101291            0.000518610364           
       2.095143              0.0079631196            0.000525162909           
       2.097783             0.00866021349            0.000530234024           
       2.100423             0.00698584411            0.000458887201           
       2.103064             0.00826742697            0.000517995561           
       2.105704             0.00747953539            0.000490254566           
       2.108345             0.00768982234            0.000477578776           
       2.110985             0.00808960696            0.000523180145           
       2.113625             0.00820072228            0.000531357732           
       2.116266             0.00737321866            0.000510984613           
       2.118906              0.0082152758            0.000502666734           
       2.121546             0.00860708775            0.000504690333           
       2.124187             0.00766285084            0.000499865997           
       2.126827             0.00793235031            0.000514256219           
       2.129468             0.00808133497            0.000520388971           
       2.132108             0.00787074402            0.000499658518           
       2.134748             0.00761615317            0.000489604038           
       2.137389             0.00807823693            0.000526045335           
       2.140029             0.00742688856            0.000451562653           
       2.142670             0.00790704217             0.00049795048           
       2.145310             0.00755096187            0.000473625398           
       2.147950             0.00836912551            0.000513220812           
       2.150591             0.00753335963            0.000482000216           
       2.153231             0.00680305029            0.000471482398           
       2.155871             0.00743870993            0.000476287824           
       2.158512             0.00690104566            0.000478675344           
       2.161152              0.0072835395            0.000476351224           
       2.163793             0.00750723931            0.000481433838           
       2.166433             0.00805376834            0.000512061284           
       2.169073             0.00781966926            0.000493331038           
       2.171714             0.00658828449            0.000449439943           
       2.174354             0.00689617915            0.000480471533           
       2.176995             0.00726997364             0.00049124546           
       2.179635             0.00750406971            0.000527398037           
       2.182275             0.00798271958             0.00051358284           
       2.184916             0.00743429054            0.000478711171           
       2.187556             0.00721552296            0.000466888175           
       2.190196             0.00718740756            0.000486940387           
       2.192837             0.00819582704            0.000517150184           
       2.195477             0.00735270996            0.000466993252           
       2.198118             0.00708654996            0.000470210468           
       2.200758             0.00739779288            0.000492887288           
       2.203398             0.00788842042            0.000512225322           
       2.206039             0.00809361773             0.00049104256           
       2.208679             0.00733111598            0.000478216171           
       2.211319             0.00750980108            0.000486799783           
       2.213960             0.00762635723            0.000497135658           
       2.216600              0.0068007305            0.000485640904           
       2.219241             0.00802486569            0.000504186814           
       2.221881             0.00729031176            0.000481545874           
       2.224521             0.00840887521            0.000523507617           
       2.227162             0.00754689586            0.000486020299           
       2.229802             0.00829845829            0.000525600329           
       2.232443             0.00722717412              0.0004827658           
       2.235083              0.0081427604            0.000527549558           
       2.237723             0.00736392524            0.000481440708           
       2.240364             0.00687235564            0.000476552157           
       2.243004             0.00755436705            0.000495651012           
       2.245644             0.00710653272            0.000485546989           
       2.248285             0.00694721269            0.000470456152           
       2.250925             0.00635675408            0.000452753425           
       2.253566              0.0075973786            0.000529157223           
       2.256206             0.00655174561            0.000481570214           
       2.258846             0.00707589793            0.000476078649           
       2.261487             0.00654306481            0.000480506608           
       2.264127              0.0070385607            0.000481316519           
       2.266767             0.00798656995            0.000526366604           
       2.269408             0.00685863054            0.000489780733           
       2.272048             0.00676744676             0.00048361002           
       2.274689             0.00902655062             0.00056588582           
       2.277329             0.00695792271            0.000467797343           
       2.279969             0.00710555624            0.000503198448           
       2.282610              0.0061600162            0.000455492375           
       2.285250             0.00761569125            0.000484750705           
       2.287891             0.00806397269            0.000534803523           
       2.290531             0.00688864516            0.000500940144           
       2.293171             0.00733079016            0.000503377266           
       2.295812             0.00683010983            0.000483930297           
       2.298452             0.00784221276            0.000542262551           
       2.301092              0.0073866691            0.000488976263           
       2.303733             0.00753103772            0.000513653272           
       2.306373             0.00706681651            0.000505406411           
       2.309014             0.00663019769            0.000479994484           
       2.311654             0.00707099345            0.000517279693           
       2.314294             0.00765171161            0.000495755247           
       2.316935             0.00683990997            0.000470656188           
       2.319575             0.00698154044            0.000498218175           
       2.322215             0.00671355176            0.000509164578           
       2.324856             0.00738595382            0.000491007418           
       2.327496              0.0080463347            0.000544935805           
       2.330137             0.00722745371            0.000494216163           
       2.332777              0.0073943685            0.000515440337           
       2.335417             0.00709995765            0.000489998115           
       2.338058              0.0073242586            0.000512544639           
       2.340698             0.00631707122            0.000472260261           
       2.343339             0.00675650749            0.000499158033           
       2.345979             0.00729600919            0.000490735266           
       2.348619             0.00780198323            0.000526015867           
       2.351260             0.00717177656            0.000501385775           
       2.353900             0.00756843358            0.000513432903           
       2.356540             0.00771898222            0.000517778229           
       2.359181             0.00718481191            0.000492538058           
       2.361821             0.00734413372            0.000481024863           
       2.364462             0.00672343707            0.000481362929           
       2.367102             0.00701875537            0.000505424695           
       2.369742             0.00783146279            0.000561951004           
       2.372383             0.00615416534            0.000451075106           
       2.375023              0.0070968376            0.000509200665           
       2.377663             0.00707214535            0.000486022873           
       2.380304              0.0068097565            0.000484873605           
       2.382944             0.00704991914            0.000469899922           
       2.385585             0.00723456307            0.000507676822           
       2.388225              0.0074517272             0.00051281901           
       2.390865             0.00639177832            0.000470069691           
       2.393506             0.00782385809            0.000510258362           
       2.396146             0.00857067315            0.000577445865           
       2.398787             0.00698319565            0.000480355564           
       2.401427             0.00658526795            0.000450249772           
       2.404067             0.00731740588            0.000485205915           
       2.406708             0.00713924863             0.00047351571           
       2.409348               0.006245848            0.000469780106           
       2.411988             0.00673762952            0.000478057912           
       2.414629             0.00728773624            0.000512675451           
       2.417269              0.0074969384            0.000526052762           
       2.419910             0.00752752448            0.000528347935           
       2.422550             0.00682483553            0.000481319215           
       2.425190             0.00722272773            0.000521940939           
       2.427831             0.00704259065            0.000512493964           
       2.430471             0.00705090587            0.000488537651           
       2.433112             0.00709768931            0.000477294833           
       2.435752             0.00711637421            0.000505791394           
       2.438392             0.00692357394            0.000481533474           
       2.441033             0.00866029353             0.00057075684           
       2.443673             0.00730711181            0.000524676296           
       2.446313             0.00643352042             0.00049274889           
       2.448954             0.00706501327              0.0004916528           
       2.451594             0.00718400306            0.000533074781           
       2.454235             0.00765376379            0.000516254017           
       2.456875              0.0072253466             0.00052485064           
       2.459515             0.00801908629            0.000567242161           
       2.462156             0.00754305561            0.000519416542           
       2.464796             0.00739290557            0.000507586574           
       2.467436             0.00800982905            0.000546366466           
       2.470077             0.00735933602             0.00049638301           
       2.472717             0.00718279398            0.000492517317           
       2.475358             0.00874339732            0.000549060091           
       2.477998             0.00737149349            0.000495648174           
       2.480638             0.00675958824            0.000483064517           
       2.483279             0.00716009641            0.000519621352           
       2.485919             0.00699626155            0.000495011553           
       2.488560             0.00730486812             0.00050439796           
       2.491200             0.00683791446             0.00050252161           
       2.493840             0.00685649323            0.000532455547           
       2.496481             0.00743913007            0.000545544964           
       2.499121             0.00724742051            0.000523747703           
       2.501761             0.00721720204            0.000529579581           
       2.504402             0.00730629079            0.000525053372           
       2.507042              0.0074405964            0.000525932069           
       2.509683             0.00688477979            0.000498175105           
       2.512323             0.00676043337            0.000518461254           
       2.514963             0.00611987357            0.000487193366           
       2.517604             0.00702089882            0.000541475704           
       2.520244             0.00701178193            0.000507304765           
       2.522884             0.00734846087             0.00052676846           
       2.525525             0.00713709981            0.000525029879           
       2.528165             0.00721725971            0.000519740232           
       2.530806             0.00765860354             0.00054472788           
       2.533446              0.0123338627             0.00067652567           
       2.536086             0.00971958121            0.000595187636           
       2.538727             0.00683742276            0.000478908466           
       2.541367             0.00792213424            0.000520576393           
       2.544008             0.00671373067            0.000494929124           
       2.546648             0.00694235495             0.00051191825           
       2.549288             0.00808753666            0.000563787575           
       2.551929             0.00691934244            0.000513170036           
       2.554569             0.00731031836             0.00050817233           
       2.557209             0.00719393782            0.000508740683           
       2.559850             0.00788618302             0.00053436614           
       2.562490             0.00727409101            0.000530429799           
       2.565131             0.00689533635            0.000535463813           
       2.567771             0.00729693241            0.000531088907           
       2.570411             0.00778783085            0.000542726102           
       2.573052             0.00790552983            0.000553698218           
       2.575692             0.00774302387            0.000544659484           
       2.578332             0.00617513966            0.000488410936           
       2.580973             0.00713458845            0.000519989408           
       2.583613             0.00656966306            0.000487097072           
       2.586254             0.00743012344            0.000517294665           
       2.588894              0.0069857947            0.000520876104           
       2.591534             0.00612173595            0.000504757642           
       2.594175             0.00740733383            0.000544757074           
       2.596815             0.00689138471            0.000528540602           
       2.599456             0.00663717151            0.000491881231           
       2.602096              0.0065786922             0.00049343633           
       2.604736             0.00732460386               0.000533005           
       2.607377             0.00683640263            0.000501365492           
       2.610017             0.00677597893            0.000490410052           
       2.612657             0.00569828571             0.00047834861           
       2.615298             0.00670110701            0.000506448701           
       2.617938             0.00744535916             0.00057106435           
       2.620579             0.00705426334            0.000533623208           
       2.623219             0.00765761217             0.00055518285           
       2.625859              0.0066609121            0.000503440073           
       2.628500             0.00714067213            0.000517838668           
       2.631140             0.00719886527            0.000527955917           
       2.633780             0.00664502868            0.000506799717           
       2.636421             0.00718188293            0.000539831246           
       2.639061             0.00710730376            0.000505543578           
       2.641702             0.00781953834            0.000542545651           
       2.644342             0.00770320026            0.000540789074           
       2.646982             0.00725828867             0.00051709199           
       2.649623             0.00617854559            0.000499963688           
       2.652263             0.00744040943            0.000543142278           
       2.654904             0.00770409328            0.000553238828           
       2.657544             0.00650668382            0.000478888952           
       2.660184             0.00701598126            0.000526264847           
       2.662825             0.00743031357            0.000554145977           
       2.665465             0.00649790655            0.000501196218           
       2.668105             0.00820603442            0.000593668667           
       2.670746             0.00721285301             0.00051416526           
       2.673386              0.0123374166            0.000693015719           
       2.676027              0.0135885399            0.000715633582           
       2.678667             0.00827289539            0.000544843341           
       2.681307              0.0115659339            0.000632981379           
       2.683948              0.0137949401            0.000710268786           
       2.686588              0.0103781425            0.000605842982           
       2.689229              0.0103726437            0.000591847854           
       2.691869             0.00903716864             0.00058386934           
       2.694509             0.00829606677            0.000559724311           
       2.697150             0.00706130277             0.00050801518           
       2.699790             0.00710243318            0.000534129762           
       2.702430             0.00811071003            0.000545601954           
       2.705071             0.00629581374            0.000496710776           
       2.707711              0.0068774722            0.000503873064           
       2.710352             0.00700438472            0.000537294833           
       2.712992             0.00610603181             0.00051093303           
       2.715632             0.00717722404            0.000513946388           
       2.718273             0.00584330967            0.000480597967           
       2.720913             0.00651927339            0.000506191216           
       2.723553             0.00614308756            0.000494666537           
       2.726194             0.00722387079            0.000560734685           
       2.728834             0.00731157292            0.000564392915           
       2.731475             0.00748699585            0.000527096804           
       2.734115             0.00798731988            0.000561320257           
       2.736755             0.00709366609             0.00053334166           
       2.739396             0.00668769751            0.000514854952           
       2.742036             0.00773026488            0.000579307769           
       2.744677             0.00710461713            0.000538862106           
       2.747317             0.00776641034            0.000559383353           
       2.749957             0.00710647239            0.000538844641           
       2.752598             0.00839059193            0.000591862254           
       2.755238             0.00768575855            0.000576683842           
       2.757878             0.00799874435            0.000583165045           
       2.760519              0.0098131066            0.000639078669           
       2.763159              0.0110832427            0.000672392167           
       2.765800             0.00791964331            0.000541661323           
       2.768440              0.0084541072             0.00056376299           
       2.771080             0.00859528948            0.000573195795           
       2.773721             0.00796397007            0.000565976818           
       2.776361             0.00698235159            0.000537260929           
       2.779001             0.00853726264            0.000615228321           
       2.781642             0.00628277932            0.000523890487           
       2.784282             0.00639349099            0.000537176581           
       2.786923             0.00679999975            0.000558868491           
       2.789563             0.00616812115            0.000512638096           
       2.792203              0.0067991172            0.000514154814           
       2.794844             0.00811571716            0.000615651831           
       2.797484             0.00614686085            0.000505659478           
       2.800125             0.00837947443            0.000620796519           
       2.802765               0.007629926            0.000582189944           
       2.805405              0.0064730249            0.000538053687           
       2.808046             0.00680316194            0.000561300897           
       2.810686             0.00609192198            0.000488065433           
       2.813326             0.00670040257            0.000531681446           
       2.815967             0.00708349491            0.000562212898           
       2.818607             0.00751056928             0.00055244188           
       2.821248             0.00661191535            0.000507577705           
       2.823888              0.0066173588            0.000527095362           
       2.826528              0.0060103928            0.000486492051           
       2.829169             0.00595494605            0.000507217267           
       2.831809              0.0061711294            0.000523365361           
       2.834449               0.005972152            0.000518112479           
       2.837090             0.00578202072            0.000492384378           
       2.839730              0.0058468065            0.000492717736           
       2.842371             0.00699720738            0.000539793375           
       2.845011              0.0067991672            0.000536341089           
       2.847651               0.007011511            0.000545320811           
       2.850292             0.00661203867            0.000534755672           
       2.852932             0.00695598807            0.000560441376           
       2.855573             0.00782510662            0.000576607472           
       2.858213             0.00618788069             0.00053845022           
       2.860853             0.00757398582            0.000554149639           
       2.863494              0.0072909699            0.000562923068           
       2.866134             0.00661792279            0.000557429495           
       2.868774             0.00692811974             0.00056053113           
       2.871415             0.00631359879            0.000543429435           
       2.874055             0.00722374474            0.000555632018           
       2.876696             0.00662935658            0.000546679453           
       2.879336             0.00779247623            0.000571248685           
       2.881976             0.00717078726            0.000565211637           
       2.884617             0.00660185974            0.000534361605           
       2.887257             0.00738302458            0.000568008884           
       2.889897             0.00796839431            0.000577952186           
       2.892538             0.00714246812            0.000599438296           
       2.895178             0.00660799156            0.000520896208           
       2.897819             0.00712422495              0.0005517294           
       2.900459             0.00632437278            0.000509723186           
       2.903099             0.00708341281            0.000533922878           
       2.905740             0.00740905961            0.000560185762           
       2.908380             0.00697324001            0.000549635274           
       2.911021             0.00734340907            0.000573205426           
       2.913661             0.00767861633            0.000585966496           
       2.916301             0.00617891028            0.000526139865           
       2.918942             0.00643358303            0.000513532411           
       2.921582              0.0067829363            0.000551698188           
       2.924222             0.00754792559            0.000563824655           
       2.926863             0.00721429272            0.000574162124           
       2.929503             0.00814555141            0.000617323682           
       2.932144              0.0062913642            0.000520797238           
       2.934784             0.00716971891            0.000546848605           
       2.937424             0.00695038387            0.000543946922           
       2.940065             0.00741541015            0.000535950991           
       2.942705             0.00672311752            0.000509680054           
       2.945346              0.0077576564            0.000581027276           
       2.947986             0.00620106127            0.000529684254           
       2.950626             0.00769376479            0.000586680105           
       2.953267              0.0072423147            0.000560010617           
       2.955907             0.00688174754            0.000566288192           
       2.958547             0.00726942675            0.000549457134           
       2.961188             0.00655249587            0.000544236501           
       2.963828             0.00778424704            0.000580247836           
       2.966469             0.00666699481            0.000526790285           
       2.969109             0.00853404691            0.000604836154           
       2.971749             0.00681385978            0.000537080102           
       2.974390             0.00827059784            0.000581466047           
       2.977030             0.00800956927            0.000585004672           
       2.979670             0.00864503719            0.000591171888           
       2.982311             0.00855436442            0.000609498215           
       2.984951             0.00719171315            0.000531514889           
       2.987592             0.00765808935            0.000559463894           
       2.990232             0.00823931816            0.000603512579           
       2.992872             0.00830570923            0.000570760485           
       2.995513             0.00869362606            0.000571282617           
       2.998153              0.0104758984            0.000637649835           
       3.000794              0.0132524901            0.000694674002           
       3.003434              0.0120018871            0.000662082801           
       3.006074               0.057007765             0.00142273641           
       3.008715               0.131465132              0.0020856006           
       3.011355               0.162898111              0.0022387542           
       3.013995              0.0751136148             0.00152436063           
       3.016636              0.0576467313             0.00130768614           
       3.019276               0.121920326             0.00186938503           
       3.021917                0.50477104               0.003657456           
       3.024557                1.80638864             0.00680248306           
       3.027197                 1.0930479             0.00515896568           
       3.029838               0.501252391             0.00354313964           
       3.032478               0.261526098             0.00256188078           
       3.035118              0.0776349469             0.00141454841           
       3.037759               0.105020646             0.00164310694           
       3.040399               0.159775787             0.00209056524           
       3.043040               0.587961725             0.00405951093           
       3.045680               0.372859595             0.00304155732           
       3.048320              0.0772487091             0.00141454291           
       3.050961               0.113271098              0.0017430739           
       3.053601              0.0828640759             0.00143588729           
       3.056242              0.0537065766             0.00122905409           
       3.058882              0.0500877697             0.00127321759           
       3.061522              0.0387418068             0.00109862252           
       3.064163              0.0472083375             0.00119746929           
       3.066803               0.105087643             0.00188092037           
       3.069443               0.109203297             0.00200609037           
       3.072084              0.0503944289             0.00132697827           
       3.074724              0.0385178873             0.00129559169           
       3.077365              0.0858185258              0.0020018938           
       3.080005              0.0156590685            0.000859978218           
       3.082645              0.0098941012            0.000718122246           
       3.085286              0.0116727357            0.000786157425           
       3.087926             0.00906492878            0.000687456543           
       3.090566              0.0116465754            0.000763488867           
       3.093207              0.0107180601            0.000762161413           
       3.095847             0.00891177046            0.000666125453           
       3.098488             0.00848170781             0.00072057668           
       3.101128             0.00818467696            0.000712399099           
       3.103768             0.00989906701            0.000768725462           
       3.106409              0.0107422803             0.00085226329           
       3.109049             0.00901259606            0.000749141021           
       3.111690             0.00884299655            0.000729320035           
       3.114330             0.00794850627            0.000706160062           
       3.116970             0.00708025228            0.000671592998           
       3.119611              0.0136319152            0.000991925342           
       3.122251              0.0232639942             0.00135546501           
       3.124891              0.0362191371             0.00170703264           
       3.127532              0.0198887652             0.00123749879           
       3.130172              0.0131818153             0.00102486988           
       3.132813              0.0074636873            0.000759203748           
       3.135453             0.00817633168            0.000788077073           
       3.138093             0.00631958661            0.000750718081           
       3.140734             0.00744233444            0.000751605153           
       3.143374             0.00730032763            0.000787235495           
       3.146014             0.00687837971            0.000822638434           
       3.148655             0.00764004453            0.000805947076           
       3.151295             0.00580404235            0.000748584839           
       3.153936             0.00620693415            0.000747786943           
       3.156576             0.00560799783            0.000701124905           
       3.159216             0.00566155693            0.000707988582           
       3.161857             0.00689241402            0.000777988009           
       3.164497             0.00900234471             0.00093421896           
       3.167138             0.00772912994             0.00089441501           
       3.169778             0.00648825463            0.000805964497           
       3.172418             0.00586599757             0.00075854755           
       3.175059             0.00601151948             0.00068077481           
       3.177699             0.00760332253            0.000810744864           
       3.180339             0.00704277888            0.000836017313           
       3.182980             0.00666998223            0.000841169352           
       3.185620             0.00560633039            0.000785389661           
       3.188261             0.00672579958            0.000875587601           
       3.190901             0.00771529462            0.000862491255           
       3.193541             0.00530128557            0.000751228562           
       3.196182             0.00671272333            0.000880964421           
       3.198822             0.00485019285            0.000749090068           
       3.201463             0.00659776878            0.000858629081           
       3.204103             0.00652710171             0.00084882247           
       3.206743             0.00550720292            0.000779617272           
       3.209384             0.00540038144            0.000834100884           
       3.212024             0.00524518304            0.000766388048           
       3.214664             0.00521264767            0.000868785307           
       3.217305             0.00691702997            0.000951320353           
       3.219945             0.00678934603            0.000970074815           
       3.222586              0.0053975249            0.000823845918           
       3.225226             0.00680799781             0.00102641904           
       3.227866             0.00617936851            0.000893775543           
       3.230507             0.00553971284            0.000877233296           
       3.233147             0.00835479185             0.00108600564           
       3.235787             0.00781583955             0.00107494664           
       3.238428             0.00601899501             0.00101796643           
       3.241068             0.00689694872             0.00101890725           
       3.243709             0.00660772508             0.00103038435           
       3.246349             0.00613697244            0.000905214397           
       3.248989             0.00817273069             0.00123346253           
       3.251630             0.00431330589            0.000862902013           
       3.254270              0.0057827815            0.000892956939           
       3.256911             0.00770415237             0.00112458809           
       3.259551             0.00532525593             0.00100658697           
       3.262191             0.00553565009             0.00104829258           
       3.264832             0.00497640355             0.00103850841           
       3.267472             0.00704641403             0.00115928153           
       3.270112             0.00370841522            0.000929418637           
       3.272753             0.00683200112             0.00115469145           
       3.275393             0.00650525641              0.0011496686           
       3.278034               0.006104968             0.00111436278           
       3.280674             0.00502516461             0.00109709784           
       3.283314             0.00573075241              0.0010478175           
       3.285955             0.00592677559              0.0010994522           
       3.288595             0.00430042491             0.00104192734           
       3.291235             0.00502483869             0.00115779671           
       3.293876             0.00879923329              0.0015541396           
       3.296516             0.00580275381             0.00121161897           
       3.299157             0.00543177941             0.00115752001           
       3.301797             0.00675262259             0.00147217466           
       3.304437              0.0036006394            0.000931369037           
       3.307078             0.00756457581             0.00148707564           
       3.309718             0.00340906885             0.00103041923           
       3.312359             0.00840721923             0.00161854735           
       3.314999             0.00542462847             0.00128007686           
       3.317639             0.00609359543             0.00129752887           
       3.320280             0.00528724859              0.0012850282           
       3.322920             0.00418458625             0.00116244608           
       3.325560             0.00353931559             0.00106979645           
       3.328201             0.00444780784             0.00108008108           
       3.330841             0.00424072141              0.0012835598           
       3.333482             0.00628168345             0.00147662957           
       3.336122             0.00587738042             0.00142897631           
       3.338762             0.00278317607             0.00113590938           
       3.341403             0.00504449421              0.0014612719           
       3.344043             0.00619172148              0.0015543058           
       3.346683             0.00525971538             0.00146252382           
       3.349324             0.00514649433              0.0016265634           
       3.351964             0.00514654781             0.00172003907           
       3.354605              0.0067766964             0.00225727012           
       3.357245             0.00238305735             0.00120753443           
       3.359885             0.00747312309             0.00171146852           
       3.362526             0.00242407625             0.00121895934           
       3.365166             0.00546666724             0.00172654631           
       3.367807             0.00621435695             0.00235589545           
       3.370447              0.0055275913             0.00184310256           
       3.373087             0.00698390286             0.00221542928           
       3.375728             0.00176522925             0.00125703851           
       3.378368             0.00385765325             0.00275790637           
       3.381008             0.00878070754             0.00310213588           
       3.383649             0.00777718796             0.00234202657           
       3.386289              0.0049523103             0.00221189744           
       3.388930             0.00742694389             0.00428459175           
       3.391570              0.0036202629             0.00211610357           
       3.394210             0.00993235887             0.00443570886           
       3.396851           -2.64842494e-05                         0           
       3.399491             0.00475396786             0.00343368807           
       3.402131           -2.65213015e-05                         0           
       3.404772              0.0096914353             0.00981167235           
       3.407412                       nan                       nan           
       3.410053              0.0186160787              0.0136153016           
       3.412693                       nan                       nan           
       3.415333              0.0090298831              0.0094915862           
