################################################################################
# EDF_DataBlockID                     0.Image.Psd
# EDF_BinarySize                      2105344
# EDF_HeaderSize                      2560
# ByteOrder                           LowByteFirst
# DataType                            FloatValue
# Dim_1                               512
# Dim_2                               1028
# Image                               0
# HeaderID                            EH:000000:000000:000000
# Size                                2105344
# Center_1                            304.9000
# Center_2                            588.7000
# Comment                             Xenocs_Cell_Window - 20251028_20perc_iodine_1.23mg
# DDummy                              0.6
# Date                                2025-10-30T01:53:42
# Delta                               21.910000
# Dummy                               -1.5
# ExposureTime                        360
# Gamma                               15.360000
# Intensity1                          8.45708e-10
# PSize_1                             7.5e-05
# PSize_2                             7.5e-05
# Pressure                            0.0325871
# SampleDistance                      0.115750
# SampleEnvKind                       large
# SampleEnvPN                         ElectroChemical cell
# SampleEnvSN                         1141
# Thickness                           0
# Wavelength                          1.541891e-10
# Wavelength                          1.54189e-10
# aux                                 0
# aux_dial                            0.002375
# beamx                               588.434
# beamx_dial                          588.434
# beamz                               657.808
# beamz_dial                          657.808
# det0x                               0
# det0x_dial                          6.36945
# det0xvd                             0
# det0xvd_dial                        0
# det0y                               450.002
# det0y_dial                          481.635
# det0z                               0
# det0z_dial                          1.23302
# det0zvd                             0
# det0zvd_dial                        0
# mag                                 1.818
# mag_dial                            1.818
# om                                  0.2499
# om_dial                             -0.610199
# phi                                 -0.0120535
# phi_dial                            0
# ry                                  0.599993
# ry_dial                             0.599993
# s1bot                               0.8
# s1bot_dial                          -1.66094
# s1hl                                0.8
# s1hl_dial                           -0.608437
# s1hr                                0.8
# s1hr_dial                           0.970938
# s1top                               0.8
# s1top_dial                          -0.461562
# s2bot                               0.45
# s2bot_dial                          1.36109
# s2hl                                0.45
# s2hl_dial                           -0.83375
# s2hr                                0.45
# s2hr_dial                           -0.118594
# s2top                               0.45
# s2top_dial                          1.44734
# w2theta                             32
# w2theta_dial                        32
# waxsch                              19.2605
# waxsch_dial                         -32.7355
# waxsh                               137.085
# waxsh_dial                          -43.5338
# waxsth                              26.0607
# waxsth_dial                         -19.4086
# waxsz                               67.0407
# waxsz_dial                          -23.7954
# wind                                65.9854
# wind_dial                           66.0041
# wpsi                                124
# wpsi_dial                           124
# wstod                               115
# wstod_dial                          115
# x                                   0
# x_dial                              1.00969
# z                                   0
# z_dial                              13.3172
# CountCutoff                         6807993
# DetectorModel                       Dectris EIGER2 Si 500K, S/N E-01-0554
# ThresholdSetting                    4023.88989258
# Saturation                          0
# FlatField                           Corrected
# BackgroundReductionExtra            0.02
# BackgroundCorrectionConstant        0.0026712
# Detector                            0
# Monitor                             0
# Pil_Roi0                            0
# SumForIntensity1                    3.04455e+08
# TransmittedFlux                     845708
# det                                 0
# mon                                 0
# pilai0                              3.04455e+08
# pilai1                              769313
# pilct0                              5.27589e+08
# pilct1                              769313
# pilroi0                             0
# pilroi1                             0
# sec                                 1
# title                               20251028_20perc_iodine_1.23mg_1_00323.edf
# usaxs0                              0
# Operation                           Azimuthal average I(q)
# Error_model                         ErrorModel.poisson
# Geometrical_correction              True
# Transmission_correction             True
# Thickness_correction                False
# Binning mode                        Uniform
# Binning factor                      1.0
# Psi                                 0.0
# Omega                               0.2499
# MaskInvalidPixels                   True
# DetectorEdge                        3
# MaskFiles                           ['WAXS_corrected.edf']
################################################################################
    q(A⁻¹)                Intensity(a.u.)            Sigma_I(a.u.)            
       0.693100              0.0041717192             0.00432973566           
       0.695741               0.002777249             0.00288282963           
       0.698381             0.00421809657             0.00435193785           
       0.701021             0.00891307563             0.00894314775           
       0.703662             0.00575787352             0.00414903533           
       0.706302             0.00867273087             0.00394231354           
       0.708942              0.0144568528             0.00656948252           
       0.711583             0.00892824326             0.00447057189           
       0.714223             0.00892506203             0.00516042674           
       0.716864             0.00373742788              0.0021849283           
       0.719504             0.00592082327             0.00296762953           
       0.722144              0.0101490146             0.00359813449           
       0.724785             0.00721529037             0.00242004679           
       0.727425             0.00745098616             0.00332693091           
       0.730065             0.00813484287             0.00245896703           
       0.732706             0.00733801669             0.00196117439           
       0.735346             0.00350291837             0.00176630617           
       0.737987             0.00792520578             0.00187738491           
       0.740627             0.00883339522             0.00295732029           
       0.743267             0.00748582963             0.00182346176           
       0.745908              0.0078618738             0.00202744205           
       0.748548              0.0092575201             0.00202790301           
       0.751189             0.00566437042             0.00213743147           
       0.753829              0.0116294752             0.00281527965           
       0.756469             0.00744410207             0.00181627243           
       0.759110             0.00488400722             0.00155036343           
       0.761750             0.00926244408             0.00188785584           
       0.764390             0.00719198852              0.0017411492           
       0.767031             0.00537352632             0.00130328785           
       0.769671             0.00589132353             0.00170228288           
       0.772312             0.00681846557             0.00139418361           
       0.774952             0.00831941321             0.00207961389           
       0.777592             0.00744352062             0.00143279069           
       0.780233             0.00681734996             0.00165434133           
       0.782873               0.006938774             0.00159625153           
       0.785513              0.0058507445             0.00156700108           
       0.788154              0.0067491404             0.00140790007           
       0.790794             0.00797448596             0.00182960772           
       0.793435             0.00778171923             0.00162365828           
       0.796075             0.00785949677             0.00157188361           
       0.798715             0.00829991822             0.00190885381           
       0.801356             0.00452623477             0.00121322182           
       0.803996               0.006384452             0.00146901491           
       0.806637             0.00744797736             0.00126268722           
       0.809277             0.00577131833             0.00120308264           
       0.811917             0.00678734513             0.00121967904           
       0.814558             0.00709846563             0.00129636618           
       0.817198             0.00598477059             0.00113087406           
       0.819838             0.00589007615              0.0011354373           
       0.822479             0.00664313799              0.0014159843           
       0.825119             0.00829200795             0.00134646596           
       0.827760             0.00673012519             0.00122876811           
       0.830400             0.00612572846             0.00110334781           
       0.833040             0.00762330935             0.00128955241           
       0.835681             0.00594193027             0.00129427359           
       0.838321             0.00735391718             0.00120852434           
       0.840961             0.00728761697             0.00131079505           
       0.843602             0.00632284612             0.00111966218           
       0.846242             0.00571376943             0.00106420986           
       0.848883              0.0103649067             0.00146681518           
       0.851523             0.00668902219             0.00116371193           
       0.854163             0.00548363808             0.00112051515           
       0.856804              0.0077605358             0.00119854717           
       0.859444             0.00763173145             0.00116455837           
       0.862085             0.00965239987             0.00136502123           
       0.864725             0.00688320934             0.00117967206           
       0.867365             0.00766066108             0.00115402397           
       0.870006             0.00741115737             0.00108163966           
       0.872646             0.00677807595             0.00108472227           
       0.875286             0.00528455866            0.000921451985           
       0.877927             0.00730214573             0.00104520126           
       0.880567             0.00787177508             0.00112429244           
       0.883208             0.00819105167             0.00113606177           
       0.885848             0.00656610931              0.0010561106           
       0.888488             0.00475018029            0.000842528605           
       0.891129             0.00628264886            0.000994908602           
       0.893769             0.00691374741             0.00099883163           
       0.896410             0.00774908535             0.00098591601           
       0.899050             0.00864343659             0.00114509958           
       0.901690             0.00810392563             0.00120779019           
       0.904331             0.00750652577             0.00103054979           
       0.906971             0.00800090714             0.00113186203           
       0.909611             0.00796706109             0.00102817506           
       0.912252             0.00805581124              0.0010678956           
       0.914892             0.00757969774             0.00113197166           
       0.917533             0.00601893203             0.00095424257           
       0.920173             0.00819922932             0.00103333596           
       0.922813             0.00687717495            0.000993106641           
       0.925454             0.00848305063            0.000993201365           
       0.928094             0.00858908833             0.00106693263           
       0.930734             0.00645013356            0.000995420237           
       0.933375             0.00825264717             0.00111488029           
       0.936015             0.00693167441            0.000927980413           
       0.938656             0.00745014061              0.0010320626           
       0.941296             0.00690585804            0.000900518838           
       0.943936             0.00902549624             0.00100956846           
       0.946577             0.00688968768            0.000876232325           
       0.949217             0.00780604813             0.00085768869           
       0.951858             0.00785555626            0.000900671523           
       0.954498             0.00761416994             0.00102636921           
       0.957138              0.0083266025             0.00101681684           
       0.959779             0.00797123842            0.000980749487           
       0.962419             0.00939807274             0.00105783068           
       0.965059             0.00789591404             0.00101977808           
       0.967700             0.00773253413             0.00103359286           
       0.970340             0.00692837906            0.000865763153           
       0.972981             0.00706736024            0.000796665497           
       0.975621             0.00671561489            0.000826155075           
       0.978261              0.0068770242            0.000794370211           
       0.980902             0.00848771674             0.00105587549           
       0.983542             0.00638404198            0.000810934289           
       0.986182             0.00726098223            0.000849094045           
       0.988823             0.00982344181            0.000958980887           
       0.991463             0.00777870716            0.000910445125           
       0.994104             0.00993031065             0.00100349592           
       0.996744             0.00866233065            0.000955978969           
       0.999384             0.00853286443            0.000848551834           
       1.002025             0.00842283592            0.000940969893           
       1.004665             0.00781806245            0.000828482858           
       1.007306             0.00815523766            0.000841828457           
       1.009946             0.00767905985            0.000833105336           
       1.012586             0.00812098525            0.000834416624           
       1.015227             0.00801076539             0.00089032066           
       1.017867             0.00750232533            0.000828060427           
       1.020507              0.0069495356            0.000771973755           
       1.023148             0.00837849668            0.000914618843           
       1.025788               0.009472827            0.000891720774           
       1.028429             0.00901660293            0.000911449827           
       1.031069             0.00782368707            0.000798958818           
       1.033709             0.00733529222            0.000822359359           
       1.036350             0.00794062887            0.000768462759           
       1.038990              0.0085580673            0.000812440463           
       1.041630              0.0078084073            0.000809419088           
       1.044271             0.00956668588            0.000842587471           
       1.046911              0.0074704391            0.000783193704           
       1.049552             0.00789112217            0.000845695488           
       1.052192               0.008780356            0.000814576288           
       1.054832              0.0076129235            0.000765392647           
       1.057473             0.00673870102            0.000709872838           
       1.060113             0.00875168264            0.000788976316           
       1.062754             0.00777673228             0.00075933777           
       1.065394             0.00818858919            0.000823800698           
       1.068034             0.00872578121            0.000773741196           
       1.070675             0.00897868141            0.000818719821           
       1.073315             0.00815800703            0.000791592933           
       1.075955             0.00759222485            0.000720929332           
       1.078596             0.00780408613            0.000776821784           
       1.081236             0.00843829971             0.00077349271           
       1.083877             0.00912689207            0.000797217336           
       1.086517             0.00791675323            0.000796163307           
       1.089157             0.00862147586            0.000862093582           
       1.091798             0.00898578603            0.000771615265           
       1.094438             0.00841395754            0.000744250187           
       1.097078             0.00836609507            0.000711780876           
       1.099719              0.0101463678            0.000847867785           
       1.102359             0.00876615585            0.000738058448           
       1.105000             0.00806889314             0.00079179115           
       1.107640             0.00823493481            0.000764831033           
       1.110280             0.00695587326            0.000641368787           
       1.112921             0.00900368951            0.000783851788           
       1.115561             0.00808633438            0.000706014159           
       1.118202             0.00895835027            0.000743807601           
       1.120842             0.00961456765            0.000809872895           
       1.123482             0.00851310695            0.000758743599           
       1.126123              0.0101854457              0.0007960411           
       1.128763             0.00920163997            0.000761808106           
       1.131403             0.00900728127            0.000726273431           
       1.134044             0.00929637266            0.000759235418           
       1.136684             0.00880818422            0.000787935618           
       1.139325             0.00919310165            0.000741535536           
       1.141965             0.00878409437            0.000729644067           
       1.144605              0.0072584426            0.000632421064           
       1.147246              0.0107874185            0.000789031804           
       1.149886             0.00952130911            0.000738651548           
       1.152527             0.00854109433            0.000709770706           
       1.155167             0.00902788939            0.000694071949           
       1.157807             0.00967624877             0.00077042763           
       1.160448              0.0090719374             0.00072847054           
       1.163088             0.00915058138            0.000697859017           
       1.165728             0.00841721126            0.000687193467           
       1.168369             0.00935195874            0.000731038157           
       1.171009             0.00908718068            0.000699337373           
       1.173650             0.00955977849            0.000736112759           
       1.176290             0.00854510422            0.000680100951           
       1.178930              0.0093138106            0.000695896773           
       1.181571             0.00928823533             0.00070872159           
       1.184211              0.0093426198            0.000713313588           
       1.186851             0.00837891248            0.000660448867           
       1.189492               0.009719373             0.00070653373           
       1.192132             0.00947465395            0.000689755416           
       1.194773             0.00971943808            0.000701661151           
       1.197413             0.00940097785            0.000661185095           
       1.200053             0.00844509134            0.000642592448           
       1.202694             0.00915508949            0.000636237295           
       1.205334              0.0101687288            0.000722626374           
       1.207975             0.00986025311            0.000679224389           
       1.210615             0.00854558058            0.000697561389           
       1.213255             0.00949591771            0.000658467803           
       1.215896              0.0106007836            0.000708326672           
       1.218536              0.0103443175            0.000672797162           
       1.221176             0.00993138582            0.000716720235           
       1.223817               0.010194272            0.000681643841           
       1.226457             0.00965474829             0.00067672518           
       1.229098             0.00977214678            0.000680793954           
       1.231738               0.010483142            0.000708595894           
       1.234378             0.00923977351            0.000625100456           
       1.237019             0.00962739002            0.000657532831           
       1.239659              0.0109875948            0.000696329444           
       1.242299             0.00920836768            0.000629363638           
       1.244940              0.0108657344            0.000664901743           
       1.247580               0.010878743            0.000685645678           
       1.250221             0.00976400194            0.000645559472           
       1.252861              0.0103196245            0.000631820072           
       1.255501               0.011095343            0.000711353085           
       1.258142              0.0102201156            0.000641538125           
       1.260782              0.0100413528            0.000649661905           
       1.263423             0.00967378577            0.000612719624           
       1.266063              0.0116954831            0.000690532879           
       1.268703              0.0106082668            0.000652196794           
       1.271344              0.0108339371            0.000681434689           
       1.273984              0.0104685394            0.000646937844           
       1.276624             0.00995879939            0.000619136636           
       1.279265              0.0094622509            0.000613526252           
       1.281905              0.0104566028            0.000647820113           
       1.284546              0.0108829899            0.000638816082           
       1.287186              0.0100335678            0.000601790603           
       1.289826              0.0101375521            0.000637516058           
       1.292467              0.0118151667             0.00067308807           
       1.295107              0.0109281395            0.000640898722           
       1.297747              0.0107410229            0.000608013688           
       1.300388              0.0113908605            0.000682567483           
       1.303028              0.0099782991            0.000609879903           
       1.305669              0.0109318467            0.000653555669           
       1.308309              0.0111139851            0.000652488327           
       1.310949              0.0108892801            0.000645209502           
       1.313590              0.0106203435            0.000617274292           
       1.316230              0.0104863891            0.000654549998           
       1.318871               0.010564039            0.000643420416           
       1.321511             0.00929389939            0.000592316071           
       1.324151              0.0107585841            0.000618389561           
       1.326792              0.0108720949            0.000625486474           
       1.329432              0.0112193767            0.000630913871           
       1.332072              0.0116044883            0.000632088194           
       1.334713              0.0115708711             0.00065143212           
       1.337353              0.0107508871            0.000602193314           
       1.339994               0.011646312            0.000657732356           
       1.342634              0.0118524873            0.000636282401           
       1.345274              0.0123178941            0.000671296388           
       1.347915              0.0102321443            0.000594932524           
       1.350555              0.0121737419            0.000660293095           
       1.353195               0.011292254            0.000639061779           
       1.355836              0.0113566572            0.000630888227           
       1.358476              0.0113655721            0.000612928686           
       1.361117              0.0112689634            0.000611155878           
       1.363757              0.0110713236            0.000624269818           
       1.366397              0.0108544639            0.000599420402           
       1.369038              0.0107791665            0.000603285522           
       1.371678              0.0114954371            0.000617514724           
       1.374319              0.0110807344            0.000601053325           
       1.376959              0.0122498997            0.000625612458           
       1.379599              0.0111820973            0.000640579211           
       1.382240              0.0117364044            0.000616789872           
       1.384880               0.011601176            0.000649545892           
       1.387520              0.0116141871            0.000617239612           
       1.390161              0.0106421888            0.000561162488           
       1.392801             0.00982057094            0.000561653978           
       1.395442              0.0114513465            0.000614780489           
       1.398082              0.0113090823            0.000572127803           
       1.400722               0.011732709            0.000610411958           
       1.403363              0.0104005299            0.000604956089           
       1.406003              0.0110244913             0.00058289311           
       1.408644              0.0114506585            0.000622308687           
       1.411284              0.0101805598            0.000555630082           
       1.413924              0.0110596966            0.000576976987           
       1.416565              0.0115770555            0.000587999051           
       1.419205              0.0114676917              0.0006104728           
       1.421845              0.0113875825            0.000607979587           
       1.424486              0.0110873996            0.000576654034           
       1.427126              0.0112906495              0.0006044977           
       1.429767               0.012035226            0.000587213232           
       1.432407              0.0105623934            0.000575703413           
       1.435047              0.0108954614            0.000549139648           
       1.437688              0.0109015395            0.000557505686           
       1.440328             0.00957812532            0.000533342778           
       1.442968              0.0100669228            0.000559033375           
       1.445609              0.0112875384            0.000573176989           
       1.448249              0.0105216145            0.000567400171           
       1.450890              0.0107205947            0.000569002003           
       1.453530              0.0107256608            0.000595431176           
       1.456170              0.0106368672            0.000575482931           
       1.458811              0.0109074956            0.000557245408           
       1.461451              0.0104171377            0.000546004156           
       1.464092              0.0104798855             0.00055122653           
       1.466732              0.0105674154            0.000548767148           
       1.469372             0.00952799798             0.00050888529           
       1.472013              0.0107172232            0.000582087674           
       1.474653              0.0102677518            0.000560961675           
       1.477293              0.0116571121              0.0006103084           
       1.479934              0.0106481723             0.00055658931           
       1.482574              0.0113647021            0.000556233563           
       1.485215              0.0114656788            0.000569105098           
       1.487855              0.0103200997            0.000547048888           
       1.490495              0.0109578662            0.000561622849           
       1.493136              0.0110434733            0.000556084279           
       1.495776              0.0104813154            0.000539279196           
       1.498416             0.00996694004            0.000543085349           
       1.501057              0.0102550355            0.000538737862           
       1.503697              0.0100105759             0.00052038656           
       1.506338              0.0104779717            0.000542125198           
       1.508978              0.0116927118            0.000567056697           
       1.511618              0.0109024362            0.000583147285           
       1.514259             0.00985993318            0.000535407774           
       1.516899              0.0101138199            0.000527978719           
       1.519540             0.00994061893            0.000531879165           
       1.522180              0.0110815436             0.00056650636           
       1.524820              0.0103946791            0.000545590434           
       1.527461              0.0104078503            0.000548636008           
       1.530101             0.00933104857             0.00051428486           
       1.532741              0.0102270047            0.000535284941           
       1.535382              0.0100151742            0.000538240012           
       1.538022              0.0104322063            0.000517499718           
       1.540663              0.0104993081            0.000558390119           
       1.543303              0.0107746267            0.000525228206           
       1.545943              0.0101336114            0.000539125176           
       1.548584             0.00997799157            0.000544572577           
       1.551224              0.0111521032            0.000532309111           
       1.553864              0.0110017763            0.000558680124           
       1.556505             0.00957310197             0.00050343908           
       1.559145              0.0107747372             0.00054064435           
       1.561786              0.0109473779             0.00054537814           
       1.564426             0.00991530636            0.000502889823           
       1.567066             0.00999133177            0.000528948241           
       1.569707             0.00981127269            0.000514744776           
       1.572347             0.00985996099            0.000533100665           
       1.574988             0.00960440928            0.000500803561           
       1.577628             0.00998484385             0.00053245676           
       1.580268              0.0101311297            0.000519659279           
       1.582909              0.0101247225            0.000550643966           
       1.585549             0.00976527793            0.000525081308           
       1.588189             0.00990438969             0.00051726668           
       1.590830             0.00873736662            0.000485227599           
       1.593470             0.00919714346            0.000517542772           
       1.596111              0.0096240876            0.000516877443           
       1.598751             0.00951530735            0.000497998416           
       1.601391             0.00974807578            0.000515173556           
       1.604032             0.00929255303            0.000513507794           
       1.606672             0.00908501496            0.000493318703           
       1.609312               0.010145097            0.000544182666           
       1.611953              0.0100871771            0.000530994377           
       1.614593             0.00927985165            0.000499585196           
       1.617234             0.00844346353            0.000493874971           
       1.619874             0.00891239393            0.000505399626           
       1.622514             0.00894189514            0.000499329609           
       1.625155              0.0099014634            0.000528542933           
       1.627795             0.00975456279             0.00051175366           
       1.630436             0.00904621522            0.000490249126           
       1.633076             0.00935285615            0.000505026787           
       1.635716             0.00952404475            0.000501698298           
       1.638357             0.00937275388            0.000499009424           
       1.640997              0.0093851515            0.000514465344           
       1.643637             0.00862960346            0.000480058371           
       1.646278             0.00952358184            0.000520156915           
       1.648918             0.00833836913            0.000488042778           
       1.651559             0.00907788142            0.000513177184           
       1.654199             0.00949688467            0.000510498538           
       1.656839             0.00887735666            0.000493738879           
       1.659480             0.00884845135            0.000511445007           
       1.662120             0.00920221968            0.000491231892           
       1.664761             0.00990980947            0.000529517785           
       1.667401              0.0084939062            0.000468556797           
       1.670041               0.008814806             0.00048460392           
       1.672682             0.00823775019            0.000466547804           
       1.675322             0.00892854227             0.00048259229           
       1.677962             0.00869886754            0.000471090139           
       1.680603             0.00908555944             0.00048292854           
       1.683243             0.00934841807              0.0005110824           
       1.685884             0.00860309744            0.000493906348           
       1.688524             0.00938525105            0.000505898001           
       1.691164             0.00830916912            0.000476121045           
       1.693805             0.00842589454            0.000484720592           
       1.696445             0.00842963986            0.000487640661           
       1.699085             0.00814243287            0.000463202298           
       1.701726             0.00784846718            0.000438085685           
       1.704366             0.00912793145            0.000497709651           
       1.707007             0.00887068215            0.000479709107           
       1.709647             0.00899258855            0.000488448582           
       1.712287             0.00794107861            0.000462999038           
       1.714928             0.00963604757            0.000514135163           
       1.717568             0.00839551369            0.000452068462           
       1.720209             0.00937212457            0.000500293513           
       1.722849              0.0078645394              0.0004559361           
       1.725489              0.0094518182            0.000500252807           
       1.728130             0.00899237854            0.000518546737           
       1.730770             0.00823985098            0.000471423275           
       1.733410             0.00941160349            0.000495909286           
       1.736051              0.0083488586            0.000470323196           
       1.738691             0.00805714948            0.000452667577           
       1.741332             0.00875468183            0.000485652685           
       1.743972             0.00848471257            0.000493725618           
       1.746612             0.00953966459            0.000502713091           
       1.749253             0.00822813074            0.000476098991           
       1.751893             0.00767916588              0.0004565666           
       1.754533             0.00847438698            0.000479176476           
       1.757174             0.00858329591             0.00047772974           
       1.759814             0.00815896526            0.000458711166           
       1.762455              0.0089900193            0.000490347897           
       1.765095              0.0091983464            0.000474481254           
       1.767735             0.00902032397            0.000484362726           
       1.770376             0.00988578365            0.000508403592           
       1.773016             0.00883572687            0.000477425259           
       1.775657             0.00811325911            0.000450907674           
       1.778297             0.00943212626            0.000481990979           
       1.780937             0.00911646297            0.000500155882           
       1.783578              0.0088926798            0.000481627472           
       1.786218             0.00834726322             0.00048697309           
       1.788858             0.00835255712            0.000462653573           
       1.791499             0.00819504441            0.000453123643           
       1.794139             0.00916768748            0.000475371439           
       1.796780             0.00900643614            0.000468900738           
       1.799420             0.00877833923            0.000460361407           
       1.802060             0.00929463931             0.00047753239           
       1.804701             0.00959689232            0.000465653324           
       1.807341             0.00980135948            0.000494485298           
       1.809981             0.00957063066            0.000490259536           
       1.812622             0.00858171639            0.000455882482           
       1.815262              0.0085323107            0.000464224388           
       1.817903              0.0090308403            0.000470517378           
       1.820543             0.00859213123            0.000466097895           
       1.823183             0.00931262308            0.000484980063           
       1.825824             0.00964692241             0.00047157317           
       1.828464             0.00971693765            0.000493416283           
       1.831105              0.0080900484            0.000437771921           
       1.833745             0.00901185954            0.000471907745           
       1.836385             0.00815036183            0.000461592637           
       1.839026             0.00922576435             0.00048955028           
       1.841666             0.00882127203            0.000477000701           
       1.844306             0.00866925701            0.000459970251           
       1.846947             0.00851114361            0.000459751427           
       1.849587             0.00899601638            0.000521937705           
       1.852228             0.00808945318            0.000447549011           
       1.854868             0.00836097454            0.000480638074           
       1.857508             0.00914567124            0.000497756536           
       1.860149             0.00916076561             0.00050721811           
       1.862789             0.00879554886            0.000479724301           
       1.865429              0.0084875173            0.000491912014           
       1.868070             0.00884814676            0.000495559662           
       1.870710             0.00934738365            0.000497605444           
       1.873351             0.00937798148            0.000504580811           
       1.875991             0.00941504266            0.000513827983           
       1.878631             0.00841214886            0.000476388972           
       1.881272              0.0087190538            0.000481751656           
       1.883912              0.0080657418            0.000482214279           
       1.886553             0.00941326429            0.000515116274           
       1.889193              0.0089649665            0.000501841742           
       1.891833             0.00877622507            0.000515666753           
       1.894474             0.00935144769            0.000527662032           
       1.897114             0.00800491371            0.000472417658           
       1.899754             0.00771545551            0.000465738256           
       1.902395             0.00817927184            0.000470157499           
       1.905035             0.00751145268            0.000477213481           
       1.907676             0.00809822517            0.000467012361           
       1.910316             0.00854557335            0.000492475788           
       1.912956             0.00838528536            0.000477102843           
       1.915597               0.008783875            0.000491039705           
       1.918237             0.00951215233            0.000527728985           
       1.920878             0.00809514566            0.000484844403           
       1.923518             0.00947907692            0.000524876714           
       1.926158             0.00800207645            0.000475995812           
       1.928799             0.00803707738            0.000471513854           
       1.931439             0.00829250554            0.000491510208           
       1.934079             0.00853823028            0.000519923447           
       1.936720             0.00880791986             0.00048927293           
       1.939360             0.00865032116            0.000517295005           
       1.942001              0.0084600607            0.000468884262           
       1.944641              0.0086994254            0.000484836898           
       1.947281             0.00853940989            0.000475929515           
       1.949922             0.00800933781            0.000476091191           
       1.952562             0.00832392562            0.000500564637           
       1.955202             0.00797804994            0.000489457212           
       1.957843             0.00907726115            0.000508548826           
       1.960483              0.0079558107            0.000497761086           
       1.963124             0.00790536974            0.000486001283           
       1.965764             0.00788200845             0.00045763514           
       1.968404             0.00739557707            0.000439100629           
       1.971045             0.00790590493            0.000462874705           
       1.973685             0.00868822411            0.000508976514           
       1.976326             0.00829629525             0.00049052835           
       1.978966             0.00829686807            0.000494850236           
       1.981606             0.00817983612            0.000501595146           
       1.984247              0.0081350924            0.000496932689           
       1.986887             0.00847212043            0.000501047188           
       1.989527             0.00884926548            0.000506563309           
       1.992168             0.00741982695            0.000481283072           
       1.994808             0.00776037785            0.000490094121           
       1.997449             0.00782651807            0.000482070548           
       2.000089             0.00804660163            0.000486863589           
       2.002729             0.00696156541             0.00045312163           
       2.005370             0.00802123652            0.000481153672           
       2.008010             0.00737840332            0.000481611054           
       2.010650             0.00850729751            0.000521002328           
       2.013291             0.00760303096            0.000472560218           
       2.015931             0.00731348897            0.000460198502           
       2.018572             0.00797790663            0.000514098762           
       2.021212             0.00833158396            0.000515931535           
       2.023852              0.0074362211            0.000461321226           
       2.026493             0.00748799114            0.000483606762           
       2.029133             0.00745684931            0.000472888216           
       2.031774             0.00713455254            0.000485442086           
       2.034414             0.00755351036            0.000459601958           
       2.037054              0.0078547875            0.000480557567           
       2.039695             0.00798857908            0.000480972764           
       2.042335             0.00772179131            0.000491419115           
       2.044975             0.00754783062            0.000479960049           
       2.047616             0.00710657726            0.000464562446           
       2.050256             0.00855922965            0.000514661694           
       2.052897             0.00727461491            0.000483217966           
       2.055537             0.00782490412            0.000484353404           
       2.058177             0.00683147128            0.000443182153           
       2.060818             0.00793650038            0.000500409796           
       2.063458              0.0078050921             0.00051714153           
       2.066098             0.00765569395            0.000483146261           
       2.068739             0.00766093296            0.000490824137           
       2.071379             0.00773830646            0.000506161842           
       2.074020              0.0076616405            0.000492702566           
       2.076660             0.00769412834             0.00049773749           
       2.079300             0.00919669042            0.000557505606           
       2.081941             0.00762467511            0.000464789718           
       2.084581             0.00731831584            0.000480633092           
       2.087222             0.00777668256            0.000477820166           
       2.089862             0.00870214922            0.000550515155           
       2.092502             0.00815228077            0.000516510839           
       2.095143             0.00739619732            0.000508039038           
       2.097783             0.00755811014            0.000497221977           
       2.100423             0.00657635488            0.000446919738           
       2.103064             0.00772386477             0.00050257236           
       2.105704             0.00744309786            0.000490909703           
       2.108345             0.00798027662            0.000488355691           
       2.110985              0.0075552735            0.000507519873           
       2.113625             0.00711874544            0.000496939019           
       2.116266              0.0077841787            0.000527018766           
       2.118906             0.00777864585            0.000490977382           
       2.121546             0.00787139098            0.000484465692           
       2.124187             0.00814336032            0.000517250179           
       2.126827             0.00806541129            0.000520513843           
       2.129468             0.00804105938            0.000521055013           
       2.132108             0.00783943942            0.000500550985           
       2.134748             0.00712265193            0.000475267844           
       2.137389             0.00852454138            0.000542426385           
       2.140029             0.00750582328             0.00045567389           
       2.142670             0.00755487733            0.000488577262           
       2.145310             0.00811184572            0.000492758473           
       2.147950             0.00744732264            0.000485964694           
       2.150591             0.00740042218            0.000479536364           
       2.153231             0.00807185425            0.000515514296           
       2.155871              0.0080572243            0.000497569566           
       2.158512             0.00827066502            0.000526010288           
       2.161152             0.00822533882             0.00050812827           
       2.163793             0.00712912001            0.000470928376           
       2.166433             0.00705367724            0.000481028248           
       2.169073             0.00731784085            0.000479044814           
       2.171714             0.00762813821            0.000485439583           
       2.174354             0.00694144894            0.000483870199           
       2.176995             0.00708609861            0.000486828666           
       2.179635             0.00721572001            0.000519123071           
       2.182275             0.00844492751            0.000530241171           
       2.184916             0.00689782159            0.000462860576           
       2.187556             0.00706249525            0.000463658758           
       2.190196             0.00888493767             0.00054344709           
       2.192837             0.00786282476            0.000508452052           
       2.195477             0.00703550949            0.000458537732           
       2.198118             0.00745412598            0.000484076105           
       2.200758             0.00827827516            0.000523367653           
       2.203398              0.0071978403            0.000491142524           
       2.206039             0.00744785931            0.000472828817           
       2.208679             0.00773231047             0.00049298564           
       2.211319             0.00676950792            0.000463932849           
       2.213960             0.00689561096            0.000474507557           
       2.216600             0.00842688333            0.000542639472           
       2.219241             0.00808966187            0.000508133931           
       2.221881             0.00682915643            0.000467830531           
       2.224521             0.00810666715            0.000515959528           
       2.227162             0.00817054179              0.0005076169           
       2.229802             0.00734842113            0.000496471536           
       2.232443             0.00741162552            0.000490737658           
       2.235083             0.00751057612            0.000508574377           
       2.237723             0.00765052621            0.000492577071           
       2.240364             0.00743140686            0.000497431817           
       2.243004             0.00713720328            0.000483594557           
       2.245644             0.00709702401            0.000487058288           
       2.248285             0.00709716324             0.00047730575           
       2.250925             0.00702791323            0.000477856667           
       2.253566             0.00685731635            0.000504626846           
       2.256206             0.00767577154            0.000523217834           
       2.258846             0.00606294238            0.000442354104           
       2.261487             0.00786752639            0.000528893552           
       2.264127             0.00753844311             0.00050000009           
       2.266767             0.00699109184            0.000494334699           
       2.269408              0.0077724473            0.000523362136           
       2.272048             0.00734891857            0.000505865427           
       2.274689              0.0078696455            0.000530378487           
       2.277329             0.00737679128            0.000483495141           
       2.279969             0.00740492424            0.000515633324           
       2.282610             0.00724855292            0.000495970968           
       2.285250             0.00668803466            0.000455988046           
       2.287891             0.00694200871            0.000498084156           
       2.290531             0.00716765227            0.000512917843           
       2.293171              0.0069089214            0.000490527934           
       2.295812             0.00621950645            0.000463540137           
       2.298452             0.00763239236            0.000536983649           
       2.301092             0.00592496323            0.000439588881           
       2.303733             0.00695522507            0.000495494293           
       2.306373             0.00688004245            0.000500569994           
       2.309014             0.00734493615            0.000507116142           
       2.311654             0.00736188448            0.000529809969           
       2.314294             0.00829502352            0.000518128221           
       2.316935             0.00708291136            0.000480756205           
       2.319575             0.00634300181            0.000476685312           
       2.322215             0.00731316247            0.000533427054           
       2.324856             0.00747598575            0.000495860377           
       2.327496             0.00635292005            0.000486041561           
       2.330137             0.00701330292            0.000488681613           
       2.332777             0.00818879726            0.000544475486           
       2.335417              0.0078956615            0.000518682035           
       2.338058             0.00741914881            0.000517806284           
       2.340698             0.00735949067            0.000511667474           
       2.343339             0.00694810194            0.000508101455           
       2.345979             0.00772063373            0.000506723998           
       2.348619             0.00651287804            0.000482417691           
       2.351260             0.00772987459            0.000522498769           
       2.353900             0.00709920222            0.000499144032           
       2.356540             0.00731735137            0.000506035675           
       2.359181             0.00766264149            0.000510577603           
       2.361821             0.00673746974            0.000462472662           
       2.364462             0.00643624601            0.000472752355           
       2.367102             0.00692367456            0.000503889307           
       2.369742             0.00663060807            0.000519031961           
       2.372383             0.00685961476            0.000478029345           
       2.375023             0.00693727258            0.000505348898           
       2.377663             0.00730443721            0.000495809581           
       2.380304             0.00751905444            0.000511428329           
       2.382944             0.00691585571            0.000467171867           
       2.385585             0.00685713447            0.000496127077           
       2.388225             0.00647522766            0.000479847878           
       2.390865              0.0064774967            0.000475001972           
       2.393506             0.00753770895            0.000502735721           
       2.396146             0.00694237516            0.000521672884           
       2.398787             0.00715716737            0.000488142613           
       2.401427             0.00734636473            0.000477357152           
       2.404067             0.00710306262            0.000479855803           
       2.406708             0.00745260652            0.000485626804           
       2.409348             0.00661885737            0.000485434728           
       2.411988             0.00672785638            0.000479518887           
       2.414629             0.00712247519            0.000508747264           
       2.417269             0.00709897327            0.000513837172           
       2.419910             0.00579103253            0.000465170691           
       2.422550             0.00800607887            0.000523283995           
       2.425190             0.00734836498            0.000528453179           
       2.427831             0.00709754541            0.000516436628           
       2.430471             0.00669207605            0.000477745308           
       2.433112             0.00701592603            0.000476333533           
       2.435752             0.00597245314            0.000465113384           
       2.438392             0.00744525546            0.000501235165           
       2.441033             0.00811720046            0.000554661944           
       2.443673             0.00659541542            0.000500357092           
       2.446313             0.00646041711            0.000495646458           
       2.448954             0.00588231456            0.000450315155           
       2.451594             0.00593389916            0.000486312439           
       2.454235             0.00778684267            0.000522693419           
       2.456875              0.0070544866            0.000520570448           
       2.459515             0.00819967231            0.000575764287           
       2.462156             0.00737664868            0.000515599024           
       2.464796             0.00815709372            0.000535193324           
       2.467436             0.00735706808            0.000525611931           
       2.470077               0.006703949            0.000475557852           
       2.472717             0.00741500033            0.000502308818           
       2.475358             0.00780277455            0.000520648611           
       2.477998             0.00721661587            0.000492269555           
       2.480638             0.00739390105             0.00050713344           
       2.483279             0.00783085542            0.000545472136           
       2.485919             0.00609440421            0.000463754737           
       2.488560             0.00775641234            0.000521720607           
       2.491200             0.00688677418            0.000506222269           
       2.493840             0.00742937909            0.000556351169           
       2.496481             0.00713655608            0.000536357344           
       2.499121             0.00711928542            0.000521061539           
       2.501761             0.00731492098            0.000535170338           
       2.504402             0.00737103295            0.000529370294           
       2.507042             0.00767656107            0.000536228075           
       2.509683             0.00631546052            0.000478938689           
       2.512323             0.00853789348            0.000584850436           
       2.514963             0.00753255357            0.000542552377           
       2.517604             0.00711334396            0.000547091462           
       2.520244             0.00713820437            0.000513794729           
       2.522884             0.00828003167            0.000561277955           
       2.525525             0.00950629214            0.000608231807           
       2.528165             0.00670331738            0.000502788662           
       2.530806             0.00694685737            0.000520762156           
       2.533446             0.00724557062            0.000520488857           
       2.536086             0.00712629236            0.000511566806           
       2.538727             0.00645813432            0.000467197219           
       2.541367             0.00695924669            0.000489761793           
       2.544008             0.00709166442            0.000510593823           
       2.546648             0.00658520249            0.000500463244           
       2.549288             0.00700359009             0.00052663309           
       2.551929              0.0072002634            0.000525464626           
       2.554569             0.00688958092            0.000495198917           
       2.557209             0.00801703091            0.000539088816           
       2.559850              0.0082439474            0.000548420305           
       2.562490             0.00720532607            0.000529914476           
       2.565131             0.00679386475            0.000533520685           
       2.567771             0.00728273961            0.000532580026           
       2.570411             0.00597688405            0.000477254777           
       2.573052             0.00690864051            0.000519570335           
       2.575692             0.00613315741            0.000486577745           
       2.578332             0.00731840999            0.000533716673           
       2.580973             0.00619200555            0.000486257281           
       2.583613             0.00647208252            0.000485295661           
       2.586254              0.0075860375            0.000524672006           
       2.588894             0.00794125602            0.000557457212           
       2.591534             0.00725883774            0.000551721064           
       2.594175             0.00685501959            0.000526037475           
       2.596815             0.00666005466            0.000521560171           
       2.599456             0.00653832009            0.000490052077           
       2.602096             0.00677674768            0.000502704081           
       2.604736             0.00742298302            0.000538603114           
       2.607377             0.00676663497            0.000500688264           
       2.610017               0.007043261            0.000501880875           
       2.612657             0.00724193606            0.000541302663           
       2.615298             0.00689926044            0.000515826761           
       2.617938             0.00662783888            0.000540839757           
       2.620579             0.00723210542            0.000542352522           
       2.623219             0.00599622819            0.000493138431           
       2.625859             0.00686357414            0.000512975365           
       2.628500             0.00714464414            0.000519942894           
       2.631140             0.00658975902            0.000507038364           
       2.633780             0.00721349957            0.000530031101           
       2.636421             0.00633491729            0.000508920268           
       2.639061             0.00727806548            0.000513516678           
       2.641702              0.0071272291            0.000519931948           
       2.644342             0.00726761898            0.000527264832           
       2.646982             0.00760566262            0.000531324247           
       2.649623             0.00664019972            0.000520267049           
       2.652263             0.00762588406            0.000551951231           
       2.654904             0.00760854729            0.000551878117           
       2.657544             0.00684082504            0.000492889563           
       2.660184             0.00783158675            0.000558117252           
       2.662825             0.00653307081            0.000521578536           
       2.665465             0.00689731846            0.000518324346           
       2.668105             0.00649043916            0.000529974431           
       2.670746             0.00808047391            0.000546270842           
       2.673386             0.00900069489              0.0005941682           
       2.676027             0.00692666076            0.000512869283           
       2.678667             0.00904272428             0.00057178524           
       2.681307              0.0111304473            0.000623300253           
       2.683948              0.0151946478            0.000748253149           
       2.686588              0.0119981924            0.000653880812           
       2.689229              0.0102409134            0.000590303161           
       2.691869             0.00914355743             0.00058951857           
       2.694509              0.0100207634            0.000617488493           
       2.697150             0.00758301543            0.000528439968           
       2.699790             0.00836194383            0.000581751132           
       2.702430             0.00776831318            0.000535982064           
       2.705071             0.00760664671            0.000548043062           
       2.707711             0.00699495835            0.000510081652           
       2.710352             0.00708629345            0.000542472403           
       2.712992             0.00685448587             0.00054339083           
       2.715632             0.00618598309            0.000478943568           
       2.718273             0.00687987617            0.000523459642           
       2.720913             0.00719808738             0.00053390499           
       2.723553             0.00784102141            0.000560978109           
       2.726194             0.00679541799             0.00054590986           
       2.728834             0.00860244171            0.000614507842           
       2.731475             0.00739506429             0.00052583317           
       2.734115             0.00737669817            0.000541478975           
       2.736755             0.00831583399             0.00057964682           
       2.739396              0.0078897579            0.000561330755           
       2.742036             0.00730197001            0.000565161543           
       2.744677             0.00650405282            0.000517535028           
       2.747317             0.00739970453            0.000548083813           
       2.749957             0.00723592407            0.000545787954           
       2.752598             0.00745237661            0.000559902176           
       2.755238             0.00682902396            0.000545649985           
       2.757878             0.00723028221             0.00055654286           
       2.760519             0.00674378966            0.000531794066           
       2.763159             0.00766871544            0.000561423968           
       2.765800             0.00750430691            0.000529262012           
       2.768440             0.00870603673            0.000574266323           
       2.771080             0.00807797778            0.000557781985           
       2.773721             0.00648681827            0.000512731635           
       2.776361             0.00746499947            0.000557621754           
       2.779001             0.00857057283            0.000618760153           
       2.781642             0.00620188625            0.000522476694           
       2.784282             0.00794544782            0.000601101271           
       2.786923             0.00675231479            0.000559013031           
       2.789563             0.00758919426            0.000570785167           
       2.792203             0.00668663963            0.000511813829           
       2.794844             0.00718564402            0.000581493665           
       2.797484               0.005902255            0.000497371458           
       2.800125             0.00796949472            0.000607710432           
       2.802765             0.00674854789            0.000549604296           
       2.805405             0.00693391469            0.000558986905           
       2.808046             0.00694501291             0.00056926866           
       2.810686             0.00554855355            0.000467553368           
       2.813326             0.00701357292            0.000546023243           
       2.815967             0.00669581767            0.000548680134           
       2.818607             0.00733097729            0.000547862428           
       2.821248             0.00753026918            0.000543731584           
       2.823888             0.00694363947            0.000541976991           
       2.826528             0.00709125027            0.000530427635           
       2.829169             0.00753798744            0.000572826674           
       2.831809             0.00617122647            0.000525350084           
       2.834449              0.0078246384            0.000595293553           
       2.837090             0.00679414251            0.000535762343           
       2.839730             0.00640108642            0.000517494925           
       2.842371             0.00755961651              0.0005631907           
       2.845011             0.00702282409            0.000547153925           
       2.847651             0.00800181246            0.000584764313           
       2.850292             0.00613705865            0.000517140152           
       2.852932             0.00677774663            0.000555307905           
       2.855573             0.00778550069            0.000577322951           
       2.858213             0.00646251037            0.000552351622           
       2.860853             0.00640502697            0.000511523638           
       2.863494              0.0066371651            0.000539123321           
       2.866134             0.00646575675            0.000553068842           
       2.868774             0.00722073236            0.000574411443           
       2.871415             0.00631408451            0.000545506937           
       2.874055             0.00719396269            0.000556583815           
       2.876696              0.0076818603            0.000590705043           
       2.879336             0.00769825755            0.000569933393           
       2.881976             0.00714247283            0.000566229365           
       2.884617             0.00780831805            0.000583339334           
       2.887257             0.00597421239            0.000512883485           
       2.889897             0.00700867846            0.000544082785           
       2.892538              0.0077049537            0.000624950704           
       2.895178             0.00666261916            0.000525024253           
       2.897819             0.00597928438            0.000507367137           
       2.900459             0.00654160633            0.000520365237           
       2.903099             0.00737195068             0.00054675011           
       2.905740              0.0071118727            0.000550912877           
       2.908380             0.00606471252            0.000514520656           
       2.911021             0.00861587366            0.000623234531           
       2.913661             0.00638927082            0.000536534143           
       2.916301             0.00694749467            0.000560015168           
       2.918942             0.00714218937            0.000543122131           
       2.921582             0.00618914671            0.000528991254           
       2.924222             0.00815181692            0.000588163245           
       2.926863             0.00678044242            0.000558736562           
       2.929503             0.00753408714            0.000595948083           
       2.932144             0.00803091445            0.000590634993           
       2.934784             0.00677099018            0.000533436282           
       2.937424             0.00708060111            0.000551096442           
       2.940065             0.00785251889            0.000553608053           
       2.942705             0.00713376859            0.000527001936           
       2.945346             0.00746594622            0.000572155522           
       2.947986             0.00666194275            0.000551093024           
       2.950626             0.00604265934            0.000521898897           
       2.953267             0.00732203565            0.000565215287           
       2.955907             0.00670549231            0.000561104675           
       2.958547             0.00659945753            0.000525506713           
       2.961188             0.00669827412            0.000552339574           
       2.963828             0.00627318539            0.000522865155           
       2.966469             0.00769077224            0.000567934287           
       2.969109             0.00729990779            0.000561512376           
       2.971749             0.00687094179            0.000541366049           
       2.974390             0.00750213502            0.000555889872           
       2.977030             0.00780120238            0.000579530024           
       2.979670              0.0102998596             0.00064771866           
       2.982311              0.0080896847            0.000594955901           
       2.984951             0.00705130393            0.000528292431           
       2.987592             0.00716930242            0.000543363816           
       2.990232             0.00788927486            0.000592788334           
       2.992872             0.00797252121            0.000561311311           
       2.995513             0.00858089908            0.000569714593           
       2.998153              0.0113226974            0.000665429388           
       3.000794              0.0139562946            0.000715579319           
       3.003434              0.0106715286            0.000626673412           
       3.006074              0.0329232082             0.00108529781           
       3.008715               0.106404157               0.001883413           
       3.011355               0.216511632             0.00259077336           
       3.013995               0.122302412             0.00195247876           
       3.016636              0.0765701737             0.00151281704           
       3.019276               0.146010972             0.00205349602           
       3.021917                0.51845343             0.00372072168           
       3.024557                1.44228549             0.00610137761           
       3.027197                1.13664832             0.00528076102           
       3.029838                0.56281698             0.00376863477           
       3.032478               0.257690861             0.00255265029           
       3.035118              0.0706089474             0.00135412722           
       3.037759              0.0813139582             0.00145128081           
       3.040399               0.113424172             0.00176807819           
       3.043040               0.469476856             0.00364121813           
       3.045680               0.388925621             0.00311815023           
       3.048320               0.105261259              0.0016574682           
       3.050961               0.117393657             0.00178122579           
       3.053601              0.0963715568             0.00155436159           
       3.056242              0.0776047608             0.00148300241           
       3.058882              0.0687169289             0.00149695611           
       3.061522              0.0541716169             0.00130402187           
       3.064163              0.0677266196             0.00143971041           
       3.066803               0.139092623             0.00217213617           
       3.069443                0.11079127             0.00202827016           
       3.072084              0.0348636348             0.00110789676           
       3.074724              0.0454983187             0.00141343231           
       3.077365              0.0565485263             0.00163117881           
       3.080005              0.0121152631            0.000759296377           
       3.082645               0.015252839            0.000895006036           
       3.085286              0.0137518772             0.00085653399           
       3.087926             0.00944142034            0.000704242342           
       3.090566              0.0118926085            0.000774430706           
       3.093207              0.0107530618            0.000766293865           
       3.095847             0.00922394922            0.000680256812           
       3.098488             0.00796224381            0.000700804206           
       3.101128              0.0102492611            0.000800219782           
       3.103768              0.0100467583            0.000777369551           
       3.106409             0.00890257916            0.000778796297           
       3.109049             0.00782830052            0.000700830162           
       3.111690             0.00895205076            0.000736580299           
       3.114330             0.00946217346            0.000773385915           
       3.116970             0.00777176163             0.00070628819           
       3.119611              0.0105826284            0.000877279005           
       3.122251              0.0180779328             0.00119939151           
       3.124891              0.0344446348             0.00167099051           
       3.127532              0.0263434053              0.0014296089           
       3.130172              0.0147150254             0.00108693116           
       3.132813             0.00919803146            0.000845998291           
       3.135453             0.00825750413            0.000794976439           
       3.138093             0.00610510632             0.00074066116           
       3.140734             0.00758445942            0.000761619208           
       3.143374             0.00821759499            0.000838390354           
       3.146014             0.00771717084            0.000874652203           
       3.148655             0.00512398852            0.000662526216           
       3.151295             0.00669898438            0.000807273392           
       3.153936             0.00561800802            0.000714119515           
       3.156576             0.00617617598            0.000738570099           
       3.159216             0.00675995561            0.000776552195           
       3.161857             0.00635589342            0.000749921738           
       3.164497             0.00721327946             0.00083941679           
       3.167138             0.00708023024            0.000859286284           
       3.169778             0.00665345477            0.000819249128           
       3.172418             0.00791471476            0.000884443142           
       3.175059             0.00730162744            0.000753115521           
       3.177699             0.00678512749            0.000768779723           
       3.180339             0.00730242629            0.000854510199           
       3.182980             0.00630025201             0.00082061694           
       3.185620             0.00689000541            0.000873969007           
       3.188261             0.00539757369            0.000787349122           
       3.190901             0.00531675702            0.000718691096           
       3.193541             0.00674205952            0.000850390104           
       3.196182             0.00558690447            0.000806742679           
       3.198822              0.0073381049            0.000924883237           
       3.201463             0.00537695376            0.000778064523           
       3.204103             0.00611301045            0.000824564553           
       3.206743             0.00646466421            0.000847870086           
       3.209384               0.005569903            0.000850296897           
       3.212024             0.00495322367            0.000747571581           
       3.214664              0.0043719759            0.000798661181           
       3.217305             0.00591675947            0.000883180216           
       3.219945             0.00487569593            0.000825182443           
       3.222586              0.0074676082            0.000972702078           
       3.225226             0.00421072676            0.000810277804           
       3.227866             0.00533593342             0.00083368509           
       3.230507             0.00769701902             0.00103794221           
       3.233147             0.00627440831            0.000944693804           
       3.235787             0.00667203595            0.000996939244           
       3.238428             0.00605650129             0.00102499745           
       3.241068             0.00544325122            0.000908606333           
       3.243709             0.00533368988            0.000929239296           
       3.246349               0.006342297            0.000923715154           
       3.248989             0.00505566379            0.000973804717           
       3.251630             0.00540325072            0.000969447572           
       3.254270             0.00472007305            0.000809798373           
       3.256911             0.00710948659             0.00108440268           
       3.259551             0.00555359624             0.00103183113           
       3.262191             0.00479052541            0.000978881649           
       3.264832              0.0056583282             0.00111156971           
       3.267472             0.00671650902              0.0011361013           
       3.270112             0.00608359898             0.00119491745           
       3.272753             0.00708227801              0.0011801002           
       3.275393              0.0059226041             0.00110112653           
       3.278034             0.00491160167             0.00100331403           
       3.280674             0.00603785091             0.00120712382           
       3.283314             0.00657872293             0.00112691469           
       3.285955             0.00597228112             0.00110784155           
       3.288595             0.00507975146             0.00113669355           
       3.291235             0.00673379591             0.00134536969           
       3.293876             0.00358972324             0.00099641099           
       3.296516             0.00611985873             0.00124899329           
       3.299157             0.00846020125             0.00145006746           
       3.301797             0.00738290761             0.00154517343           
       3.304437              0.0062949478             0.00123614229           
       3.307078             0.00849978384              0.0015822865           
       3.309718               0.005639406             0.00133031095           
       3.312359              0.0040640959             0.00112959201           
       3.314999             0.00483873018             0.00121354857           
       3.317639              0.0058459892             0.00127570319           
       3.320280             0.00437148719             0.00117287792           
       3.322920             0.00584218793             0.00137871574           
       3.325560             0.00517459507             0.00129843468           
       3.328201             0.00551193219             0.00120691225           
       3.330841             0.00507673362             0.00140970694           
       3.333482             0.00702879964             0.00156788619           
       3.336122             0.00592244573             0.00143987266           
       3.338762             0.00511569746             0.00154584585           
       3.341403             0.00423340402             0.00134371601           
       3.344043             0.00773752095             0.00174410286           
       3.346683             0.00491081709             0.00141853195           
       3.349324             0.00571734458             0.00172088895           
       3.351964             0.00688412649             0.00199684861           
       3.354605             0.00684556018             0.00227729571           
       3.357245             0.00552890877             0.00184625805           
       3.359885             0.00711131046             0.00167584205           
       3.362526             0.00615629449             0.00194991728           
       3.365166             0.00661862988             0.00190695909           
       3.367807             0.00357952556             0.00179477935           
       3.370447             0.00866096672             0.00231582181           
       3.373087             0.00139952159            0.000995494837           
       3.375728           -2.65018374e-05                         0           
       3.378368             0.00194622533             0.00196632318           
       3.381008             0.00553576699             0.00247243781           
       3.383649             0.00351082372             0.00157952115           
       3.386289             0.00397191349             0.00198838906           
       3.388930             0.00494401071             0.00350900908           
       3.391570             0.00249222258             0.00176238461           
       3.394210              0.0121181048              0.0049180688           
       3.396851             0.00246825057             0.00248282247           
       3.399491              0.0098014483              0.0049490092           
       3.402131             0.00493960662                0.00497068           
       3.404772           -2.67353099e-05                         0           
       3.407412                       nan                       nan           
       3.410053             0.00936522199             0.00969354469           
       3.412693                       nan                       nan           
       3.415333           -2.68523756e-05                         0           
