################################################################################
# EDF_DataBlockID                     0.Image.Psd
# EDF_BinarySize                      2105344
# EDF_HeaderSize                      2560
# ByteOrder                           LowByteFirst
# DataType                            FloatValue
# Dim_1                               512
# Dim_2                               1028
# Image                               0
# HeaderID                            EH:000000:000000:000000
# Size                                2105344
# Center_1                            304.9000
# Center_2                            588.7000
# Comment                             Xenocs_Cell_Window - 20251028_20perc_iodine_1.23mg
# DDummy                              0.6
# Date                                2025-11-01T17:36:15
# Delta                               21.910000
# Dummy                               -1.5
# ExposureTime                        360
# Gamma                               15.360000
# Intensity1                          8.67797e-10
# PSize_1                             7.5e-05
# PSize_2                             7.5e-05
# Pressure                            0.0326414
# SampleDistance                      0.115750
# SampleEnvKind                       large
# SampleEnvPN                         ElectroChemical cell
# SampleEnvSN                         1141
# Thickness                           0
# Wavelength                          1.541891e-10
# Wavelength                          1.54189e-10
# aux                                 0
# aux_dial                            0.002375
# beamx                               588.434
# beamx_dial                          588.434
# beamz                               657.808
# beamz_dial                          657.808
# det0x                               0
# det0x_dial                          6.36945
# det0xvd                             0
# det0xvd_dial                        0
# det0y                               450.002
# det0y_dial                          481.635
# det0z                               0
# det0z_dial                          1.23302
# det0zvd                             0
# det0zvd_dial                        0
# mag                                 1.818
# mag_dial                            1.818
# om                                  0.2499
# om_dial                             -0.610199
# phi                                 -0.0120535
# phi_dial                            0
# ry                                  0.599993
# ry_dial                             0.599993
# s1bot                               0.8
# s1bot_dial                          -1.66094
# s1hl                                0.8
# s1hl_dial                           -0.608437
# s1hr                                0.8
# s1hr_dial                           0.970938
# s1top                               0.8
# s1top_dial                          -0.461562
# s2bot                               0.45
# s2bot_dial                          1.36109
# s2hl                                0.45
# s2hl_dial                           -0.83375
# s2hr                                0.45
# s2hr_dial                           -0.118594
# s2top                               0.45
# s2top_dial                          1.44734
# w2theta                             32
# w2theta_dial                        32
# waxsch                              19.2605
# waxsch_dial                         -32.7355
# waxsh                               137.085
# waxsh_dial                          -43.5338
# waxsth                              26.0607
# waxsth_dial                         -19.4086
# waxsz                               67.0407
# waxsz_dial                          -23.7954
# wind                                65.9854
# wind_dial                           66.0041
# wpsi                                124
# wpsi_dial                           124
# wstod                               115
# wstod_dial                          115
# x                                   0
# x_dial                              1.00969
# z                                   0
# z_dial                              13.3172
# CountCutoff                         6807993
# DetectorModel                       Dectris EIGER2 Si 500K, S/N E-01-0554
# ThresholdSetting                    4023.88989258
# Saturation                          0
# FlatField                           Corrected
# BackgroundReductionExtra            0.02
# BackgroundCorrectionConstant        0.0026712
# Detector                            0
# Monitor                             0
# Pil_Roi0                            0
# SumForIntensity1                    3.12407e+08
# TransmittedFlux                     867797
# det                                 0
# mon                                 0
# pilai0                              3.12407e+08
# pilai1                              787871
# pilct0                              5.40421e+08
# pilct1                              787871
# pilroi0                             0
# pilroi1                             0
# sec                                 1
# title                               20251028_20perc_iodine_1.23mg_1_00902.edf
# usaxs0                              0
# Operation                           Azimuthal average I(q)
# Error_model                         ErrorModel.poisson
# Geometrical_correction              True
# Transmission_correction             True
# Thickness_correction                False
# Binning mode                        Uniform
# Binning factor                      1.0
# Psi                                 0.0
# Omega                               0.2499
# MaskInvalidPixels                   True
# DetectorEdge                        3
# MaskFiles                           ['WAXS_corrected.edf']
################################################################################
    q(A⁻¹)                Intensity(a.u.)            Sigma_I(a.u.)            
       0.693100             0.00814726614             0.00597325352           
       0.695741              0.0027452491             0.00282946023           
       0.698381              0.0124766385             0.00738880777           
       0.701021           -2.33594134e-05                         0           
       0.703662              0.0196376534             0.00756418279           
       0.706302             0.00825887673             0.00379782428           
       0.708942             0.00568003448             0.00406509703           
       0.711583               0.010878294              0.0048714878           
       0.714223             0.00869788252             0.00502907268           
       0.716864             0.00858485408             0.00326902608           
       0.719504             0.00725294533              0.0032424776           
       0.722144             0.00372764877             0.00215270288           
       0.724785             0.00785184364             0.00249220536           
       0.727425              0.0116162796             0.00410082824           
       0.730065              0.0101408503             0.00271029432           
       0.732706             0.00653766888             0.00182742463           
       0.735346             0.00778069185             0.00259873043           
       0.737987             0.00344804381              0.0012224626           
       0.740627             0.00279345262             0.00164174739           
       0.743267             0.00774516457             0.00183102032           
       0.745908             0.00407081237             0.00144021426           
       0.748548             0.00948932974             0.00202683673           
       0.751189             0.00788225682             0.00248910269           
       0.753829             0.00331577935             0.00148400526           
       0.756469             0.00770433296              0.0018240784           
       0.759110             0.00571451037             0.00165552607           
       0.761750              0.0044648865             0.00129393478           
       0.764390             0.00693155924             0.00168743911           
       0.767031             0.00552268018              0.0013043278           
       0.769671             0.00961769258             0.00214714754           
       0.772312             0.00665651102             0.00135988168           
       0.774952             0.00707772233             0.00189358267           
       0.777592              0.0064281881             0.00131443462           
       0.780233             0.00696416633             0.00165064256           
       0.782873             0.00637870898             0.00151087139           
       0.785513             0.00450681049             0.00135768658           
       0.788154             0.00766612168              0.0014812781           
       0.790794             0.00566824714              0.0015227625           
       0.793435             0.00695135308             0.00151493038           
       0.796075             0.00520151451             0.00126237699           
       0.798715              0.0102501689             0.00209412412           
       0.801356             0.00562831198             0.00133555539           
       0.803996             0.00822038458             0.00164555198           
       0.806637             0.00772438687             0.00126943295           
       0.809277             0.00710237241             0.00131753091           
       0.811917             0.00704154028             0.00122639557           
       0.814558             0.00801794788             0.00136012309           
       0.817198              0.0077032142             0.00126656541           
       0.819838             0.00660049102              0.0011865662           
       0.822479             0.00706858273             0.00144191322           
       0.825119             0.00746897298             0.00126152864           
       0.827760             0.00790228667             0.00131442527           
       0.830400             0.00847444955             0.00128112192           
       0.833040             0.00655586315             0.00118054708           
       0.835681             0.00659019055             0.00134558906           
       0.838321              0.0058063158             0.00106010164           
       0.840961             0.00686985744             0.00125636848           
       0.843602             0.00576190631             0.00105515181           
       0.846242             0.00769553374             0.00121923225           
       0.848883             0.00829938553             0.00129573686           
       0.851523             0.00787687713             0.00124664371           
       0.854163             0.00913936713             0.00142804716           
       0.856804              0.0077231388              0.0011803406           
       0.859444             0.00552301777            0.000978000525           
       0.862085             0.00828546268             0.00124847912           
       0.864725             0.00710291456             0.00118300137           
       0.867365             0.00952117522             0.00127007138           
       0.870006             0.00660550944             0.00100807743           
       0.872646             0.00591966507             0.00100072571           
       0.875286             0.00827021873             0.00113796261           
       0.877927             0.00830294794             0.00110025154           
       0.880567             0.00832363648             0.00114130219           
       0.883208             0.00812844531             0.00111721563           
       0.885848             0.00710535567             0.00108454957           
       0.888488             0.00841777785             0.00110720869           
       0.891129             0.00839716779             0.00113547965           
       0.893769             0.00940133052             0.00114982392           
       0.896410             0.00607620258            0.000861850556           
       0.899050             0.00827553978             0.00110611261           
       0.901690             0.00717368264             0.00112180146           
       0.904331             0.00592931794            0.000904176059           
       0.906971             0.00825951169             0.00113527797           
       0.909611             0.00801750969             0.00101821358           
       0.912252             0.00785855465             0.00104122993           
       0.914892             0.00689085173             0.00106548468           
       0.917533             0.00745748487             0.00104856753           
       0.920173               0.007066391             0.00094701096           
       0.922813             0.00726332031             0.00100753373           
       0.925454             0.00862126981            0.000988434838           
       0.928094             0.00604064516            0.000883296022           
       0.930734             0.00746271133             0.00105699171           
       0.933375             0.00657499181            0.000982381907           
       0.936015             0.00883116366             0.00103402216           
       0.938656             0.00753185995             0.00102441534           
       0.941296              0.0066393411            0.000871661004           
       0.943936             0.00837355938            0.000959967272           
       0.946577             0.00737709874            0.000895083288           
       0.949217              0.0072301041            0.000814868432           
       0.951858             0.00654046109             0.00081130339           
       0.954498             0.00700924177            0.000972140421           
       0.957138             0.00702436489            0.000921963001           
       0.959779             0.00859739891             0.00100549491           
       0.962419             0.00706723475            0.000905571325           
       0.965059             0.00717979292            0.000959978648           
       0.967700              0.0102294095             0.00117358623           
       0.970340             0.00979921726             0.00101643619           
       0.972981             0.00812835142            0.000843431423           
       0.975621             0.00762868816            0.000869250125           
       0.978261             0.00678330159             0.00077883307           
       0.980902             0.00802883324             0.00101378214           
       0.983542             0.00792413198            0.000891897188           
       0.986182             0.00784857193            0.000871474285           
       0.988823             0.00783185463            0.000845301363           
       0.991463             0.00881652014            0.000956863113           
       0.994104             0.00749910407            0.000860874869           
       0.996744             0.00751968124             0.00087928937           
       0.999384             0.00714649415            0.000766617312           
       1.002025             0.00717513926            0.000857359318           
       1.004665             0.00873393559            0.000864450438           
       1.007306             0.00778086612            0.000811746472           
       1.009946             0.00793114432            0.000835824243           
       1.012586             0.00751834687            0.000792575993           
       1.015227             0.00714018857            0.000829784719           
       1.017867             0.00784716831            0.000836029717           
       1.020507             0.00871858117            0.000853588782           
       1.023148              0.0100350716            0.000988139995           
       1.025788             0.00890658496            0.000853583156           
       1.028429             0.00818619328            0.000857340695           
       1.031069             0.00746576096            0.000770471974           
       1.033709             0.00690435077            0.000787617759           
       1.036350             0.00964794351            0.000836207195           
       1.038990             0.00766540241            0.000759053387           
       1.041630             0.00768716761            0.000792823537           
       1.044271             0.00895100036            0.000804583596           
       1.046911             0.00898336948            0.000847845855           
       1.049552             0.00928981324            0.000905835358           
       1.052192             0.00855188319            0.000793611091           
       1.054832             0.00877453104            0.000811188261           
       1.057473             0.00787677154            0.000757648446           
       1.060113             0.00809922501            0.000749274695           
       1.062754             0.00996244368            0.000848438789           
       1.065394             0.00879166467            0.000842663764           
       1.068034             0.00822918527            0.000741776599           
       1.070675             0.00779339599            0.000752997515           
       1.073315             0.00800462121            0.000774072094           
       1.075955             0.00927079283            0.000786443904           
       1.078596             0.00745200012             0.00074937283           
       1.081236              0.0076550069            0.000727281754           
       1.083877             0.00916338083            0.000788577337           
       1.086517             0.00841613193            0.000810374971           
       1.089157             0.00866277593            0.000853086936           
       1.091798             0.00752809834            0.000697214745           
       1.094438             0.00892245678            0.000756592737           
       1.097078             0.00856926542            0.000711144511           
       1.099719             0.00931359776            0.000801923092           
       1.102359             0.00884752953            0.000731978491           
       1.105000             0.00892683529            0.000822154748           
       1.107640              0.0089958638            0.000789147166           
       1.110280             0.00961373537            0.000744353474           
       1.112921             0.00864673564            0.000758317252           
       1.115561             0.00885030339            0.000729151527           
       1.118202             0.00747193529            0.000670601145           
       1.120842              0.0105099253            0.000835897347           
       1.123482             0.00955376796              0.0007934864           
       1.126123             0.00763156969            0.000680226515           
       1.128763             0.00842457176            0.000719594832           
       1.131403             0.00826418459            0.000686759137           
       1.134044             0.00840620374            0.000712723044           
       1.136684             0.00956252495            0.000810466328           
       1.139325             0.00927027021            0.000735103145           
       1.141965             0.00879585966            0.000720780206           
       1.144605             0.00891371782            0.000691855171           
       1.147246             0.00904364493            0.000713195581           
       1.149886              0.0088241183            0.000701985414           
       1.152527              0.0087862623            0.000710664368           
       1.155167             0.00785346478            0.000639062267           
       1.157807               0.010757326            0.000801921115           
       1.160448              0.0106836979            0.000780411963           
       1.163088             0.00844979805            0.000662014745           
       1.165728             0.00919365326             0.00070899001           
       1.168369             0.00845804595            0.000686317262           
       1.171009             0.00905268495             0.00068906788           
       1.173650              0.0104998839            0.000761577013           
       1.176290             0.00906843017            0.000691642869           
       1.178930             0.00857077279            0.000659010387           
       1.181571             0.00948405652            0.000706980234           
       1.184211             0.00989758873            0.000724789692           
       1.186851             0.00897103776            0.000674633436           
       1.189492               0.010066862            0.000709842469           
       1.192132             0.00796630345            0.000624371413           
       1.194773              0.0105678138            0.000722271664           
       1.197413             0.00898703005            0.000638183812           
       1.200053             0.00924208743            0.000663620243           
       1.202694              0.0107532837            0.000680705915           
       1.205334             0.00965626239            0.000695162204           
       1.207975             0.00965925713            0.000663654817           
       1.210615             0.00908751058            0.000710125746           
       1.213255             0.00914738968            0.000637992848           
       1.215896             0.00986559233            0.000674570495           
       1.218536              0.0099919091            0.000652767637           
       1.221176             0.00977785476            0.000702049408           
       1.223817             0.00976049128            0.000658440284           
       1.226457              0.0096475222            0.000667806895           
       1.229098              0.0108561689            0.000708369972           
       1.231738              0.0100203625            0.000683904971           
       1.234378              0.0105286827            0.000658729812           
       1.237019               0.010370537            0.000673697489           
       1.239659             0.00923375667            0.000630164309           
       1.242299             0.00936940371            0.000626711184           
       1.244940              0.0104941343            0.000645063376           
       1.247580              0.0110663868            0.000682675717           
       1.250221              0.0106457546             0.00066544429           
       1.252861             0.00967407463            0.000603903204           
       1.255501              0.0102319209            0.000674364323           
       1.258142             0.00984593515            0.000621618882           
       1.260782               0.010402017            0.000652756515           
       1.263423              0.0103552482            0.000625813549           
       1.266063             0.00953092412            0.000615380785           
       1.268703             0.00987879571            0.000621311787           
       1.271344              0.0098926917             0.00064282013           
       1.273984              0.0108252161            0.000649439869           
       1.276624              0.0105000581            0.000627595773           
       1.279265               0.010762553            0.000645943779           
       1.281905              0.0106671916            0.000645929792           
       1.284546              0.0107729016            0.000627435692           
       1.287186              0.0106500986            0.000612062354           
       1.289826              0.0101992427            0.000631262063           
       1.292467             0.00982717853            0.000605992902           
       1.295107               0.010026662            0.000606032097           
       1.297747              0.0108695127            0.000603805019           
       1.300388             0.00982974993            0.000625950096           
       1.303028              0.0108606912            0.000628124804           
       1.305669             0.00984992806            0.000612425826           
       1.308309              0.0104567201            0.000624793827           
       1.310949              0.0101460014            0.000614822536           
       1.313590              0.0104106114            0.000603320626           
       1.316230              0.0108111106            0.000656094118           
       1.318871              0.0109341548            0.000646209883           
       1.321511              0.0104518697            0.000620087067           
       1.324151               0.010871654            0.000613668099           
       1.326792              0.0105401338            0.000607974711           
       1.329432              0.0112543448            0.000623802292           
       1.332072                0.01092164            0.000605354475           
       1.334713              0.0106975707            0.000618343599           
       1.337353              0.0113941219            0.000612005546           
       1.339994              0.0108352405            0.000626289921           
       1.342634              0.0111195243            0.000608400293           
       1.345274              0.0117567578            0.000647427303           
       1.347915              0.0116562163            0.000626851012           
       1.350555              0.0110998604            0.000622421545           
       1.353195              0.0118076108            0.000645111355           
       1.355836              0.0115008761            0.000626749181           
       1.358476              0.0103001915            0.000576020702           
       1.361117              0.0109386579            0.000594419675           
       1.363757              0.0121865084            0.000646566737           
       1.366397              0.0109030063            0.000593064067           
       1.369038              0.0124616722            0.000640353255           
       1.371678              0.0115321893             0.00061057863           
       1.374319              0.0111760074            0.000595899771           
       1.376959              0.0105537144            0.000573248512           
       1.379599              0.0111818482            0.000632366929           
       1.382240              0.0098104176            0.000556691506           
       1.384880              0.0124716917            0.000664848456           
       1.387520              0.0119288102            0.000617531468           
       1.390161              0.0106776344            0.000554896292           
       1.392801              0.0108756829            0.000583485257           
       1.395442               0.011264869            0.000601943901           
       1.398082              0.0102051902            0.000536526367           
       1.400722              0.0119405697            0.000607907576           
       1.403363              0.0117874705            0.000635781045           
       1.406003              0.0102066413            0.000553671561           
       1.408644              0.0105392063            0.000589380458           
       1.411284              0.0101587532            0.000547925198           
       1.413924              0.0114663193            0.000579962679           
       1.416565              0.0109821843            0.000565357396           
       1.419205              0.0116206246            0.000606658373           
       1.421845              0.0112093174            0.000595475584           
       1.424486              0.0109832871            0.000566588556           
       1.427126              0.0114971457             0.00060218697           
       1.429767              0.0126346322            0.000593951738           
       1.432407              0.0113400576            0.000588879468           
       1.435047              0.0110473859            0.000545872099           
       1.437688              0.0107907314            0.000547560326           
       1.440328              0.0113441931            0.000572999329           
       1.442968               0.010393536            0.000560753737           
       1.445609              0.0117158763            0.000576471261           
       1.448249               0.012648324            0.000614137913           
       1.450890              0.0114228319            0.000579818937           
       1.453530              0.0104154504            0.000579241562           
       1.456170              0.0103353761            0.000560002373           
       1.458811              0.0104930577            0.000539555535           
       1.461451              0.0119005888             0.00057611226           
       1.464092              0.0111561338              0.0005614484           
       1.466732              0.0106168925            0.000543004677           
       1.469372              0.0105018002            0.000527414531           
       1.472013              0.0111471449            0.000586044017           
       1.474653              0.0115943216            0.000588463225           
       1.477293              0.0109257278            0.000583284179           
       1.479934               0.010850735            0.000554661538           
       1.482574              0.0102247325            0.000520841146           
       1.485215              0.0109104801            0.000548044304           
       1.487855              0.0105952512            0.000547193549           
       1.490495              0.0116099502            0.000570687154           
       1.493136              0.0107211676            0.000540891261           
       1.495776               0.011515255            0.000558012206           
       1.498416              0.0121977623            0.000593100642           
       1.501057             0.00940640923            0.000509356668           
       1.503697              0.0107737765            0.000532944114           
       1.506338                0.01027046            0.000529855052           
       1.508978              0.0111946819            0.000547741804           
       1.511618              0.0111722072             0.00058275649           
       1.514259              0.0122157746            0.000588314213           
       1.516899              0.0100032682            0.000518359323           
       1.519540              0.0108175621             0.00054773704           
       1.522180              0.0107949784            0.000551971554           
       1.524820              0.0107088623            0.000546681047           
       1.527461              0.0103626547            0.000540431246           
       1.530101              0.0119836428            0.000575352612           
       1.532741              0.0108670726            0.000544713613           
       1.535382              0.0110223698            0.000557423613           
       1.538022              0.0119933505            0.000547763948           
       1.540663              0.0104127015            0.000548959418           
       1.543303              0.0107725728            0.000518451087           
       1.545943              0.0105185613            0.000542234079           
       1.548584              0.0112023354            0.000569625777           
       1.551224              0.0105418881            0.000510911712           
       1.553864              0.0108512132            0.000547737042           
       1.556505              0.0103945103             0.00051787357           
       1.559145             0.00977984139             0.00050848176           
       1.561786               0.010613592            0.000530121007           
       1.564426              0.0102064211            0.000503683432           
       1.567066              0.0107538401            0.000541731913           
       1.569707               0.010745097            0.000531784399           
       1.572347              0.0108143749             0.00055115466           
       1.574988              0.0106834072            0.000521420518           
       1.577628               0.010307606            0.000534064559           
       1.580268              0.0107372214            0.000528125151           
       1.582909              0.0116184637            0.000582310768           
       1.585549              0.0107308494            0.000543378501           
       1.588189             0.00952004109            0.000500634994           
       1.590830             0.00981082162            0.000507585319           
       1.593470             0.00919290123            0.000510795675           
       1.596111             0.00932562254            0.000502282283           
       1.598751             0.00924277137            0.000484527915           
       1.601391              0.0100792261            0.000517140862           
       1.604032             0.00875217522            0.000491970049           
       1.606672             0.00869756823            0.000476502109           
       1.609312               0.010709382            0.000551950277           
       1.611953             0.00986488627            0.000518384835           
       1.614593             0.00880856674            0.000480499362           
       1.617234             0.00924269055            0.000510102033           
       1.619874             0.00925010163            0.000508290659           
       1.622514             0.00915651069            0.000498814057           
       1.625155             0.00895642186            0.000496248258           
       1.627795             0.00946000628            0.000497512403           
       1.630436             0.00972991253            0.000501925182           
       1.633076             0.00879027371             0.00048333098           
       1.635716             0.00987517092            0.000504319048           
       1.638357              0.0098944225            0.000506140994           
       1.640997             0.00955174492            0.000512363267           
       1.643637              0.0103546489            0.000519119645           
       1.646278             0.00897504084            0.000498486706           
       1.648918              0.0099188866            0.000525472439           
       1.651559             0.00907082518             0.00050640692           
       1.654199             0.00875444307            0.000483859564           
       1.656839              0.0103553106             0.00052642706           
       1.659480             0.00959817479            0.000525848675           
       1.662120             0.00880763001            0.000474428679           
       1.664761             0.00870805072            0.000490015166           
       1.667401             0.00987182712            0.000498664474           
       1.670041             0.00914482277            0.000487269623           
       1.672682              0.0100964265            0.000509890396           
       1.675322             0.00935681175            0.000487702737           
       1.677962             0.00845274743            0.000458429702           
       1.680603             0.00852954725            0.000461924685           
       1.683243             0.00855208889            0.000482568659           
       1.685884             0.00875350126            0.000491823452           
       1.688524             0.00816517584            0.000465826225           
       1.691164             0.00978064895            0.000509945263           
       1.693805             0.00854236429            0.000481807606           
       1.696445             0.00849685739            0.000483309924           
       1.699085             0.00920064868            0.000486075782           
       1.701726             0.00936219744             0.00047234213           
       1.704366             0.00793382458            0.000458070497           
       1.707007             0.00927930596            0.000484348935           
       1.709647              0.0080356994            0.000455815911           
       1.712287             0.00841493095            0.000470507734           
       1.714928             0.00886168275            0.000486728847           
       1.717568             0.00879631996            0.000456806451           
       1.720209             0.00931931533            0.000492491791           
       1.722849             0.00778023453            0.000447677045           
       1.725489             0.00890654368             0.00047938849           
       1.728130             0.00922997042            0.000518623173           
       1.730770             0.00863633796            0.000476449969           
       1.733410             0.00927003346            0.000485861211           
       1.736051             0.00864501143            0.000472461885           
       1.738691             0.00805181154            0.000446721264           
       1.741332             0.00884883758            0.000482003142           
       1.743972             0.00893070186            0.000500047244           
       1.746612             0.00874696726            0.000475207777           
       1.749253             0.00845116118            0.000476327887           
       1.751893             0.00875672053            0.000481303483           
       1.754533             0.00926385817            0.000494582151           
       1.757174             0.00869945554            0.000474790936           
       1.759814             0.00834022447            0.000457837949           
       1.762455             0.00778832749             0.00045055442           
       1.765095             0.00855407919            0.000451701943           
       1.767735             0.00824320404            0.000457097472           
       1.770376             0.00865435853            0.000469593037           
       1.773016             0.00902255031            0.000476266522           
       1.775657              0.0083294422            0.000451023386           
       1.778297              0.0091164553            0.000467787117           
       1.780937             0.00753324037            0.000448832456           
       1.783578             0.00925292239            0.000484993067           
       1.786218             0.00799152513            0.000470380046           
       1.788858             0.00843915723            0.000459088992           
       1.791499             0.00845415066            0.000454336059           
       1.794139             0.00866423484            0.000456214873           
       1.796780              0.0081786816            0.000441110328           
       1.799420             0.00937867895            0.000469747752           
       1.802060             0.00812614973            0.000440788363           
       1.804701             0.00905680245            0.000446566346           
       1.807341             0.00897195926            0.000467041011           
       1.809981             0.00855777905            0.000457654201           
       1.812622             0.00857236446            0.000449797758           
       1.815262             0.00947244027            0.000482866089           
       1.817903             0.00862584424            0.000453955769           
       1.820543             0.00898906157            0.000470635861           
       1.823183             0.00954825689            0.000484787114           
       1.825824             0.00818908347            0.000428917229           
       1.828464             0.00881072751            0.000463826761           
       1.831105             0.00807475908            0.000431755895           
       1.833745             0.00763183979            0.000428712028           
       1.836385             0.00885237279            0.000474899183           
       1.839026              0.0076692286            0.000440629036           
       1.841666             0.00852049222            0.000462793125           
       1.844306             0.00818198719            0.000441132799           
       1.846947             0.00864941272            0.000457534223           
       1.849587             0.00741076325            0.000467655633           
       1.852228             0.00842167411            0.000450797379           
       1.854868             0.00847808775            0.000477793042           
       1.857508             0.00807484357            0.000461718616           
       1.860149              0.0078465858             0.00046341531           
       1.862789             0.00813544305            0.000455461841           
       1.865429             0.00793736931            0.000469609133           
       1.868070             0.00786428278            0.000461211892           
       1.870710             0.00780800856            0.000448963853           
       1.873351             0.00926940188            0.000495225556           
       1.875991             0.00809048632            0.000470213471           
       1.878631             0.00825039926            0.000465743556           
       1.881272             0.00792792756            0.000453491886           
       1.883912             0.00836221011            0.000484707337           
       1.886553             0.00760344913            0.000457026743           
       1.889193              0.0082340556            0.000474788828           
       1.891833             0.00787984247            0.000482364314           
       1.894474             0.00780001282            0.000475735135           
       1.897114             0.00815066397            0.000470592971           
       1.899754             0.00869742674            0.000488154912           
       1.902395             0.00857553437            0.000475245255           
       1.905035             0.00908939563            0.000518226224           
       1.907676             0.00755349383            0.000445254726           
       1.910316             0.00892894098              0.0004969531           
       1.912956             0.00696882543            0.000429372298           
       1.915597             0.00852070168            0.000477432923           
       1.918237             0.00841980684            0.000490144079           
       1.920878             0.00837305297             0.00048678044           
       1.923518             0.00778798168            0.000469664668           
       1.926158               0.008543425            0.000485533205           
       1.928799              0.0087262197            0.000485019949           
       1.931439             0.00822570641            0.000483256169           
       1.934079             0.00789074876            0.000493418838           
       1.936720             0.00735642024            0.000441416867           
       1.939360             0.00846742433            0.000505241457           
       1.942001             0.00824101869            0.000456846722           
       1.944641             0.00828622636            0.000467121572           
       1.947281             0.00749579047            0.000440188381           
       1.949922             0.00793821107            0.000467901361           
       1.952562             0.00856244883            0.000501182861           
       1.955202             0.00774914189            0.000476205394           
       1.957843              0.0078479956            0.000466805284           
       1.960483             0.00799921664            0.000492723864           
       1.963124             0.00765559463            0.000472135802           
       1.965764              0.0075048594            0.000440832235           
       1.968404             0.00794711036            0.000449349016           
       1.971045             0.00771138656            0.000451289302           
       1.973685             0.00671469603            0.000441719489           
       1.976326              0.0074563229            0.000459076978           
       1.978966             0.00690050515            0.000445510844           
       1.981606             0.00736597113            0.000469891054           
       1.984247              0.0072721766            0.000463820219           
       1.986887             0.00761685095             0.00046899849           
       1.989527             0.00663506893             0.00043301604           
       1.992168              0.0075717691            0.000479958322           
       1.994808             0.00765475864            0.000480512795           
       1.997449             0.00728604947            0.000459170002           
       2.000089             0.00786675826            0.000475225893           
       2.002729             0.00755091253            0.000465867278           
       2.005370             0.00739039459            0.000455929932           
       2.008010             0.00765904322            0.000484399468           
       2.010650             0.00845367266            0.000512705191           
       2.013291             0.00803619031            0.000479611991           
       2.015931             0.00746415512            0.000458959507           
       2.018572             0.00838056626            0.000520163546           
       2.021212             0.00675275881            0.000458532426           
       2.023852             0.00780984308             0.00046671267           
       2.026493             0.00742326973            0.000475344498           
       2.029133              0.0071236595            0.000456282205           
       2.031774             0.00744080976            0.000489401508           
       2.034414             0.00790478103            0.000464144838           
       2.037054             0.00686814868            0.000443607818           
       2.039695             0.00717584192             0.00045001117           
       2.042335             0.00706281181            0.000463962607           
       2.044975              0.0072931611            0.000465750218           
       2.047616             0.00807192692            0.000488768959           
       2.050256             0.00714028679            0.000464048615           
       2.052897             0.00718392985             0.00047404575           
       2.055537             0.00724026429            0.000459940021           
       2.058177             0.00780897593            0.000467760267           
       2.060818              0.0076411611            0.000484721303           
       2.063458             0.00684304317            0.000478020132           
       2.066098             0.00789797583            0.000484446016           
       2.068739             0.00777637014             0.00048817405           
       2.071379             0.00795854963            0.000506739257           
       2.074020             0.00830166365             0.00050629968           
       2.076660             0.00683391411            0.000463080556           
       2.079300             0.00668154876            0.000469108361           
       2.081941             0.00717957284            0.000445242171           
       2.084581             0.00657546799            0.000449751454           
       2.087222             0.00685934755            0.000443006237           
       2.089862             0.00718402471            0.000493788615           
       2.092502             0.00721511194            0.000479692092           
       2.095143             0.00803168923            0.000522633731           
       2.097783             0.00835055452            0.000515943937           
       2.100423             0.00704307404            0.000456582424           
       2.103064             0.00716979093            0.000478008548           
       2.105704             0.00737475913            0.000482391691           
       2.108345             0.00766027839            0.000472335626           
       2.110985             0.00804334533            0.000516948717           
       2.113625             0.00720879548            0.000493666738           
       2.116266              0.0082790005            0.000536549485           
       2.118906             0.00779303976            0.000485136644           
       2.121546             0.00766868006            0.000472061674           
       2.124187             0.00655846715            0.000458248598           
       2.126827             0.00795507896              0.0005103198           
       2.129468             0.00655424862            0.000464397151           
       2.132108             0.00754994546            0.000484929797           
       2.134748             0.00808921804            0.000500002285           
       2.137389              0.0070236615            0.000486058149           
       2.140029             0.00706863437            0.000436539838           
       2.142670             0.00764566756            0.000485208494           
       2.145310              0.0075803672            0.000470241039           
       2.147950             0.00753646191            0.000482602464           
       2.150591             0.00791725069             0.00048964536           
       2.153231             0.00670924136            0.000463972151           
       2.155871             0.00721607913             0.00046485004           
       2.158512             0.00687622696            0.000473478509           
       2.161152             0.00795605465            0.000493340178           
       2.163793             0.00776473838              0.0004851784           
       2.166433             0.00784042679            0.000500649501           
       2.169073             0.00780489147             0.00048839279           
       2.171714             0.00704173163            0.000460433369           
       2.174354             0.00713676589             0.00048434596           
       2.176995             0.00636821579            0.000455598809           
       2.179635             0.00678298961             0.00049686936           
       2.182275             0.00679753518            0.000469626247           
       2.184916             0.00770164091            0.000482821935           
       2.187556             0.00789586822            0.000483972267           
       2.190196             0.00644329835            0.000456862322           
       2.192837             0.00701771501            0.000474197999           
       2.195477             0.00765700144             0.00047223461           
       2.198118             0.00692597738            0.000460635031           
       2.200758             0.00777521442            0.000500719244           
       2.203398             0.00774658447            0.000502993892           
       2.206039             0.00690117276            0.000449314881           
       2.208679             0.00784641611            0.000490248691           
       2.211319             0.00797292054             0.00049703439           
       2.213960             0.00722138943            0.000479367171           
       2.216600             0.00719336968            0.000494931651           
       2.219241             0.00750153529            0.000483046831           
       2.221881             0.00737075918            0.000479802259           
       2.224521              0.0071364443            0.000477899475           
       2.227162             0.00707102008             0.00046617913           
       2.229802             0.00725784315            0.000487082215           
       2.232443             0.00744809736             0.00048564226           
       2.235083             0.00749537838            0.000501551782           
       2.237723             0.00770021907             0.00048784429           
       2.240364              0.0075662331            0.000495494738           
       2.243004              0.0073551803            0.000484635452           
       2.245644             0.00772814619            0.000501743335           
       2.248285             0.00779811333            0.000493912694           
       2.250925             0.00703072667            0.000471830171           
       2.253566             0.00709241332            0.000506630608           
       2.256206             0.00730364939            0.000503839978           
       2.258846             0.00805647762            0.000503387109           
       2.261487             0.00745767211            0.000508337276           
       2.264127             0.00666108253            0.000463983788           
       2.266767             0.00735085481            0.000500401568           
       2.269408             0.00750461176             0.00050767838           
       2.272048             0.00664971839            0.000475035488           
       2.274689             0.00656016791            0.000478042974           
       2.277329             0.00722986213            0.000472524706           
       2.279969             0.00778332615             0.00052187252           
       2.282610             0.00771647168            0.000505174161           
       2.285250              0.0077224722            0.000483708282           
       2.287891              0.0079137855            0.000524992906           
       2.290531             0.00762695464            0.000522319299           
       2.293171             0.00655403163            0.000471643694           
       2.295812             0.00682981945            0.000479529293           
       2.298452             0.00639859097             0.00048537124           
       2.301092             0.00741005088            0.000485305945           
       2.303733             0.00663587602            0.000477785913           
       2.306373             0.00725545143            0.000507460941           
       2.309014             0.00723456326            0.000496844777           
       2.311654             0.00699183268            0.000509708983           
       2.314294             0.00681972526            0.000463781076           
       2.316935             0.00680821389            0.000465303948           
       2.319575             0.00716303528            0.000500073735           
       2.322215             0.00639633996            0.000492480845           
       2.324856             0.00761091427            0.000493906494           
       2.327496             0.00705980675            0.000505806337           
       2.330137             0.00749893785            0.000498845115           
       2.332777             0.00744606227            0.000512545885           
       2.335417             0.00774108494            0.000507001225           
       2.338058             0.00778177335            0.000523516906           
       2.340698             0.00685467002            0.000487481742           
       2.343339             0.00655757826            0.000487293071           
       2.345979             0.00710238824            0.000479786859           
       2.348619             0.00616931581            0.000463507111           
       2.351260             0.00760243551            0.000511536429           
       2.353900             0.00815228206            0.000528033961           
       2.356540             0.00692013028            0.000485805539           
       2.359181             0.00662046732            0.000468509042           
       2.361821             0.00786089636            0.000493145227           
       2.364462             0.00766236557            0.000509213565           
       2.367102             0.00733146834            0.000511874446           
       2.369742             0.00670113279            0.000515101342           
       2.372383             0.00777481751            0.000502401519           
       2.375023             0.00703749074             0.00050246638           
       2.377663             0.00665989881            0.000467365335           
       2.380304             0.00732591109            0.000498350772           
       2.382944             0.00719776543             0.00047049359           
       2.385585             0.00699642169            0.000494721441           
       2.388225              0.0075905279            0.000512876966           
       2.390865             0.00794017917            0.000519168233           
       2.393506             0.00630867887            0.000454036137           
       2.396146             0.00699709835            0.000517016448           
       2.398787             0.00739319578             0.00048977136           
       2.401427             0.00777259382             0.00048472043           
       2.404067              0.0076482387            0.000491552369           
       2.406708             0.00703537073            0.000465793254           
       2.409348             0.00808998001            0.000529802743           
       2.411988             0.00658455291            0.000468308084           
       2.414629             0.00794473308            0.000530429191           
       2.417269             0.00669424225            0.000492583214           
       2.419910             0.00663226425            0.000491435356           
       2.422550              0.0075293057            0.000500963554           
       2.425190             0.00664158477            0.000495961726           
       2.427831             0.00629739537            0.000480224789           
       2.430471             0.00695634951            0.000480848029           
       2.433112             0.00662489536            0.000456940144           
       2.435752             0.00726911136            0.000506552274           
       2.438392             0.00689955965            0.000476336174           
       2.441033             0.00777120913            0.000535760485           
       2.443673             0.00687520246            0.000504316149           
       2.446313               0.006398226            0.000486936874           
       2.448954             0.00711364256            0.000488865745           
       2.451594             0.00787169348            0.000552943213           
       2.454235             0.00604313918            0.000454567913           
       2.456875             0.00653993243            0.000494805572           
       2.459515             0.00744308751            0.000541532074           
       2.462156             0.00764354346            0.000518120831           
       2.464796             0.00774587143            0.000514848262           
       2.467436             0.00852530499            0.000558558849           
       2.470077             0.00729189988            0.000489620397           
       2.472717             0.00779345492            0.000508371711           
       2.475358             0.00703686813            0.000488102507           
       2.477998             0.00798055325            0.000511038747           
       2.480638             0.00719795966            0.000493959432           
       2.483279             0.00807288237            0.000546743247           
       2.485919             0.00655755895            0.000474892138           
       2.488560             0.00734495769            0.000501191092           
       2.491200             0.00751418191            0.000522005796           
       2.493840             0.00711011159            0.000537294136           
       2.496481             0.00659166002            0.000508871861           
       2.499121             0.00768748113            0.000534520042           
       2.501761             0.00693978291            0.000514589955           
       2.504402             0.00785995084            0.000539642881           
       2.507042             0.00701137478            0.000505904954           
       2.509683             0.00590744793            0.000457276104           
       2.512323             0.00736272463            0.000536154405           
       2.514963             0.00707267594            0.000518995489           
       2.517604             0.00833466532            0.000584612723           
       2.520244             0.00739103777            0.000516118009           
       2.522884             0.00770430569            0.000534478065           
       2.525525              0.0110852448            0.000648391542           
       2.528165             0.00822316751            0.000549745015           
       2.530806             0.00853021494            0.000569673948           
       2.533446             0.00775542078            0.000531592653           
       2.536086             0.00751007139             0.00051843429           
       2.538727             0.00678511027            0.000472744314           
       2.541367             0.00690605934             0.00048163727           
       2.544008             0.00744635391            0.000516504907           
       2.546648             0.00652453116            0.000491771574           
       2.549288             0.00833745412            0.000567238447           
       2.551929             0.00765743863            0.000534948781           
       2.554569             0.00674861258            0.000483828759           
       2.557209             0.00648579176             0.00047866998           
       2.559850             0.00688768969            0.000494861713           
       2.562490             0.00656140645            0.000499204604           
       2.565131             0.00739268913            0.000549408258           
       2.567771             0.00709375654            0.000518891755           
       2.570411             0.00702064454            0.000510625511           
       2.573052             0.00585384546            0.000472138943           
       2.575692             0.00692183811            0.000510295868           
       2.578332             0.00682817147            0.000508927313           
       2.580973             0.00727192008            0.000520206944           
       2.583613             0.00698020813            0.000497530511           
       2.586254             0.00696844591            0.000496420279           
       2.588894             0.00567401692            0.000465171823           
       2.591534             0.00637488772            0.000510415011           
       2.594175             0.00640791318            0.000502078692           
       2.596815             0.00696828181            0.000526659015           
       2.599456              0.0066628901            0.000488361724           
       2.602096              0.0072654638            0.000513847883           
       2.604736             0.00699859154            0.000516280947           
       2.607377             0.00711266089            0.000506755227           
       2.610017             0.00585857676            0.000451867352           
       2.612657             0.00693353704            0.000522867187           
       2.615298             0.00774311585            0.000539462953           
       2.617938             0.00822639339            0.000594824053           
       2.620579               0.007124503            0.000531407555           
       2.623219             0.00639102216            0.000502592591           
       2.625859             0.00653635205             0.00049418574           
       2.628500             0.00741756959            0.000522994724           
       2.631140              0.0071730493            0.000522226744           
       2.633780             0.00675547331            0.000506357663           
       2.636421             0.00700384839             0.00052826129           
       2.639061             0.00705220736            0.000499011159           
       2.641702             0.00708957671            0.000511914516           
       2.644342             0.00790273919            0.000542778581           
       2.646982             0.00679245873            0.000495684979           
       2.649623             0.00687042979            0.000522430892           
       2.652263             0.00649310678            0.000502785827           
       2.654904             0.00788593721            0.000554651391           
       2.657544             0.00709482377            0.000495527012           
       2.660184             0.00643151457            0.000499296293           
       2.662825             0.00713572299            0.000538122519           
       2.665465             0.00755806491            0.000535633739           
       2.668105             0.00746243204            0.000560995293           
       2.670746             0.00656898791             0.00048622802           
       2.673386             0.00889429163            0.000583080093           
       2.676027             0.00844534487            0.000559055045           
       2.678667              0.0102729806            0.000601634423           
       2.681307              0.0120433114            0.000640051765           
       2.683948              0.0148925635            0.000731289118           
       2.686588              0.0109547468            0.000616798062           
       2.689229              0.0093943917             0.00055813755           
       2.691869             0.00977105303            0.000601605398           
       2.694509             0.00883277005            0.000572305705           
       2.697150             0.00847797815            0.000551597109           
       2.699790             0.00772618357            0.000552035838           
       2.702430             0.00775370183            0.000528618781           
       2.705071             0.00729692535            0.000529894193           
       2.707711             0.00700329362            0.000503847897           
       2.710352             0.00699665961            0.000532126152           
       2.712992             0.00696663322            0.000540800996           
       2.715632             0.00729823643            0.000513558702           
       2.718273             0.00685871852            0.000515959401           
       2.720913             0.00681942559            0.000513015477           
       2.723553               0.006338157            0.000497900128           
       2.726194             0.00652942705            0.000528264632           
       2.728834             0.00859678437            0.000606437047           
       2.731475             0.00804331218            0.000541371777           
       2.734115             0.00804336694            0.000558175383           
       2.736755             0.00812601656            0.000565653594           
       2.739396             0.00738722786            0.000536202573           
       2.742036             0.00759561311            0.000569029976           
       2.744677             0.00639841172            0.000506739733           
       2.747317             0.00727984817            0.000536663544           
       2.749957             0.00662410973            0.000515515648           
       2.752598             0.00716966251            0.000542144757           
       2.755238             0.00810705014            0.000586904455           
       2.757878              0.0077260093            0.000567936462           
       2.760519              0.0075852349            0.000556771688           
       2.763159              0.0102869314            0.000641909357           
       2.765800             0.00858444694            0.000558821025           
       2.768440             0.00786608478            0.000538869446           
       2.771080             0.00907517848            0.000583635756           
       2.773721             0.00789708915             0.00055848166           
       2.776361             0.00787109816            0.000565253979           
       2.779001             0.00869713089            0.000615327838           
       2.781642             0.00613257703             0.00051289407           
       2.784282             0.00751858278            0.000577241566           
       2.786923             0.00686409186            0.000556401487           
       2.789563             0.00705152069            0.000543146998           
       2.792203             0.00640810623            0.000494622713           
       2.794844             0.00644860333            0.000543808657           
       2.797484             0.00648926052            0.000514838039           
       2.800125             0.00691084597             0.00055866061           
       2.802765             0.00644025281            0.000530026467           
       2.805405             0.00728235324            0.000565521871           
       2.808046              0.0058612392            0.000516269676           
       2.810686             0.00651792116            0.000500261404           
       2.813326             0.00646444242            0.000517497379           
       2.815967             0.00643420404            0.000530965115           
       2.818607             0.00689983676            0.000524700087           
       2.821248             0.00644533484             0.00049659598           
       2.823888              0.0074127601            0.000552813178           
       2.826528             0.00609970204            0.000485646422           
       2.829169             0.00682112951            0.000537928834           
       2.831809             0.00634817287            0.000526003439           
       2.834449             0.00705015635             0.00055782704           
       2.837090             0.00682847213            0.000530234249           
       2.839730             0.00677456798            0.000525558663           
       2.842371             0.00716091996            0.000541116964           
       2.845011             0.00663329463            0.000524951783           
       2.847651             0.00658183953            0.000523553984           
       2.850292             0.00733396443             0.00055808284           
       2.852932             0.00805995677            0.000597803832           
       2.855573             0.00621221282            0.000509096205           
       2.858213             0.00602179573            0.000526355499           
       2.860853             0.00759846326            0.000550008317           
       2.863494             0.00665587937            0.000532967438           
       2.866134             0.00746297764            0.000586579294           
       2.868774             0.00814989961            0.000602434362           
       2.871415             0.00553568106            0.000504233574           
       2.874055             0.00709980506            0.000545846893           
       2.876696             0.00699459905             0.00055644217           
       2.879336             0.00662980127            0.000522130769           
       2.881976             0.00647508846            0.000532221103           
       2.884617             0.00725108933            0.000554939053           
       2.887257             0.00733801486            0.000561136897           
       2.889897             0.00661906427            0.000521970986           
       2.892538             0.00786696999            0.000623398336           
       2.895178             0.00698225907            0.000530586258           
       2.897819             0.00746657259            0.000559705433           
       2.900459             0.00694028207            0.000529121954           
       2.903099             0.00654966279            0.000508754527           
       2.905740             0.00736500731            0.000553450361           
       2.908380             0.00650146473            0.000525901558           
       2.911021             0.00756073568            0.000576348307           
       2.913661             0.00656796445            0.000537017278           
       2.916301             0.00784101554            0.000587317556           
       2.918942             0.00747802576            0.000548626074           
       2.921582             0.00686852046            0.000550130658           
       2.924222             0.00710715042            0.000542150139           
       2.926863             0.00709638353            0.000564284033           
       2.929503             0.00707500209            0.000570108533           
       2.932144             0.00871219264            0.000607297588           
       2.934784             0.00758591406            0.000557393071           
       2.937424             0.00647463745            0.000520237216           
       2.940065             0.00773677393            0.000542474096           
       2.942705             0.00714125816            0.000520524548           
       2.945346             0.00697728303            0.000546029344           
       2.947986             0.00613012568            0.000521867561           
       2.950626             0.00697704837            0.000553616898           
       2.953267             0.00701920008            0.000546314764           
       2.955907             0.00672260464            0.000554623779           
       2.958547             0.00632055016            0.000507694826           
       2.961188             0.00710647842            0.000561633585           
       2.963828             0.00806853644            0.000585388476           
       2.966469             0.00670998481            0.000523690902           
       2.969109             0.00724180182            0.000552109361           
       2.971749             0.00793538433            0.000574338608           
       2.974390             0.00774423873            0.000557553873           
       2.977030             0.00713791792            0.000547245363           
       2.979670             0.00750538061            0.000545831083           
       2.982311             0.00843872438            0.000599871912           
       2.984951             0.00752522771            0.000538766571           
       2.987592             0.00710111363            0.000533846798           
       2.990232             0.00808325183            0.000592345791           
       2.992872             0.00794939691            0.000553317225           
       2.995513             0.00861337054            0.000563480199           
       2.998153               0.011082022            0.000649886745           
       3.000794              0.0117057584            0.000646954357           
       3.003434              0.0118994687            0.000653270257           
       3.006074              0.0488538454             0.00130511379           
       3.008715               0.129682052              0.0020526143           
       3.011355                0.18314618             0.00235227929           
       3.013995              0.0945632425             0.00169484947           
       3.016636              0.0639567881             0.00136490071           
       3.019276               0.132019211             0.00192761737           
       3.021917               0.512939126             0.00365347694           
       3.024557                1.67288276             0.00648688482           
       3.027197                1.12505497             0.00518646529           
       3.029838               0.514687409             0.00355773318           
       3.032478               0.257419789             0.00251862741           
       3.035118              0.0688992453              0.0013204987           
       3.037759              0.0977478559             0.00157081004           
       3.040399               0.135513388             0.00190783542           
       3.043040               0.538342934             0.00384919806           
       3.045680               0.376155271             0.00302725136           
       3.048320               0.087745633             0.00149391135           
       3.050961               0.107126013             0.00167975243           
       3.053601                0.08603324             0.00144981272           
       3.056242              0.0570204015             0.00125491398           
       3.058882              0.0469624047             0.00122166887           
       3.061522              0.0354164375             0.00104088455           
       3.064163              0.0445947287             0.00115328954           
       3.066803               0.100877481             0.00182613659           
       3.069443               0.102444881             0.00192539265           
       3.072084              0.0543301444             0.00136532027           
       3.074724              0.0422246232             0.00134419223           
       3.077365               0.085849081             0.00198408328           
       3.080005              0.0173297803            0.000896484074           
       3.082645              0.0085168667            0.000660224587           
       3.085286               0.012712521             0.00081298138           
       3.087926             0.00891923003             0.00067572237           
       3.090566              0.0107479634             0.00072678882           
       3.093207              0.0101510578             0.00073499786           
       3.095847              0.0096826088             0.00068803699           
       3.098488             0.00889991642            0.000731430515           
       3.101128             0.00949660595            0.000760410948           
       3.103768             0.00926150815            0.000736811767           
       3.106409             0.00856322333            0.000754024988           
       3.109049             0.00678680056            0.000644188149           
       3.111690             0.00815939557            0.000694206974           
       3.114330             0.00693097673            0.000653430156           
       3.116970             0.00794201252            0.000704836911           
       3.119611              0.0133217378            0.000971678403           
       3.122251              0.0192528439             0.00122189863           
       3.124891              0.0331369523             0.00161797057           
       3.127532              0.0207881934             0.00125369187           
       3.130172               0.013083929             0.00101179323           
       3.132813             0.00702699638             0.00072997511           
       3.135453             0.00743138397            0.000744501977           
       3.138093             0.00628251722            0.000741721634           
       3.140734             0.00648629056            0.000695304306           
       3.143374             0.00642083995            0.000731595417           
       3.146014             0.00713646058            0.000830326541           
       3.148655             0.00708384088            0.000769014519           
       3.151295             0.00586603402            0.000745743697           
       3.153936             0.00681187156            0.000776272312           
       3.156576             0.00505612011            0.000659692777           
       3.159216             0.00807080865            0.000837641916           
       3.161857             0.00429744247            0.000608742779           
       3.164497             0.00674292412            0.000801191911           
       3.167138             0.00974522565            0.000995202106           
       3.169778             0.00607612154            0.000772870546           
       3.172418             0.00751387868            0.000850717803           
       3.175059             0.00679290082            0.000717101362           
       3.177699             0.00585293753            0.000704873211           
       3.180339             0.00622959637            0.000779138673           
       3.182980             0.00729134044            0.000871497916           
       3.185620             0.00690696744            0.000863835608           
       3.188261              0.0039034805            0.000660990491           
       3.190901             0.00661285405            0.000791251368           
       3.193541             0.00637537831            0.000816349317           
       3.196182             0.00670606789            0.000872538361           
       3.198822             0.00509491625            0.000760789697           
       3.201463             0.00515172411            0.000751839101           
       3.204103              0.0058333381            0.000795164191           
       3.206743             0.00639951993            0.000832781698           
       3.209384             0.00504118092            0.000798571979           
       3.212024             0.00569768288            0.000791514906           
       3.214664              0.0076827882             0.00104516359           
       3.217305             0.00653657582            0.000916397031           
       3.219945              0.0076285926             0.00101895506           
       3.222586              0.0045630619            0.000750617022           
       3.225226             0.00621696622            0.000971954227           
       3.227866             0.00557714875            0.000841403075           
       3.230507             0.00655192428            0.000945360556           
       3.233147             0.00625168742             0.00093090305           
       3.235787             0.00536019113            0.000882126336           
       3.238428             0.00507377899            0.000926144602           
       3.241068             0.00635663186            0.000969306772           
       3.243709             0.00472940416            0.000863809644           
       3.246349             0.00602388706            0.000888698278           
       3.248989              0.0051245248             0.00096785596           
       3.251630             0.00541915985            0.000958437716           
       3.254270             0.00648991365            0.000937396108           
       3.256911              0.0065978732             0.00103127525           
       3.259551             0.00409183585            0.000874342775           
       3.262191             0.00446816361            0.000933263529           
       3.264832             0.00657373727             0.00118276906           
       3.267472             0.00747565644             0.00118323516           
       3.270112             0.00500611228             0.00107006228           
       3.272753             0.00537025487             0.00101445081           
       3.275393             0.00660356398              0.0011478132           
       3.278034             0.00479237231            0.000978366869           
       3.280674             0.00398898289            0.000968596422           
       3.283314              0.0050782144            0.000977410285           
       3.285955             0.00602046466             0.00109805395           
       3.288595             0.00473096199             0.00108292415           
       3.291235             0.00622302642             0.00127677284           
       3.293876             0.00594247966             0.00126558997           
       3.296516             0.00446356596             0.00105300766           
       3.299157             0.00508952773             0.00111029337           
       3.301797             0.00536548179             0.00130037624           
       3.304437             0.00567837575             0.00115900579           
       3.307078             0.00542198228             0.00124755982           
       3.309718             0.00306213993            0.000967720958           
       3.312359              0.0055232017              0.0012999787           
       3.314999               0.003826516             0.00106535507           
       3.317639              0.0059864703             0.00127440422           
       3.320280             0.00765380939             0.00153206847           
       3.322920             0.00605918859             0.00138610252           
       3.325560             0.00439582552             0.00118141721           
       3.328201             0.00410056857             0.00102765408           
       3.330841             0.00724311782              0.0016622662           
       3.333482             0.00439167998             0.00122346188           
       3.336122             0.00441284573             0.00122697033           
       3.338762             0.00635928215             0.00170144906           
       3.341403             0.00914436356             0.00194957759           
       3.344043             0.00721562404             0.00166268229           
       3.346683             0.00637043464             0.00159495311           
       3.349324             0.00403813311             0.00142773342           
       3.351964             0.00447657809             0.00158962597           
       3.354605             0.00666565768             0.00221838838           
       3.357245             0.00240013232             0.00120085737           
       3.359885             0.00501737985              0.0013896259           
       3.362526             0.00533723093             0.00179232036           
       3.365166             0.00854273062             0.00213873428           
       3.367807             0.00705011645             0.00248655244           
       3.370447             0.00543771644             0.00181147098           
       3.373087             0.00411552523             0.00168524479           
       3.375728              0.0121707708             0.00327075963           
       3.378368             0.00763305579             0.00384422416           
       3.381008             0.00852883688             0.00302958071           
       3.383649             0.00692129809             0.00218935334           
       3.386289             0.00481100484             0.00216033211           
       3.388930             0.00481816531             0.00341969038           
       3.391570             0.00240781047             0.00171009239           
       3.394210             0.00389105538             0.00275113626           
       3.396851             0.00240542345             0.00241962443           
       3.399491              0.0095540414             0.00482356173           
       3.402131             0.00958217458             0.00683443803           
       3.404772             0.00951636793               0.009634433           
       3.407412                       nan                       nan           
       3.410053           -2.61189595e-05                         0           
       3.412693                       nan                       nan           
       3.415333           -2.61688723e-05                         0           
