################################################################################
# EDF_DataBlockID                     0.Image.Psd
# EDF_BinarySize                      2105344
# EDF_HeaderSize                      2560
# ByteOrder                           LowByteFirst
# DataType                            FloatValue
# Dim_1                               512
# Dim_2                               1028
# Image                               0
# HeaderID                            EH:000000:000000:000000
# Size                                2105344
# Center_1                            304.9000
# Center_2                            588.7000
# Comment                             Xenocs_Cell_Window - 20251028_20perc_iodine_1.23mg
# DDummy                              0.6
# Date                                2025-10-31T08:28:25
# Delta                               21.910000
# Dummy                               -1.5
# ExposureTime                        360
# Gamma                               15.360000
# Intensity1                          8.5362e-10
# PSize_1                             7.5e-05
# PSize_2                             7.5e-05
# Pressure                            0.0329466
# SampleDistance                      0.115750
# SampleEnvKind                       large
# SampleEnvPN                         ElectroChemical cell
# SampleEnvSN                         1141
# Thickness                           0
# Wavelength                          1.541891e-10
# Wavelength                          1.54189e-10
# aux                                 0
# aux_dial                            0.002375
# beamx                               588.434
# beamx_dial                          588.434
# beamz                               657.808
# beamz_dial                          657.808
# det0x                               0
# det0x_dial                          6.36945
# det0xvd                             0
# det0xvd_dial                        0
# det0y                               450.002
# det0y_dial                          481.635
# det0z                               0
# det0z_dial                          1.23302
# det0zvd                             0
# det0zvd_dial                        0
# mag                                 1.818
# mag_dial                            1.818
# om                                  0.2499
# om_dial                             -0.610199
# phi                                 -0.0120535
# phi_dial                            0
# ry                                  0.599993
# ry_dial                             0.599993
# s1bot                               0.8
# s1bot_dial                          -1.66094
# s1hl                                0.8
# s1hl_dial                           -0.608437
# s1hr                                0.8
# s1hr_dial                           0.970938
# s1top                               0.8
# s1top_dial                          -0.461562
# s2bot                               0.45
# s2bot_dial                          1.36109
# s2hl                                0.45
# s2hl_dial                           -0.83375
# s2hr                                0.45
# s2hr_dial                           -0.118594
# s2top                               0.45
# s2top_dial                          1.44734
# w2theta                             32
# w2theta_dial                        32
# waxsch                              19.2605
# waxsch_dial                         -32.7355
# waxsh                               137.085
# waxsh_dial                          -43.5338
# waxsth                              26.0607
# waxsth_dial                         -19.4086
# waxsz                               67.0407
# waxsz_dial                          -23.7954
# wind                                65.9854
# wind_dial                           66.0041
# wpsi                                124
# wpsi_dial                           124
# wstod                               115
# wstod_dial                          115
# x                                   0
# x_dial                              1.00969
# z                                   0
# z_dial                              13.3172
# CountCutoff                         6807993
# DetectorModel                       Dectris EIGER2 Si 500K, S/N E-01-0554
# ThresholdSetting                    4023.88989258
# Saturation                          0
# FlatField                           Corrected
# BackgroundReductionExtra            0.02
# BackgroundCorrectionConstant        0.0026712
# Detector                            0
# Monitor                             0
# Pil_Roi0                            0
# SumForIntensity1                    3.07303e+08
# TransmittedFlux                     853620
# det                                 0
# mon                                 0
# pilai0                              3.07303e+08
# pilai1                              784606
# pilct0                              5.32063e+08
# pilct1                              784606
# pilroi0                             0
# pilroi1                             0
# sec                                 1
# title                               20251028_20perc_iodine_1.23mg_1_00601.edf
# usaxs0                              0
# Operation                           Azimuthal average I(q)
# Error_model                         ErrorModel.poisson
# Geometrical_correction              True
# Transmission_correction             True
# Thickness_correction                False
# Binning mode                        Uniform
# Binning factor                      1.0
# Psi                                 0.0
# Omega                               0.2499
# MaskInvalidPixels                   True
# DetectorEdge                        3
# MaskFiles                           ['WAXS_corrected.edf']
################################################################################
    q(A⁻¹)                Intensity(a.u.)            Sigma_I(a.u.)            
       0.693100             0.00828257669             0.00607245787           
       0.695741             0.00275150734             0.00285610937           
       0.698381              0.0171845812             0.00874322853           
       0.701021           -2.37473688e-05                         0           
       0.703662             0.00849250049             0.00501547179           
       0.706302               0.006910467             0.00350271542           
       0.708942              0.0114481692             0.00581889111           
       0.711583             0.00436154457             0.00311012728           
       0.714223              0.0146600461             0.00658302632           
       0.716864              0.0112135477             0.00376703994           
       0.719504             0.00437139026             0.00253808612           
       0.722144             0.00632865609             0.00282812844           
       0.724785             0.00397670809             0.00178828462           
       0.727425             0.00734287551             0.00328736491           
       0.730065             0.00219832042             0.00127233521           
       0.732706             0.00616116186             0.00178869422           
       0.735346             0.00875931862             0.00278012337           
       0.737987              0.0122826755             0.00232633613           
       0.740627             0.00973935356             0.00309084713           
       0.743267             0.00525600719             0.00152083674           
       0.745908             0.00673966675             0.00186845463           
       0.748548             0.00746929175             0.00181308218           
       0.751189             0.00961965324              0.0027725157           
       0.753829              0.0074426022             0.00224172232           
       0.756469             0.00787527669             0.00185945499           
       0.759110             0.00633055797             0.00175688886           
       0.761750             0.00569506599             0.00147344299           
       0.764390             0.00370987497             0.00124471253           
       0.767031             0.00841728981             0.00162358386           
       0.769671             0.00928760291             0.00212742885           
       0.772312             0.00787021709               0.001490898           
       0.774952             0.00668206368              0.0018551097           
       0.777592             0.00517831939             0.00118950398           
       0.780233             0.00554060613             0.00148447843           
       0.782873             0.00728721548             0.00162824101           
       0.785513             0.00453203691             0.00137274028           
       0.788154             0.00725451315             0.00145287973           
       0.790794             0.00955529752             0.00199345608           
       0.793435             0.00537340371             0.00134294899           
       0.796075              0.0115068619             0.00189312546           
       0.798715             0.00780171136              0.0018420806           
       0.801356             0.00831210144              0.0016364586           
       0.803996              0.0070005634             0.00153111854           
       0.806637              0.0074261866             0.00125498192           
       0.809277             0.00675451828             0.00129548702           
       0.811917             0.00824478923             0.00133802214           
       0.814558             0.00580455097             0.00116683029           
       0.817198             0.00847133418             0.00133919656           
       0.819838             0.00842539457             0.00135168582           
       0.822479             0.00750914441             0.00149845933           
       0.825119             0.00820665896             0.00133329621           
       0.827760              0.0070838346              0.0012547884           
       0.830400             0.00490517581            0.000982740339           
       0.833040             0.00732792548             0.00125844916           
       0.835681             0.00586847716             0.00128027408           
       0.838321             0.00924178023             0.00134850257           
       0.840961             0.00884428291             0.00143731271           
       0.843602             0.00485380859            0.000976449878           
       0.846242              0.0070324456             0.00117516011           
       0.848883             0.00802890873             0.00128498745           
       0.851523             0.00841672766             0.00129931285           
       0.854163             0.00790969851             0.00133949542           
       0.856804             0.00655511721             0.00109642123           
       0.859444             0.00596418669              0.0010247154           
       0.862085             0.00785760401             0.00122587095           
       0.864725              0.0062024041             0.00111461212           
       0.867365             0.00828703553             0.00119470102           
       0.870006              0.0076592505             0.00109448711           
       0.872646             0.00586137848             0.00100402182           
       0.875286             0.00555370517            0.000940237757           
       0.877927             0.00902195889             0.00115638654           
       0.880567             0.00941472893             0.00122384041           
       0.883208             0.00667256835             0.00102060233           
       0.885848             0.00537304369            0.000950918863           
       0.888488              0.0070793813             0.00102377658           
       0.891129             0.00622041908             0.00098537047           
       0.893769             0.00830287072             0.00108950091           
       0.896410             0.00843439129             0.00102381031           
       0.899050             0.00872135821              0.0011449065           
       0.901690             0.00925964234              0.0012850464           
       0.904331             0.00645215582            0.000950998516           
       0.906971             0.00666198568             0.00102802494           
       0.909611             0.00787845974             0.00101769251           
       0.912252             0.00615580632            0.000929168672           
       0.914892             0.00835561827             0.00118297845           
       0.917533             0.00731566107             0.00104713767           
       0.920173             0.00822906798             0.00103040576           
       0.922813             0.00797414111             0.00106441439           
       0.925454             0.00747429163            0.000927949253           
       0.928094             0.00654065165            0.000926727185           
       0.930734             0.00699677477             0.00103192703           
       0.933375             0.00967803378             0.00120171946           
       0.936015             0.00811395372            0.000999341501           
       0.938656             0.00679747257            0.000981240503           
       0.941296             0.00743808443            0.000930234537           
       0.943936               0.007042078            0.000887623049           
       0.946577             0.00638747309            0.000839773128           
       0.949217              0.0072658699            0.000823636924           
       0.951858             0.00816848215             0.00091416917           
       0.954498             0.00780362456             0.00103423313           
       0.957138             0.00566138567            0.000834541837           
       0.959779             0.00836532376             0.00100003338           
       0.962419             0.00661821589             0.00088357852           
       0.965059             0.00872853673             0.00106721794           
       0.967700             0.00697608814            0.000977175309           
       0.970340             0.00759833453            0.000902444312           
       0.972981              0.0059366878             0.00072677073           
       0.975621             0.00715669492            0.000848892827           
       0.978261             0.00698514312             0.00079687143           
       0.980902              0.0107585719              0.0011832391           
       0.983542             0.00867365584            0.000940842265           
       0.986182              0.0080884645            0.000892008676           
       0.988823             0.00697268622            0.000804185249           
       0.991463             0.00685795137            0.000850893474           
       0.994104               0.007119796            0.000845757575           
       0.996744             0.00858036898             0.00094702593           
       0.999384             0.00736441641            0.000784653743           
       1.002025             0.00771866905            0.000896593728           
       1.004665             0.00783599642            0.000825579693           
       1.007306             0.00697332693            0.000774824301           
       1.009946             0.00904476251            0.000899958332           
       1.012586              0.0071379517            0.000778651847           
       1.015227             0.00616039509            0.000777126389           
       1.017867             0.00779721445            0.000840256251           
       1.020507             0.00791375186            0.000819962114           
       1.023148             0.00840034335            0.000911556392           
       1.025788             0.00631200431            0.000724520459           
       1.028429             0.00722228765            0.000811945003           
       1.031069              0.0082477815            0.000816516867           
       1.033709             0.00738505495            0.000821311159           
       1.036350             0.00825025749            0.000779663237           
       1.038990             0.00992298777            0.000870768786           
       1.041630              0.0089824589            0.000864107471           
       1.044271             0.00836893571            0.000784417518           
       1.046911             0.00896917904            0.000854181966           
       1.049552             0.00926952557            0.000912328647           
       1.052192             0.00838786557            0.000792463668           
       1.054832             0.00792701188            0.000777394092           
       1.057473              0.0089003137            0.000812031825           
       1.060113             0.00875082634            0.000785272967           
       1.062754             0.00837128376            0.000784170298           
       1.065394             0.00738378518            0.000778637057           
       1.068034             0.00918479473            0.000790143946           
       1.070675             0.00851265232             0.00079348624           
       1.073315              0.0086888275            0.000813145732           
       1.075955              0.0080518321              0.0007389813           
       1.078596              0.0077214123            0.000769106832           
       1.081236             0.00898470603            0.000794435451           
       1.083877             0.00910298196            0.000792474043           
       1.086517             0.00902973948             0.00084633859           
       1.089157             0.00889006467            0.000871352722           
       1.091798             0.00813027297            0.000730555587           
       1.094438              0.0084101209            0.000740624104           
       1.097078             0.00888061085             0.00072993513           
       1.099719              0.0089784776            0.000793874978           
       1.102359              0.0084428174            0.000720954387           
       1.105000             0.00807081949            0.000788207216           
       1.107640             0.00793913245            0.000747480505           
       1.110280             0.00801472704            0.000685258273           
       1.112921             0.00980851422             0.00081433526           
       1.115561             0.00880147566            0.000733150673           
       1.118202             0.00973203482            0.000771660638           
       1.120842              0.0109320627            0.000859569447           
       1.123482             0.00810624046            0.000736951089           
       1.126123              0.0101525515            0.000791062871           
       1.128763             0.00692589616            0.000657853043           
       1.131403             0.00839726763            0.000697991638           
       1.134044             0.00934002184              0.0007574807           
       1.136684             0.00977417761            0.000826162694           
       1.139325             0.00941369675            0.000746893995           
       1.141965              0.0087517827            0.000724917778           
       1.144605             0.00797030672            0.000659629468           
       1.147246             0.00868422794             0.00070465945           
       1.149886              0.0105657645            0.000774496879           
       1.152527              0.0079419306            0.000681243362           
       1.155167              0.0106240819            0.000749436795           
       1.157807             0.00874951273            0.000729202584           
       1.160448              0.0107497312            0.000789293817           
       1.163088             0.00885216063            0.000683196955           
       1.165728             0.00911333948               0.000711724           
       1.168369             0.00995830011            0.000750860553           
       1.171009             0.00865830297            0.000679464035           
       1.173650             0.00913570648            0.000716257905           
       1.176290              0.0101403477             0.00073742703           
       1.178930             0.00988351441            0.000713534127           
       1.181571             0.00986212135            0.000726895796           
       1.184211             0.00839976347             0.00067322094           
       1.186851              0.0106829892            0.000742283311           
       1.189492             0.00926140466            0.000686483549           
       1.192132             0.00974195616            0.000696168638           
       1.194773             0.00984616328            0.000702940066           
       1.197413             0.00811272201            0.000611361049           
       1.200053             0.00920531038            0.000667775665           
       1.202694              0.0102523896            0.000670159695           
       1.205334             0.00975173996            0.000704367744           
       1.207975             0.00939128744            0.000659796086           
       1.210615               0.010656324            0.000775341951           
       1.213255              0.0101240798            0.000676739898           
       1.215896             0.00933057748            0.000661449667           
       1.218536             0.00925887447            0.000633563657           
       1.221176             0.00962886728            0.000702441672           
       1.223817             0.00950194768            0.000655033714           
       1.226457              0.0100561326            0.000687440764           
       1.229098              0.0103873894            0.000698637405           
       1.231738              0.0102423852             0.00069715826           
       1.234378              0.0101719774            0.000652829506           
       1.237019             0.00852887934            0.000616009022           
       1.239659              0.0093109168            0.000638024849           
       1.242299             0.00960337454            0.000639735106           
       1.244940             0.00982562231            0.000629340803           
       1.247580             0.00983137967            0.000648777153           
       1.250221              0.0106805117            0.000672041803           
       1.252861             0.00914030862            0.000591861143           
       1.255501              0.0108449735            0.000700014488           
       1.258142              0.0107971546            0.000656337403           
       1.260782              0.0100735556            0.000647680184           
       1.263423             0.00976104418            0.000612617819           
       1.266063              0.0116248179            0.000685245649           
       1.268703              0.0102776144            0.000638970094           
       1.271344              0.0121309189            0.000717721342           
       1.273984              0.0104131899            0.000642228145           
       1.276624             0.00963921183             0.00060629181           
       1.279265              0.0104416394            0.000641502267           
       1.281905              0.0105201423            0.000646767007           
       1.284546               0.010404143            0.000621702782           
       1.287186               0.010081726            0.000600430965           
       1.289826             0.00928180683            0.000607181836           
       1.292467              0.0112450299            0.000653597231           
       1.295107             0.00970611804            0.000601197275           
       1.297747              0.0100986718             0.00058681417           
       1.300388               0.010120626            0.000640396494           
       1.303028               0.011380674            0.000648302929           
       1.305669             0.00955642353            0.000608221045           
       1.308309              0.0115495857            0.000662062476           
       1.310949              0.0101342589            0.000619548197           
       1.313590              0.0110437514            0.000626534728           
       1.316230              0.0108738097            0.000663435391           
       1.318871             0.00985654481            0.000618614532           
       1.321511               0.011559599            0.000657512246           
       1.324151              0.0120268311            0.000650785883           
       1.326792              0.0113763128            0.000636854169           
       1.329432              0.0113604604            0.000631919279           
       1.332072              0.0115513288            0.000627709326           
       1.334713              0.0115302558             0.00064726711           
       1.337353               0.011414168            0.000617609315           
       1.339994              0.0113886513            0.000647394602           
       1.342634              0.0117980902            0.000631871761           
       1.345274              0.0110298097            0.000632277922           
       1.347915              0.0124065318            0.000652059923           
       1.350555              0.0121773216            0.000657322543           
       1.353195              0.0109028201             0.00062502858           
       1.355836              0.0107352159            0.000610534886           
       1.358476              0.0119120296            0.000624575732           
       1.361117              0.0111231111            0.000604367461           
       1.363757              0.0116328575            0.000636932921           
       1.366397              0.0102846217            0.000580763644           
       1.369038              0.0112057608            0.000612250173           
       1.371678              0.0121499364             0.00063190167           
       1.374319             0.00967675389            0.000559076847           
       1.376959              0.0124364265            0.000627429384           
       1.379599              0.0105633083            0.000619710868           
       1.382240              0.0107549494            0.000587694755           
       1.384880              0.0116334959            0.000647428603           
       1.387520             0.00987787035            0.000566590085           
       1.390161              0.0112740659            0.000574898753           
       1.392801              0.0119118989            0.000615699639           
       1.395442              0.0117101807            0.000618801737           
       1.398082              0.0118713721            0.000583455528           
       1.400722             0.00996207618            0.000559856522           
       1.403363              0.0119166108            0.000644540818           
       1.406003              0.0108681548            0.000576057026           
       1.408644              0.0112064493            0.000612777168           
       1.411284             0.00979666454            0.000542521518           
       1.413924              0.0110793565            0.000574807044           
       1.416565              0.0107380833            0.000563662158           
       1.419205              0.0111267664            0.000598536619           
       1.421845              0.0109680891            0.000593904535           
       1.424486              0.0114897476            0.000584296999           
       1.427126              0.0103480854            0.000576027371           
       1.429767              0.0113777526            0.000568296368           
       1.432407              0.0117249357             0.00060374118           
       1.435047              0.0112323404             0.00055497452           
       1.437688                  0.011731            0.000575639824           
       1.440328              0.0106845701             0.00056068975           
       1.442968              0.0108704634            0.000578217623           
       1.445609              0.0104751299            0.000549600049           
       1.448249              0.0106957054            0.000569417636           
       1.450890              0.0110988832            0.000576264579           
       1.453530              0.0101709737            0.000577136758           
       1.456170               0.010694276            0.000574353405           
       1.458811              0.0104998013            0.000544192364           
       1.461451              0.0108453404            0.000554525176           
       1.464092              0.0101906265            0.000541041047           
       1.466732              0.0114346438            0.000568189184           
       1.469372              0.0109786192            0.000543714429           
       1.472013                0.01112246              0.0005902359           
       1.474653              0.0109886454            0.000577624382           
       1.477293              0.0114768058             0.00060275706           
       1.479934              0.0111288113            0.000566369221           
       1.482574              0.0107570504            0.000538645074           
       1.485215              0.0103120048            0.000537207506           
       1.487855              0.0104019042            0.000546661572           
       1.490495              0.0113047982            0.000567794401           
       1.493136              0.0115261291            0.000565467231           
       1.495776             0.00990570414            0.000521826796           
       1.498416              0.0103421993            0.000550644802           
       1.501057              0.0105124881            0.000542924702           
       1.503697              0.0115181445            0.000555604471           
       1.506338              0.0107088541             0.00054551967           
       1.508978              0.0104013328             0.00053234268           
       1.511618             0.00984867477            0.000551675004           
       1.514259              0.0108906929            0.000560084265           
       1.516899              0.0108240956            0.000543666468           
       1.519540              0.0111624594            0.000561001652           
       1.522180              0.0102973206            0.000543556515           
       1.524820              0.0112279363            0.000564402726           
       1.527461              0.0101660629            0.000539707079           
       1.530101              0.0106764944            0.000547558822           
       1.532741             0.00993786051            0.000525212647           
       1.535382             0.00960374257             0.00052462008           
       1.538022             0.00969587247            0.000496584786           
       1.540663              0.0107302572            0.000561875866           
       1.543303              0.0106290746            0.000519245307           
       1.545943              0.0108931294            0.000556367497           
       1.548584              0.0108897876            0.000566267759           
       1.551224             0.00996798644            0.000500918599           
       1.553864              0.0108858187             0.00055314666           
       1.556505               0.010432872            0.000523118947           
       1.559145               0.010093361            0.000520839794           
       1.561786              0.0101719697            0.000523266739           
       1.564426              0.0107155131            0.000520360344           
       1.567066              0.0109700527            0.000551675595           
       1.569707             0.00964335439            0.000507950353           
       1.572347              0.0103051845            0.000542472141           
       1.574988             0.00974809619             0.00050219214           
       1.577628             0.00919224187            0.000508513347           
       1.580268             0.00993650857            0.000512253085           
       1.582909             0.00987437604            0.000541267661           
       1.585549             0.00889211811            0.000498729197           
       1.588189             0.00932937979            0.000499694949           
       1.590830             0.00936284027            0.000499961948           
       1.593470             0.00893305105            0.000507688824           
       1.596111              0.0104715946            0.000536651237           
       1.598751             0.00907932818            0.000484196155           
       1.601391             0.00968491674            0.000511116603           
       1.604032             0.00912498115            0.000506492981           
       1.606672             0.00913342218            0.000492333573           
       1.609312             0.00964022719            0.000528005159           
       1.611953             0.00960228881             0.00051566827           
       1.614593               0.009195153            0.000494990031           
       1.617234             0.00933766131            0.000516956128           
       1.619874             0.00923206881            0.000511994357           
       1.622514             0.00876740369            0.000492136938           
       1.625155              0.0086593086             0.00049198302           
       1.627795              0.0093195308            0.000497888397           
       1.630436             0.00879094415            0.000481037638           
       1.633076             0.00931615195            0.000501693526           
       1.635716             0.00905811006            0.000486999639           
       1.638357             0.00937714107            0.000496807673           
       1.640997             0.00966662416            0.000519697738           
       1.643637             0.00968042766            0.000506085422           
       1.646278             0.00972179541              0.0005231008           
       1.648918             0.00872571741            0.000496930705           
       1.651559             0.00803925473            0.000480685376           
       1.654199             0.00928239194             0.00050235624           
       1.656839              0.0089834318            0.000494372788           
       1.659480             0.00843669943            0.000497083705           
       1.662120             0.00781929326             0.00045071492           
       1.664761             0.00891857022            0.000500003962           
       1.667401             0.00831882773            0.000461548672           
       1.670041             0.00854979983            0.000475046853           
       1.672682             0.00844302092            0.000470130797           
       1.675322             0.00880879539            0.000477118536           
       1.677962             0.00867137539            0.000468160293           
       1.680603             0.00841279063            0.000462546078           
       1.683243              0.0086901318            0.000490470592           
       1.685884             0.00993958621            0.000528420026           
       1.688524             0.00871357608            0.000485194823           
       1.691164             0.00948585906            0.000506354695           
       1.693805             0.00900657056            0.000498816852           
       1.696445              0.0088591319            0.000497586872           
       1.699085             0.00852309657            0.000471704746           
       1.701726              0.0088599181            0.000463296928           
       1.704366             0.00836538234            0.000474253673           
       1.707007             0.00908566646            0.000483232102           
       1.709647             0.00911649328             0.00048951762           
       1.712287             0.00877190916            0.000484356723           
       1.714928             0.00791496931            0.000463799618           
       1.717568             0.00899270868            0.000465697346           
       1.720209             0.00854774299            0.000475564581           
       1.722849             0.00864662823            0.000475848447           
       1.725489             0.00894513846            0.000484399088           
       1.728130             0.00832515035            0.000496620436           
       1.730770             0.00830535638            0.000471094904           
       1.733410             0.00888082338            0.000479484944           
       1.736051             0.00818593339            0.000463548177           
       1.738691               0.009128025            0.000479573323           
       1.741332               0.008484658            0.000475883569           
       1.743972             0.00818574041            0.000482696342           
       1.746612             0.00894954556            0.000484654291           
       1.749253             0.00854908817            0.000483041557           
       1.751893             0.00873476712            0.000484675098           
       1.754533             0.00844713482            0.000476183108           
       1.757174             0.00831729457            0.000468084441           
       1.759814             0.00864537716            0.000469993304           
       1.762455             0.00820289831            0.000466214307           
       1.765095             0.00832785565            0.000449374786           
       1.767735             0.00883643015            0.000477173152           
       1.770376             0.00898260332            0.000482372009           
       1.773016             0.00858177174            0.000468328577           
       1.775657             0.00814626727            0.000449725186           
       1.778297             0.00866347496            0.000459788492           
       1.780937             0.00813130159             0.00047016485           
       1.783578             0.00791248089            0.000452198575           
       1.786218             0.00838791414            0.000485889848           
       1.788858             0.00939066737            0.000488283839           
       1.791499              0.0089154154            0.000470424344           
       1.794139             0.00813028096            0.000445588414           
       1.796780              0.0088988009            0.000463925348           
       1.799420             0.00912447303            0.000467169577           
       1.802060             0.00838384554             0.00045142554           
       1.804701              0.0104106917            0.000482742036           
       1.807341             0.00926991213            0.000478658705           
       1.809981             0.00945474193            0.000485018763           
       1.812622             0.00883025648            0.000460288806           
       1.815262             0.00930550051             0.00048255011           
       1.817903             0.00872763481            0.000460402633           
       1.820543             0.00908837606            0.000477142129           
       1.823183             0.00970484501            0.000492787976           
       1.825824              0.0091478433            0.000457079751           
       1.828464             0.00893196383            0.000470869083           
       1.831105              0.0086710301            0.000451113285           
       1.833745             0.00850925974            0.000456429511           
       1.836385             0.00972647061             0.00050191017           
       1.839026              0.0089039422            0.000478701974           
       1.841666             0.00870600343            0.000471672716           
       1.844306             0.00832557931            0.000448666831           
       1.846947             0.00830938937            0.000452159448           
       1.849587             0.00931020695            0.000528507493           
       1.852228             0.00782057038            0.000438004086           
       1.854868             0.00850739888            0.000482576364           
       1.857508             0.00755992088            0.000450449109           
       1.860149             0.00868672706            0.000491626045           
       1.862789             0.00864965572            0.000473519191           
       1.865429              0.0088380216            0.000499634652           
       1.868070             0.00863743172            0.000487348946           
       1.870710              0.0091757574            0.000490725898           
       1.873351             0.00870883375            0.000483987308           
       1.875991             0.00864440986            0.000490063333           
       1.878631             0.00894821052             0.00048905111           
       1.881272             0.00904131264            0.000488294923           
       1.883912             0.00865281486            0.000497135232           
       1.886553             0.00775903841            0.000465497147           
       1.889193             0.00885514031            0.000496441522           
       1.891833             0.00899306405            0.000519573541           
       1.894474             0.00943616818            0.000527584692           
       1.897114             0.00894803728            0.000497152486           
       1.899754             0.00792994965            0.000469974473           
       1.902395             0.00853577383            0.000478063322           
       1.905035              0.0082761574            0.000498589393           
       1.907676              0.0090698736            0.000491939842           
       1.910316             0.00952896783            0.000517624876           
       1.912956             0.00933310891            0.000501007442           
       1.915597              0.0080653096            0.000468340792           
       1.918237             0.00911048999            0.000514067734           
       1.920878             0.00971620913             0.00052870864           
       1.923518             0.00834977398            0.000490331248           
       1.926158             0.00933484126             0.00051172093           
       1.928799             0.00840558354            0.000479962433           
       1.931439             0.00899058485             0.00050940307           
       1.934079             0.00862425014            0.000520108644           
       1.936720             0.00945193188            0.000504490197           
       1.939360             0.00897112345            0.000524352707           
       1.942001             0.00760784538            0.000442575821           
       1.944641             0.00770659113            0.000454212904           
       1.947281             0.00861967109            0.000475939757           
       1.949922             0.00811988371            0.000477138733           
       1.952562             0.00759543303            0.000475937875           
       1.955202             0.00945043604            0.000530237219           
       1.957843             0.00885162747            0.000499855797           
       1.960483             0.00806442545            0.000498819434           
       1.963124             0.00871884376            0.000508023379           
       1.965764             0.00878735721            0.000480958922           
       1.968404             0.00789146232             0.00045147603           
       1.971045             0.00918680714            0.000496647076           
       1.973685             0.00884410147             0.00051113665           
       1.976326             0.00824459331            0.000486726016           
       1.978966             0.00871360021            0.000504769881           
       1.981606             0.00871215859            0.000515254553           
       1.984247             0.00839441435            0.000502446067           
       1.986887             0.00827690401            0.000492940449           
       1.989527             0.00812764449            0.000483214987           
       1.992168             0.00763585261            0.000485971046           
       1.994808             0.00823677266            0.000502567647           
       1.997449             0.00788216396            0.000481534007           
       2.000089             0.00856153482             0.00049986737           
       2.002729             0.00882076595            0.000507682763           
       2.005370             0.00790916187            0.000475561079           
       2.008010             0.00818191175            0.000504801427           
       2.010650             0.00765076709            0.000491783861           
       2.013291             0.00861620495             0.00050072551           
       2.015931             0.00870353872            0.000499699318           
       2.018572             0.00795530123            0.000510985205           
       2.021212             0.00851342847            0.000519108883           
       2.023852             0.00736694704            0.000457034508           
       2.026493             0.00723156343            0.000473046389           
       2.029133             0.00837318136            0.000498774206           
       2.031774             0.00831779322            0.000521718268           
       2.034414             0.00811607898            0.000474196688           
       2.037054             0.00800580324            0.000482901533           
       2.039695             0.00855491313            0.000495417616           
       2.042335             0.00842866046            0.000511034504           
       2.044975             0.00849881103            0.000506933545           
       2.047616             0.00778749872             0.00048405062           
       2.050256             0.00797487502            0.000494475043           
       2.052897             0.00867503937            0.000525232661           
       2.055537             0.00757221314            0.000474255294           
       2.058177             0.00771827022            0.000468881456           
       2.060818             0.00814887901            0.000504705625           
       2.063458             0.00810741001            0.000524613421           
       2.066098             0.00842008638            0.000504338989           
       2.068739             0.00748144216            0.000482787114           
       2.071379             0.00744421355            0.000494144287           
       2.074020             0.00831999501            0.000511050009           
       2.076660             0.00736877957            0.000484837666           
       2.079300             0.00765562991            0.000506292913           
       2.081941             0.00780422051            0.000468045997           
       2.084581             0.00815936558            0.000505142861           
       2.087222             0.00747471413            0.000466275409           
       2.089862             0.00804289936            0.000526793323           
       2.092502             0.00803495998            0.000510398821           
       2.095143             0.00771482814            0.000516456677           
       2.097783             0.00776324944            0.000501583691           
       2.100423             0.00815260775            0.000495294057           
       2.103064             0.00716336443             0.00048174556           
       2.105704             0.00699184708            0.000473585766           
       2.108345             0.00766465333            0.000476377748           
       2.110985             0.00848647749            0.000535389214           
       2.113625              0.0072554536            0.000499357503           
       2.116266             0.00796348982            0.000530578105           
       2.118906             0.00754932541            0.000481439243           
       2.121546             0.00758365258            0.000473319534           
       2.124187             0.00845536459            0.000524617679           
       2.126827             0.00717580644            0.000488688715           
       2.129468             0.00703864205            0.000485231864           
       2.132108             0.00728787826            0.000480379316           
       2.134748             0.00800063649            0.000501369336           
       2.137389             0.00772984989            0.000514125037           
       2.140029             0.00823404451            0.000475050206           
       2.142670             0.00798889588            0.000500081572           
       2.145310              0.0071204803            0.000459522554           
       2.147950             0.00867334031            0.000522006313           
       2.150591             0.00708688761            0.000467088311           
       2.153231             0.00767234634            0.000500260354           
       2.155871             0.00694625243            0.000459847989           
       2.158512             0.00781960939              0.0005090899           
       2.161152             0.00826818596            0.000507083532           
       2.163793              0.0077766337            0.000489565321           
       2.166433             0.00666125672            0.000465284733           
       2.169073             0.00773875996             0.00049034108           
       2.171714             0.00718474026            0.000468931464           
       2.174354             0.00748751551            0.000500207967           
       2.176995             0.00769897997            0.000505088023           
       2.179635             0.00790226142            0.000540734548           
       2.182275             0.00826541692            0.000522138592           
       2.184916             0.00721259291            0.000471105149           
       2.187556             0.00657119176             0.00044516333           
       2.190196             0.00622113283             0.00045262938           
       2.192837             0.00791906697            0.000507896994           
       2.195477             0.00727502204            0.000464111561           
       2.198118             0.00900540235            0.000529596091           
       2.200758             0.00748537204            0.000495360727           
       2.203398             0.00727827302              0.0004915849           
       2.206039             0.00770396417            0.000478655729           
       2.208679             0.00716456986            0.000472337707           
       2.211319             0.00855775271            0.000519199623           
       2.213960             0.00722175674            0.000483343758           
       2.216600             0.00846088164            0.000541207279           
       2.219241             0.00715113527            0.000475530565           
       2.221881             0.00740108721            0.000484764401           
       2.224521             0.00758234343            0.000496677081           
       2.227162             0.00711837049            0.000471605506           
       2.229802             0.00711672599            0.000486312449           
       2.232443             0.00721176356            0.000481827208           
       2.235083             0.00775281434            0.000514310594           
       2.237723             0.00785983886            0.000496950678           
       2.240364             0.00680032593            0.000473631778           
       2.243004             0.00652414759            0.000460211205           
       2.245644             0.00753725826            0.000499605749           
       2.248285             0.00776908835            0.000497069628           
       2.250925             0.00663657469             0.00046220472           
       2.253566             0.00749899185            0.000525257942           
       2.256206             0.00756542754            0.000517030526           
       2.258846             0.00662447066            0.000460237348           
       2.261487             0.00677706507            0.000488593769           
       2.264127             0.00713252965             0.00048409319           
       2.266767              0.0078611941            0.000521759999           
       2.269408             0.00759386624            0.000514911755           
       2.272048             0.00784667867              0.0005202884           
       2.274689             0.00748379951            0.000514810405           
       2.277329             0.00740987541            0.000482327192           
       2.279969             0.00741491397            0.000513584199           
       2.282610             0.00739611864            0.000498666808           
       2.285250             0.00683869944            0.000458953712           
       2.287891             0.00694723696            0.000495957126           
       2.290531             0.00709208103            0.000507836739           
       2.293171             0.00805283366            0.000527121719           
       2.295812             0.00702487877             0.00049035062           
       2.298452             0.00718274594            0.000518506134           
       2.301092             0.00731361043            0.000486124724           
       2.303733             0.00724002705            0.000503188938           
       2.306373             0.00736531103            0.000515516687           
       2.309014             0.00846957574             0.00054202857           
       2.311654             0.00779129993            0.000542510961           
       2.314294             0.00645124035            0.000454807876           
       2.316935             0.00776029797            0.000500882804           
       2.319575             0.00667417878            0.000486699835           
       2.322215             0.00751531913            0.000538237644           
       2.324856             0.00700872079            0.000477883991           
       2.327496             0.00751867115            0.000526302201           
       2.330137             0.00708574035             0.00048891712           
       2.332777             0.00687444326            0.000496552264           
       2.335417             0.00635938087            0.000463331996           
       2.338058             0.00730685783            0.000511485742           
       2.340698             0.00651671931             0.00047924365           
       2.343339             0.00791351745             0.00053973435           
       2.345979             0.00718017482            0.000486396493           
       2.348619             0.00754655594            0.000516879228           
       2.351260             0.00621975874            0.000466512995           
       2.353900             0.00776832547            0.000519711999           
       2.356540              0.0079357624            0.000524537373           
       2.359181               0.007615681            0.000506646221           
       2.361821             0.00694915241            0.000467499874           
       2.364462             0.00727243992            0.000500190435           
       2.367102             0.00738080244            0.000517841126           
       2.369742             0.00704953933            0.000532691442           
       2.372383             0.00786623696            0.000509525749           
       2.375023             0.00715339352            0.000510776526           
       2.377663             0.00746643815            0.000498949049           
       2.380304             0.00682890398            0.000485128287           
       2.382944             0.00634161969            0.000445278519           
       2.385585             0.00682831139             0.00049278353           
       2.388225             0.00673514016            0.000487110291           
       2.390865             0.00759754374            0.000512042897           
       2.393506             0.00703949088            0.000483580318           
       2.396146             0.00719345392            0.000528555851           
       2.398787             0.00738319773            0.000493487678           
       2.401427             0.00793156195            0.000493701537           
       2.404067              0.0071585364            0.000479488258           
       2.406708             0.00724585433            0.000476618924           
       2.409348             0.00691207364            0.000493766291           
       2.411988             0.00782504921            0.000514741079           
       2.414629             0.00680901857            0.000495115818           
       2.417269             0.00729649932            0.000518516941           
       2.419910             0.00614170047             0.00047682233           
       2.422550             0.00745373598            0.000502565244           
       2.425190             0.00726727498            0.000523088149           
       2.427831             0.00756220491            0.000530597373           
       2.430471             0.00669788697            0.000475732511           
       2.433112             0.00736855186            0.000485889659           
       2.435752             0.00707011793             0.00050370205           
       2.438392             0.00835685103            0.000528568148           
       2.441033             0.00740450053            0.000527291835           
       2.443673             0.00683520592            0.000507005549           
       2.446313              0.0072239163            0.000521682188           
       2.448954             0.00719668168            0.000495777161           
       2.451594             0.00796249549            0.000560722296           
       2.454235             0.00691491907            0.000490272813           
       2.456875             0.00825437588            0.000560488689           
       2.459515             0.00860923892            0.000587228038           
       2.462156             0.00713582037             0.00050475708           
       2.464796             0.00856886116            0.000545987177           
       2.467436             0.00829272775            0.000555442951           
       2.470077             0.00725668325             0.00049247594           
       2.472717             0.00797608567            0.000518546907           
       2.475358              0.0079823235            0.000524158672           
       2.477998             0.00685564918            0.000477571502           
       2.480638             0.00715807083            0.000496662483           
       2.483279             0.00661727649            0.000499097664           
       2.485919             0.00659450034            0.000480166224           
       2.488560             0.00698452467            0.000492780941           
       2.491200             0.00697143386            0.000506958384           
       2.493840             0.00772297752            0.000564602841           
       2.496481             0.00642434423            0.000506526557           
       2.499121             0.00750974336            0.000532673746           
       2.501761             0.00724398034            0.000530095081           
       2.504402             0.00646349588            0.000493408989           
       2.507042              0.0069754113             0.00050877883           
       2.509683             0.00686435653              0.0004969987           
       2.512323             0.00586931416            0.000482659723           
       2.514963             0.00780858361             0.00054983783           
       2.517604             0.00691953597            0.000537080577           
       2.520244             0.00732595761            0.000518090089           
       2.522884             0.00738782901            0.000527713655           
       2.525525             0.00720796344            0.000527166453           
       2.528165             0.00780062326            0.000539862504           
       2.530806             0.00835617208             0.00056849525           
       2.533446              0.0118451317            0.000662404104           
       2.536086             0.00890485968             0.00056919622           
       2.538727             0.00693058762             0.00048173663           
       2.541367             0.00678793362            0.000481449243           
       2.544008             0.00654356839            0.000488187572           
       2.546648             0.00731249324            0.000524926245           
       2.549288              0.0069830655            0.000523418141           
       2.551929             0.00703257153            0.000516897344           
       2.554569             0.00726241206            0.000506059585           
       2.557209              0.0065280135            0.000484196888           
       2.559850             0.00635757931            0.000479368776           
       2.562490             0.00686673331            0.000514910779           
       2.565131              0.0070992028            0.000542844614           
       2.567771             0.00701315541             0.00052020215           
       2.570411             0.00604154169            0.000477600404           
       2.573052             0.00778049532            0.000548819585           
       2.575692              0.0071091481            0.000521431058           
       2.578332             0.00729339913            0.000530328933           
       2.580973             0.00651612065             0.00049650421           
       2.583613             0.00677306216              0.0004941455           
       2.586254             0.00711875568            0.000505894983           
       2.588894             0.00651444603            0.000502555017           
       2.591534             0.00763934917            0.000563367941           
       2.594175             0.00579362152            0.000481354818           
       2.596815             0.00747920983            0.000550137576           
       2.599456             0.00668900666            0.000493364491           
       2.602096             0.00712676911            0.000513128369           
       2.604736             0.00646843008            0.000500445743           
       2.607377             0.00752693554             0.00052561538           
       2.610017             0.00700289127            0.000498115866           
       2.612657             0.00734151007            0.000542479647           
       2.615298             0.00640905733            0.000494854594           
       2.617938             0.00722691957            0.000562130535           
       2.620579             0.00578240942            0.000482704822           
       2.623219             0.00722727708            0.000538883708           
       2.625859             0.00725495297            0.000524948349           
       2.628500             0.00637219102            0.000488751009           
       2.631140             0.00644856108            0.000499246916           
       2.633780             0.00799659074            0.000555467574           
       2.636421             0.00712332297            0.000537153635           
       2.639061             0.00739297276            0.000515150417           
       2.641702             0.00746843798            0.000529759754           
       2.644342             0.00761156075            0.000537090558           
       2.646982             0.00662237295            0.000493487155           
       2.649623              0.0075922058            0.000553729504           
       2.652263              0.0068426023            0.000520408264           
       2.654904             0.00615074138            0.000493894242           
       2.657544             0.00646250621            0.000476841226           
       2.660184             0.00642699186            0.000503248361           
       2.662825             0.00787804707            0.000570096326           
       2.665465             0.00699084425             0.00051940271           
       2.668105              0.0079458559            0.000583668354           
       2.670746             0.00754148354            0.000525286121           
       2.673386              0.0119095961            0.000680295862           
       2.676027              0.0133917363            0.000709808347           
       2.678667             0.00896369408             0.00056663675           
       2.681307              0.0118959771            0.000641385271           
       2.683948              0.0138414805            0.000710840945           
       2.686588                0.01092007            0.000620913814           
       2.689229             0.00984886212            0.000576204598           
       2.691869             0.00928404311            0.000591270749           
       2.694509             0.00912864638            0.000586623675           
       2.697150             0.00869045242            0.000563084807           
       2.699790             0.00833205145            0.000578012878           
       2.702430             0.00758302154            0.000527091445           
       2.705071             0.00717583903            0.000529824862           
       2.707711             0.00723297822            0.000516278028           
       2.710352             0.00674814752             0.00052691225           
       2.712992             0.00703764522            0.000548045323           
       2.715632             0.00708700872            0.000510257496           
       2.718273             0.00662367708            0.000511234786           
       2.720913             0.00709151071            0.000527476034           
       2.723553              0.0072367243            0.000536424416           
       2.726194             0.00738532256            0.000566468172           
       2.728834             0.00757281601            0.000573882777           
       2.731475             0.00718668825            0.000515963919           
       2.734115              0.0072332276            0.000533696783           
       2.736755             0.00690921525            0.000525899602           
       2.739396             0.00789177375            0.000558794651           
       2.742036             0.00680362215            0.000543000965           
       2.744677             0.00669211388            0.000522525283           
       2.747317             0.00857450398            0.000587248908           
       2.749957             0.00679696794            0.000526517106           
       2.752598             0.00686359431            0.000534833361           
       2.755238             0.00751579469            0.000569770831           
       2.757878             0.00767682216            0.000570807485           
       2.760519             0.00834482458            0.000588813844           
       2.763159              0.0095710373            0.000624290995           
       2.765800             0.00680454018            0.000501640682           
       2.768440             0.00938006296            0.000593313058           
       2.771080              0.0101458964            0.000622209013           
       2.773721             0.00706419143            0.000532578225           
       2.776361             0.00660313145            0.000522008671           
       2.779001             0.00838662374            0.000609240718           
       2.781642             0.00639690095            0.000528162747           
       2.784282              0.0062485425            0.000530585954           
       2.786923             0.00650718219            0.000546223025           
       2.789563             0.00701330479            0.000546152755           
       2.792203             0.00686039658            0.000516012945           
       2.794844             0.00730668547            0.000583647021           
       2.797484             0.00742376607            0.000555215961           
       2.800125             0.00798814617            0.000605594926           
       2.802765             0.00708374718            0.000560472627           
       2.805405             0.00601280995            0.000518118446           
       2.808046             0.00785130308            0.000602461843           
       2.810686             0.00667197789            0.000510324627           
       2.813326             0.00668844539            0.000530740211           
       2.815967             0.00743557768            0.000575509785           
       2.818607              0.0064824755            0.000512789296           
       2.821248             0.00675295668            0.000512512215           
       2.823888              0.0066997846            0.000529902071           
       2.826528             0.00690357206            0.000520930272           
       2.829169             0.00642061822            0.000526213372           
       2.831809             0.00624226322            0.000525910729           
       2.834449             0.00583068792            0.000511489671           
       2.837090             0.00654969986            0.000523592584           
       2.839730               0.006593905            0.000522791504           
       2.842371             0.00690122724            0.000535607543           
       2.845011             0.00700364418            0.000543868103           
       2.847651             0.00636169738            0.000518980581           
       2.850292             0.00633884768            0.000523131906           
       2.852932              0.0065337251            0.000542687163           
       2.855573             0.00652687947            0.000526146001           
       2.858213             0.00678853754            0.000563483298           
       2.860853             0.00772849994            0.000559281892           
       2.863494             0.00727685435            0.000561883887           
       2.866134             0.00664513545            0.000558083726           
       2.868774             0.00623497389            0.000531285187           
       2.871415             0.00765491917             0.00059785149           
       2.874055             0.00729722441            0.000557960253           
       2.876696              0.0072362819            0.000570654364           
       2.879336               0.008134798             0.00058314855           
       2.881976             0.00715266976            0.000564001301           
       2.884617             0.00768079098            0.000575868622           
       2.887257             0.00723351454            0.000561734366           
       2.889897             0.00697837617            0.000540383442           
       2.892538             0.00803321466             0.00063516032           
       2.895178             0.00684110047            0.000529538796           
       2.897819             0.00693876459             0.00054402234           
       2.900459             0.00597824312            0.000495143165           
       2.903099              0.0065378189            0.000512497842           
       2.905740             0.00651424413            0.000524808524           
       2.908380             0.00640184288            0.000526172491           
       2.911021              0.0065266996            0.000539916485           
       2.913661             0.00614246385            0.000523625693           
       2.916301             0.00657734462            0.000542361566           
       2.918942             0.00813922298            0.000577100194           
       2.921582             0.00675448838            0.000550056449           
       2.924222             0.00769662923            0.000568851469           
       2.926863              0.0078089866            0.000596833706           
       2.929503             0.00760238071            0.000595862211           
       2.932144             0.00666079718            0.000535399187           
       2.934784             0.00721107429            0.000547941725           
       2.937424              0.0063328968            0.000518766205           
       2.940065             0.00695886609            0.000518734427           
       2.942705             0.00752050136            0.000538584719           
       2.945346              0.0072545737            0.000561378198           
       2.947986              0.0057820249            0.000511025266           
       2.950626             0.00772556935            0.000587375056           
       2.953267              0.0063028032            0.000521966681           
       2.955907             0.00585851325            0.000522035683           
       2.958547             0.00716743079            0.000545109602           
       2.961188             0.00704551962            0.000563844236           
       2.963828             0.00725901794            0.000559838166           
       2.966469             0.00773697777             0.00056699172           
       2.969109             0.00616337024            0.000513555876           
       2.971749             0.00641782492            0.000520780534           
       2.974390             0.00644693745             0.00051292159           
       2.977030             0.00627489989            0.000517340523           
       2.979670             0.00980299619             0.00062896735           
       2.982311              0.0087047159            0.000614291079           
       2.984951             0.00744949363            0.000540481678           
       2.987592             0.00723486935            0.000543307298           
       2.990232             0.00759906387            0.000579080686           
       2.992872             0.00758480501            0.000544949289           
       2.995513             0.00875907844            0.000572925408           
       2.998153              0.0118051731            0.000676302722           
       3.000794              0.0123330364            0.000669554066           
       3.003434              0.0129340625            0.000686709981           
       3.006074               0.055099463             0.00139749243           
       3.008715               0.133858873             0.00210265382           
       3.011355               0.163331611             0.00223976192           
       3.013995              0.0766718718             0.00153873832           
       3.016636              0.0574178571             0.00130394121           
       3.019276               0.127287368             0.00190841007           
       3.021917               0.514065264             0.00368773213           
       3.024557                1.78228782             0.00675101597           
       3.027197                1.09742193              0.0051647369           
       3.029838               0.502914807             0.00354589274           
       3.032478               0.262854312             0.00256612197           
       3.035118              0.0723529192             0.00136438066           
       3.037759               0.104622993             0.00163855265           
       3.040399               0.157413166             0.00207322822           
       3.043040                0.58219153             0.00403599363           
       3.045680               0.367835715             0.00301834331           
       3.048320              0.0768806161             0.00140992912           
       3.050961               0.110903267             0.00172324393           
       3.053601              0.0880236408             0.00147861535           
       3.056242              0.0582654123             0.00127903084           
       3.058882              0.0528070781             0.00130617448           
       3.061522              0.0400263073             0.00111570574           
       3.064163              0.0510013735             0.00124355303           
       3.066803               0.112615156             0.00194541091           
       3.069443               0.107879091             0.00199213883           
       3.072084              0.0472600421             0.00128391994           
       3.074724              0.0379071671             0.00128415053           
       3.077365              0.0849255556             0.00198970207           
       3.080005              0.0150133252            0.000841320125           
       3.082645              0.0123444952            0.000801429301           
       3.085286              0.0140915657            0.000863020599           
       3.087926             0.00850833558            0.000665432029           
       3.090566              0.0110659902            0.000743561802           
       3.093207              0.0108200502            0.000765106415           
       3.095847             0.00878502059            0.000660790465           
       3.098488             0.00849940455            0.000720694393           
       3.101128              0.0097835423            0.000778196004           
       3.103768              0.0113237357            0.000821461736           
       3.106409              0.0098395811            0.000814952299           
       3.109049             0.00795305793            0.000703111241           
       3.111690             0.00742167936             0.00066755623           
       3.114330             0.00799795927            0.000707731178           
       3.116970             0.00795278522            0.000711147625           
       3.119611              0.0142014068             0.00101154353           
       3.122251              0.0259145379             0.00142934231           
       3.124891              0.0365561739              0.0017134502           
       3.127532              0.0222941553             0.00130904545           
       3.130172              0.0143483537             0.00106831789           
       3.132813              0.0080746107            0.000788970501           
       3.135453             0.00748269413             0.00075324591           
       3.138093             0.00694255092            0.000786159054           
       3.140734             0.00734696393            0.000746117892           
       3.143374             0.00635944614            0.000734110578           
       3.146014             0.00822499378            0.000898777217           
       3.148655             0.00549351447            0.000682813437           
       3.151295             0.00615098085            0.000769956645           
       3.153936             0.00583491526            0.000724394141           
       3.156576             0.00550642217            0.000694136004           
       3.159216             0.00775274787            0.000827760099           
       3.161857             0.00619575542            0.000736974907           
       3.164497             0.00811339132            0.000886115662           
       3.167138             0.00711133119            0.000857171199           
       3.169778             0.00628723743            0.000792684274           
       3.172418             0.00655201592            0.000800972647           
       3.175059             0.00589956827            0.000673813654           
       3.177699             0.00705259012            0.000780144705           
       3.180339             0.00574258405            0.000754249912           
       3.182980             0.00656773098            0.000833963654           
       3.185620              0.0060385109            0.000814383763           
       3.188261             0.00489321739            0.000746179376           
       3.190901             0.00721104872            0.000833097826           
       3.193541             0.00562654077            0.000773251142           
       3.196182             0.00530077865             0.00078216283           
       3.198822             0.00679743283            0.000886023705           
       3.201463             0.00756181196            0.000918413646           
       3.204103             0.00671611913            0.000860268887           
       3.206743             0.00607413602            0.000818043715           
       3.209384             0.00499942989            0.000801834887           
       3.212024             0.00636954399            0.000843802704           
       3.214664             0.00634871753            0.000957953938           
       3.217305             0.00508618828            0.000815044872           
       3.219945             0.00593747993            0.000906380761           
       3.222586             0.00665772082            0.000914175967           
       3.225226             0.00525174201            0.000900710099           
       3.227866              0.0050316048            0.000805801411           
       3.230507             0.00525001525            0.000853237838           
       3.233147             0.00437228203            0.000784940416           
       3.235787             0.00616412184            0.000953790602           
       3.238428             0.00530608083            0.000954941437           
       3.241068             0.00599532488            0.000949141274           
       3.243709             0.00658078682             0.00102737863           
       3.246349             0.00571183462            0.000872530309           
       3.248989             0.00592672699             0.00104946551           
       3.251630             0.00653927488             0.00106154765           
       3.254270              0.0063107165            0.000932008351           
       3.256911              0.0045891779            0.000867195148           
       3.259551             0.00589591721             0.00105821788           
       3.262191             0.00513279067             0.00100854044           
       3.264832             0.00581009409             0.00112114594           
       3.267472              0.0060499811             0.00107324826           
       3.270112             0.00601054477              0.0011822041           
       3.272753             0.00606505367             0.00108699526           
       3.275393             0.00648880634             0.00114720547           
       3.278034             0.00650213285             0.00114902946           
       3.280674             0.00526203575              0.0011216709           
       3.283314             0.00612243912             0.00108208258           
       3.285955             0.00425984725              0.0009312847           
       3.288595             0.00554636564             0.00118223644           
       3.291235             0.00479420522             0.00112992054           
       3.293876             0.00602307533             0.00128468041           
       3.296516             0.00784950244             0.00140795378           
       3.299157             0.00442631195              0.0010439911           
       3.301797             0.00702020465             0.00149974123           
       3.304437              0.0040868963            0.000991395934           
       3.307078             0.00755436106             0.00148476589           
       3.309718             0.00684117427             0.00145841035           
       3.312359             0.00496565391             0.00124281301           
       3.314999             0.00724511638             0.00147806003           
       3.317639             0.00470471245             0.00113910854           
       3.320280             0.00435194925             0.00116481793           
       3.322920             0.00450422052             0.00120496581           
       3.325560             0.00354141737             0.00106917404           
       3.328201             0.00546245436             0.00119590203           
       3.330841             0.00660999283             0.00160108753           
       3.333482              0.0058813923             0.00142755206           
       3.336122             0.00689332897             0.00154620108           
       3.338762             0.00691917466             0.00178944697           
       3.341403             0.00378130433             0.00126404163           
       3.344043              0.0046472672             0.00134538917           
       3.346683              0.0040381741             0.00128036174           
       3.349324             0.00462588337             0.00154074558           
       3.351964             0.00741160384              0.0020623138           
       3.354605             0.00604814744             0.00213061041           
       3.357245             0.00303176486             0.00136081277           
       3.359885             0.00668543052             0.00161733834           
       3.362526             0.00602705338             0.00192037897           
       3.365166             0.00927636153             0.00224710874           
       3.367807             0.00175787219             0.00125190077           
       3.370447             0.00244099165             0.00122372274           
       3.373087             0.00629751088             0.00210189783           
       3.375728             0.00712818936             0.00252380608           
       3.378368             0.00197204329             0.00197012821           
       3.381008             0.00324694094             0.00188474065           
       3.383649             0.00492466155             0.00186203164           
       3.386289             0.00492711887             0.00220432651           
       3.388930              0.0073458515             0.00425739349           
       3.391570             0.00239341277             0.00171907177           
       3.394210             0.00596329883             0.00343398554           
       3.396851             0.00487788547             0.00347411965           
       3.399491              0.0145849663             0.00600902178           
       3.402131           -2.64747287e-05                         0           
       3.404772             0.00967441665             0.00979444256           
       3.407412                       nan                       nan           
       3.410053             0.00927841799             0.00960369754           
       3.412693                       nan                       nan           
       3.415333           -2.66034874e-05                         0           
