################################################################################
# EDF_DataBlockID                     0.Image.Psd
# EDF_BinarySize                      4366944
# EDF_HeaderSize                      2560
# ByteOrder                           LowByteFirst
# DataType                            FloatValue
# Dim_1                               1028
# Dim_2                               1062
# Image                               0
# HeaderID                            EH:000000:000000:000000
# Size                                4366944
# Center_1                            607.5200
# Center_2                            651.5500
# Comment                             Xenocs_Cell_Window - 20251028_20perc_iodine_1.23mg
# DDummy                              0.6
# Date                                2025-11-01T11:52:55
# Delta                               0
# Dummy                               -1.5
# ExposureTime                        360
# Gamma                               0
# Intensity1                          8.64063e-10
# PSize_1                             7.5e-05
# PSize_2                             7.5e-05
# Pressure                            0.0325785
# SampleDistance                      0.450002
# SampleEnvKind                       large
# SampleEnvPN                         ElectroChemical cell
# SampleEnvSN                         1141
# Thickness                           0
# Wavelength                          1.541891e-10
# Wavelength                          1.54189e-10
# aux                                 0
# aux_dial                            0.002375
# beamx                               588.434
# beamx_dial                          588.434
# beamz                               657.808
# beamz_dial                          657.808
# det0x                               0
# det0x_dial                          6.36945
# det0xvd                             0
# det0xvd_dial                        0
# det0y                               450.002
# det0y_dial                          481.635
# det0z                               0
# det0z_dial                          1.23302
# det0zvd                             0
# det0zvd_dial                        0
# mag                                 1.818
# mag_dial                            1.818
# om                                  0.2499
# om_dial                             -0.610199
# phi                                 -0.0120535
# phi_dial                            0
# ry                                  0.599993
# ry_dial                             0.599993
# s1bot                               0.8
# s1bot_dial                          -1.66094
# s1hl                                0.8
# s1hl_dial                           -0.608437
# s1hr                                0.8
# s1hr_dial                           0.970938
# s1top                               0.8
# s1top_dial                          -0.461562
# s2bot                               0.45
# s2bot_dial                          1.36109
# s2hl                                0.45
# s2hl_dial                           -0.83375
# s2hr                                0.45
# s2hr_dial                           -0.118594
# s2top                               0.45
# s2top_dial                          1.44734
# w2theta                             32
# w2theta_dial                        32
# waxsch                              19.2605
# waxsch_dial                         -32.7355
# waxsh                               137.085
# waxsh_dial                          -43.5338
# waxsth                              26.0607
# waxsth_dial                         -19.4086
# waxsz                               67.0407
# waxsz_dial                          -23.7954
# wind                                65.9854
# wind_dial                           66.0041
# wpsi                                124
# wpsi_dial                           124
# wstod                               115
# wstod_dial                          115
# x                                   0
# x_dial                              1.00969
# z                                   0
# z_dial                              13.3172
# CountCutoff                         15302352
# DetectorModel                       Dectris EIGER2 Si 1M, S/N E-02-0362
# ThresholdSetting                    4023.88989258
# Saturation                          0
# FlatField                           Corrected
# BackgroundReductionExtra            0.02
# BackgroundCorrectionConstant        0.0026712
# Detector                            0
# Monitor                             0
# Pil_Roi0                            0
# SumForIntensity1                    3.11063e+08
# TransmittedFlux                     864063
# det                                 0
# mon                                 0
# pilai0                              3.11063e+08
# pilai1                              784022
# pilct0                              5.38075e+08
# pilct1                              784022
# pilroi0                             0
# pilroi1                             0
# sec                                 1
# title                               20251028_20perc_iodine_1.23mg_0_00850.edf
# usaxs0                              0
# Operation                           Azimuthal average I(q)
# Error_model                         ErrorModel.poisson
# Geometrical_correction              True
# Transmission_correction             True
# Thickness_correction                False
# Binning mode                        Uniform
# Binning factor                      1.0
# Psi                                 0.0
# Omega                               0.2499
# MaskInvalidPixels                   True
# DetectorEdge                        3
# MaskFiles                           ['20251028_20perc_iodine_1.23mg_0_00012_mask.edf']
################################################################################
    q(A⁻¹)                Intensity(a.u.)            Sigma_I(a.u.)            
       0.000340                372125.827                 119.81564           
       0.001019                359461.871                72.1125192           
       0.001698                349720.762                50.2956005           
       0.002377                330920.258                43.7598688           
       0.003056                307998.873                35.6800087           
       0.003735                253453.761                  28.54484           
       0.004415                204751.867                25.6561969           
       0.005094                152749.138                19.1910389           
       0.005773                100756.194                14.4301795           
       0.006452                58642.7832                10.5480555           
       0.007131                32270.1399                7.58008302           
       0.007810                16222.0628                5.33348992           
       0.008490                8158.99812                3.35281351           
       0.009169                3943.81693                2.30377475           
       0.009848                1211.10894                1.23432298           
       0.010527                469.050004               0.768151786           
       0.011206                117.760081                0.36734153           
       0.011885                54.1342999               0.231406371           
       0.012564                24.9946535               0.161433766           
       0.013244                17.0379844               0.124606271           
       0.013923                12.3365493               0.107740082           
       0.014602                9.42815775               0.087353196           
       0.015281                7.50853321              0.0793545451           
       0.015960                 6.0665719              0.0708177063           
       0.016639                4.88872203              0.0600319533           
       0.017319                4.09468939              0.0540863982           
       0.017998                3.42413304              0.0473177688           
       0.018677                2.94312476               0.045435826           
       0.019356                2.53466059               0.041663246           
       0.020035                2.16205071              0.0361010134           
       0.020714                1.80482553              0.0333331459           
       0.021394                 1.5815659              0.0295237955           
       0.022073                1.39213377              0.0288189655           
       0.022752                1.25391219              0.0261640512           
       0.023431                1.06550909              0.0234113955           
       0.024110                 1.0346633              0.0240522081           
       0.024789               0.874186712              0.0205323061           
       0.025469               0.805787006              0.0203141114           
       0.026148                0.72826345              0.0181454145           
       0.026827               0.658276169              0.0175275641           
       0.027506               0.622992356              0.0172972428           
       0.028185               0.559995574              0.0156391856           
       0.028864               0.499156812              0.0146823863           
       0.029544               0.470515532              0.0138232732           
       0.030223               0.420476719              0.0132549543           
       0.030902               0.402572876              0.0130883754           
       0.031581               0.367154558              0.0118820117           
       0.032260               0.334257351              0.0115303795           
       0.032939               0.317147386              0.0108295119           
       0.033619               0.321412354              0.0110623109           
       0.034298               0.274755132             0.00995342773           
       0.034977               0.254121517              0.0093842744           
       0.035656               0.236739071             0.00929735666           
       0.036335               0.230026752             0.00888851718           
       0.037014               0.192172026             0.00814852013           
       0.037693               0.188516905             0.00776386427           
       0.038373               0.178834693             0.00763606828           
       0.039052               0.170781914             0.00749391435           
       0.039731               0.171712603             0.00733918872           
       0.040410               0.169991998             0.00725336719           
       0.041089               0.150834898             0.00672542267           
       0.041768                 0.1272512             0.00620958651           
       0.042448                0.12357427              0.0060717335           
       0.043127               0.132783142             0.00614525546           
       0.043806               0.137082522             0.00629050769           
       0.044485               0.130924219             0.00602129456           
       0.045164               0.124902579             0.00599710804           
       0.045843               0.104084589             0.00525076899           
       0.046523               0.110401436             0.00542642938           
       0.047202               0.100139293             0.00520419164           
       0.047881               0.110615703             0.00536417016           
       0.048560              0.0990775737             0.00512297684           
       0.049239              0.0957089742             0.00483463739           
       0.049918              0.0896257124             0.00476992956           
       0.050598              0.0908767982             0.00473104412           
       0.051277               0.080034662             0.00442577425           
       0.051956              0.0869200697             0.00458325921           
       0.052635              0.0855988611              0.0044517682           
       0.053314              0.0789052551             0.00439913118           
       0.053993              0.0842152776              0.0044200942           
       0.054673              0.0791255731             0.00418900621           
       0.055352              0.0764256126             0.00417738775           
       0.056031              0.0754400449             0.00406316002           
       0.056710              0.0612312544             0.00375027911           
       0.057389              0.0717651676             0.00391517341           
       0.058068                0.07168159             0.00395322836           
       0.058748              0.0635003315             0.00376721161           
       0.059427              0.0662903976             0.00378391505           
       0.060106              0.0668787922             0.00383664297           
       0.060785               0.062226642             0.00358991325           
       0.061464              0.0648311154             0.00375259292           
       0.062143              0.0627780242              0.0036551846           
       0.062822               0.064218065             0.00365348741           
       0.063502               0.059223147               0.003502258           
       0.064181              0.0494871578             0.00316765747           
       0.064860              0.0496841185             0.00322229751           
       0.065539              0.0542794781             0.00333508603           
       0.066218               0.056641087             0.00333391847           
       0.066897              0.0474979138             0.00307656562           
       0.067577              0.0506049665             0.00320610639           
       0.068256              0.0560817644             0.00345805197           
       0.068935              0.0521931445              0.0032820691           
       0.069614              0.0512262633             0.00328389504           
       0.070293              0.0516990393             0.00332943459           
       0.070972              0.0457141481             0.00310787131           
       0.071652              0.0399327395             0.00291003442           
       0.072331              0.0464514271              0.0030826424           
       0.073010              0.0434536724             0.00304963869           
       0.073689              0.0499885851             0.00325295067           
       0.074368              0.0437546578             0.00303783122           
       0.075047              0.0447972856             0.00304077361           
       0.075727              0.0432562064             0.00296955755           
       0.076406              0.0426631059             0.00300797094           
       0.077085              0.0366204748             0.00273474107           
       0.077764              0.0430093563             0.00295332503           
       0.078443              0.0394275071             0.00284518184           
       0.079122              0.0417072476             0.00289816993           
       0.079802              0.0382312686             0.00280420176           
       0.080481              0.0363184051             0.00264095486           
       0.081160              0.0426291073             0.00291992876           
       0.081839              0.0358761888             0.00263580422           
       0.082518              0.0378389856             0.00270922671           
       0.083197              0.0388995743              0.0027042513           
       0.083876              0.0436337851             0.00281649486           
       0.084556              0.0330172936             0.00251814983           
       0.085235              0.0383944683             0.00266300694           
       0.085914              0.0357883885             0.00259601693           
       0.086593              0.0342424538             0.00252298523           
       0.087272              0.0348896065             0.00251071627           
       0.087951              0.0327347183             0.00248688103           
       0.088631              0.0406843686              0.0026780237           
       0.089310               0.034359521             0.00251326903           
       0.089989              0.0363972089             0.00255647932           
       0.090668                0.03161129              0.0024087788           
       0.091347              0.0339886297              0.0025116979           
       0.092026              0.0329066865             0.00236225654           
       0.092706               0.033889768             0.00248429737           
       0.093385              0.0301561576             0.00230747172           
       0.094064              0.0264085933             0.00218447157           
       0.094743              0.0248587694             0.00208710533           
       0.095422              0.0289610322             0.00222762207           
       0.096101              0.0271159986             0.00219988945           
       0.096781               0.031904014             0.00235205452           
       0.097460              0.0301017147             0.00222233128           
       0.098139              0.0331650967             0.00231472391           
       0.098818              0.0326641986             0.00226888818           
       0.099497              0.0309631091             0.00221355404           
       0.100176              0.0252524374             0.00194656564           
       0.100856              0.0292889656              0.0020950338           
       0.101535              0.0306019424             0.00213734735           
       0.102214              0.0312435008             0.00215964886           
       0.102893              0.0281654688             0.00202714644           
       0.103572              0.0279593639             0.00198987884           
       0.104251              0.0261530216             0.00193163628           
       0.104931              0.0293859389             0.00202890755           
       0.105610              0.0229150832             0.00179929268           
       0.106289               0.026665558             0.00190865862           
       0.106968              0.0269719458             0.00192528949           
       0.107647              0.0245180284             0.00183672125           
       0.108326              0.0275899349             0.00192232436           
       0.109005              0.0282192419              0.0019318923           
       0.109685              0.0252229853             0.00180596564           
       0.110364              0.0239993096             0.00178162175           
       0.111043              0.0260136819             0.00184753073           
       0.111722              0.0245940045             0.00177445259           
       0.112401              0.0270255888             0.00186527721           
       0.113080              0.0231387497              0.0017061618           
       0.113760              0.0213649133             0.00166684347           
       0.114439              0.0250388201             0.00177872328           
       0.115118              0.0231861542             0.00169874707           
       0.115797              0.0229638059             0.00170624393           
       0.116476              0.0247324865             0.00174423026           
       0.117155              0.0232974547             0.00170652583           
       0.117835              0.0236548524             0.00168538106           
       0.118514              0.0236713622             0.00170734632           
       0.119193              0.0252136144             0.00176210053           
       0.119872              0.0223132843             0.00163692655           
       0.120551              0.0223906582             0.00162883961           
       0.121230              0.0224244487             0.00161366433           
       0.121910              0.0241582777             0.00169107348           
       0.122589              0.0219546903             0.00161376556           
       0.123268              0.0236871411             0.00164375393           
       0.123947              0.0213787324             0.00157170543           
       0.124626              0.0235659337             0.00162997043           
       0.125305              0.0237893871             0.00164571651           
       0.125985              0.0206365428             0.00152089359           
       0.126664              0.0208942567             0.00151578349           
       0.127343              0.0235301802             0.00162720181           
       0.128022               0.022335543             0.00157319723           
       0.128701              0.0204824473             0.00149867547           
       0.129380              0.0223161587             0.00154473048           
       0.130059              0.0216619447             0.00152545405           
       0.130739              0.0212371851             0.00152104574           
       0.131418              0.0210967802             0.00151176494           
       0.132097              0.0213089619             0.00149986289           
       0.132776              0.0215189243             0.00150042934           
       0.133455               0.021352643             0.00150623297           
       0.134134              0.0208845678             0.00148488846           
       0.134814              0.0215641688             0.00149330798           
       0.135493              0.0179163306             0.00136666345           
       0.136172              0.0195755727             0.00141776196           
       0.136851              0.0226555213             0.00153409271           
       0.137530              0.0204463788             0.00142275498           
       0.138209              0.0202312354             0.00143186561           
       0.138889              0.0216427179             0.00148750052           
       0.139568              0.0209198001             0.00146181446           
       0.140247              0.0191187579             0.00139564131           
       0.140926              0.0196625247              0.0013748803           
       0.141605              0.0203887589             0.00143560971           
       0.142284              0.0209748304             0.00143196819           
       0.142964              0.0210581858             0.00144029858           
       0.143643              0.0189178549             0.00136341802           
       0.144322              0.0188701342             0.00133320338           
       0.145001              0.0186806903             0.00135372207           
       0.145680              0.0232374649             0.00147410761           
       0.146359              0.0195427142             0.00135679112           
       0.147039              0.0198915037             0.00138011481           
       0.147718                0.01845642             0.00130746165           
       0.148397              0.0192385494             0.00135562055           
       0.149076              0.0202105371             0.00134634069           
       0.149755              0.0189009815             0.00132209527           
       0.150434              0.0199932633             0.00136031547           
       0.151114              0.0173323604             0.00125955709           
       0.151793                0.01767368              0.0012719104           
       0.152472               0.020039257             0.00133043554           
       0.153151              0.0165213691             0.00121970437           
       0.153830              0.0201465586             0.00133707642           
       0.154509              0.0198145567             0.00132048105           
       0.155188              0.0201520658              0.0013311875           
       0.155868               0.019186658             0.00128966698           
       0.156547              0.0201244352             0.00132929248           
       0.157226              0.0215621686             0.00134235007           
       0.157905              0.0175818036             0.00122231724           
       0.158584              0.0171417488             0.00120473097           
       0.159263              0.0182735773             0.00124844478           
       0.159943              0.0186320046             0.00126156934           
       0.160622               0.017427535             0.00119656452           
       0.161301              0.0171409256             0.00120255674           
       0.161980              0.0195968416             0.00126396401           
       0.162659              0.0178427868             0.00121943927           
       0.163338              0.0187880159             0.00124112359           
       0.164018              0.0194668475             0.00125671545           
       0.164697              0.0188859522             0.00125371718           
       0.165376              0.0173454153             0.00117524522           
       0.166055              0.0185658431             0.00122390655           
       0.166734                0.01750299             0.00118303402           
       0.167413              0.0169686868             0.00116565275           
       0.168093              0.0185243425             0.00122943423           
       0.168772               0.020763966             0.00126356832           
       0.169451              0.0164956291             0.00114695318           
       0.170130              0.0187469728             0.00120666734           
       0.170809              0.0197139215             0.00125216244           
       0.171488              0.0176914215             0.00117538001           
       0.172168              0.0167080604             0.00113127355           
       0.172847              0.0176072813             0.00117657197           
       0.173526              0.0167102372             0.00112434287           
       0.174205              0.0179120086             0.00116943252           
       0.174884              0.0176652533              0.0011552975           
       0.175563               0.016504126             0.00112145149           
       0.176243              0.0171784932             0.00115558379           
       0.176922              0.0180425693             0.00115342756           
       0.177601              0.0142972702             0.00103804089           
       0.178280              0.0158891542              0.0010820894           
       0.178959              0.0180152957             0.00116148243           
       0.179638              0.0152959227             0.00106715462           
       0.180317              0.0180969609             0.00115230364           
       0.180997              0.0165141591             0.00110673393           
       0.181676              0.0169544302             0.00110941585           
       0.182355              0.0166464852             0.00110589674           
       0.183034              0.0173071177             0.00110953001           
       0.183713               0.016362468             0.00109196364           
       0.184392              0.0160703251             0.00108184417           
       0.185072              0.0172522039             0.00110814543           
       0.185751              0.0190781824             0.00116855587           
       0.186430              0.0166948522              0.0010854748           
       0.187109              0.0180707528             0.00114189581           
       0.187788              0.0166266504             0.00109261892           
       0.188467               0.015740121             0.00105051008           
       0.189147               0.016344333             0.00108132374           
       0.189826              0.0149898126             0.00101723566           
       0.190505               0.016586481              0.0010876558           
       0.191184              0.0181211604             0.00112047619           
       0.191863              0.0169549985             0.00108610664           
       0.192542              0.0169262686             0.00109541962           
       0.193222              0.0158653107             0.00103676629           
       0.193901              0.0160748279             0.00105757744           
       0.194580              0.0168962003             0.00106529383           
       0.195259              0.0173157178             0.00109082356           
       0.195938              0.0179104781             0.00111204761           
       0.196617              0.0151992255             0.00101012626           
       0.197297              0.0174847343             0.00108783774           
       0.197976              0.0150371862            0.000993333751           
       0.198655              0.0174591107             0.00108203413           
       0.199334              0.0177310126             0.00108081104           
       0.200013              0.0174567048             0.00107182348           
       0.200692              0.0155494825             0.00101766432           
       0.201371              0.0153155343            0.000998605161           
       0.202051              0.0165833822             0.00104234799           
       0.202730              0.0165650813             0.00103136758           
       0.203409              0.0150397861            0.000989334426           
       0.204088              0.0157854614             0.00101244234           
       0.204767              0.0169101551             0.00104238185           
       0.205446              0.0171740338             0.00105253617           
       0.206126              0.0143112691            0.000947761604           
       0.206805              0.0156779866             0.00101017072           
       0.207484              0.0154963455            0.000986246987           
       0.208163              0.0161957808             0.00101431744           
       0.208842              0.0145294155            0.000958117036           
       0.209521              0.0146022602            0.000952533339           
       0.210201              0.0162027666             0.00101457528           
       0.210880              0.0161772085            0.000993881434           
       0.211559              0.0163986798             0.00101545643           
       0.212238              0.0166839161              0.0010190378           
       0.212917              0.0156917481            0.000984601217           
       0.213596              0.0144217652            0.000949498492           
       0.214276              0.0154983918            0.000963795567           
       0.214955              0.0171808315             0.00103610054           
       0.215634               0.014342359            0.000939866859           
       0.216313              0.0150745508            0.000961535492           
       0.216992              0.0167336155             0.00101281295           
       0.217671              0.0151521304            0.000957236998           
       0.218351              0.0141736952            0.000934869518           
       0.219030              0.0149787068            0.000945881464           
       0.219709              0.0148667021            0.000948216446           
       0.220388              0.0157320536            0.000974169631           
       0.221067              0.0148465834            0.000947107587           
       0.221746              0.0147118585            0.000941834801           
       0.222426              0.0155908076            0.000955071307           
       0.223105              0.0145771364            0.000936082808           
       0.223784              0.0166443885            0.000990336376           
       0.224463              0.0157863204             0.00097215192           
       0.225142              0.0140544283            0.000902762909           
       0.225821              0.0149415224            0.000934566873           
       0.226500              0.0157262442            0.000964890703           
       0.227180              0.0172462765            0.000994879206           
       0.227859              0.0146300896            0.000920428653           
       0.228538              0.0159054945            0.000950073544           
       0.229217              0.0166379811             0.00097939544           
       0.229896              0.0157851901            0.000953506245           
       0.230575              0.0138590478            0.000879197835           
       0.231255              0.0145132687            0.000913180197           
       0.231934              0.0143100987            0.000900570912           
       0.232613              0.0157838251            0.000949296922           
       0.233292              0.0150912691            0.000919268407           
       0.233971              0.0147708002              0.0009090311           
       0.234650              0.0153097478            0.000936352311           
       0.235330              0.0146384756            0.000907599273           
       0.236009              0.0160961427             0.00094966401           
       0.236688              0.0151024166            0.000916590373           
       0.237367              0.0135823891            0.000870503399           
       0.238046              0.0146720644            0.000911120443           
       0.238725              0.0147634869            0.000899854328           
       0.239405              0.0155367963            0.000928844912           
       0.240084              0.0159590226            0.000935387056           
       0.240763              0.0140859958            0.000887198304           
       0.241442              0.0147107632            0.000893884892           
       0.242121              0.0146223247            0.000892876122           
       0.242800              0.0138703854            0.000873732416           
       0.243480              0.0143356641            0.000884106993           
       0.244159              0.0151717758            0.000909964009           
       0.244838              0.0149223333            0.000887603006           
       0.245517              0.0133727017              0.0008523395           
       0.246196              0.0163637427            0.000943308435           
       0.246875              0.0147040287            0.000881726713           
       0.247554              0.0152647746            0.000907512424           
       0.248234              0.0124512637            0.000807194882           
       0.248913              0.0140208302            0.000866169644           
       0.249592              0.0152679267            0.000895281391           
       0.250271              0.0138283041            0.000849554189           
       0.250950              0.0140031012            0.000860142903           
       0.251629              0.0138058824            0.000846805294           
       0.252309              0.0128824285            0.000819654611           
       0.252988              0.0140486179            0.000841206698           
       0.253667              0.0131901769            0.000824624147           
       0.254346              0.0136451433            0.000838552789           
       0.255025              0.0128110806            0.000810740469           
       0.255704              0.0150378213            0.000874354916           
       0.256384              0.0138627962             0.00083659575           
       0.257063              0.0144334808            0.000858508995           
       0.257742              0.0141017593            0.000842706487           
       0.258421              0.0149284187            0.000865385929           
       0.259100              0.0138661017            0.000835481428           
       0.259779              0.0115373363            0.000761454713           
       0.260459              0.0131045375            0.000813119124           
       0.261138              0.0122390497            0.000770452763           
       0.261817              0.0135479813            0.000826968098           
       0.262496              0.0130546379            0.000803810498           
       0.263175                0.01388607            0.000830792835           
       0.263854              0.0130634727            0.000802065782           
       0.264534              0.0130772391            0.000795634405           
       0.265213              0.0137131925            0.000827590346           
       0.265892              0.0124783833            0.000779336939           
       0.266571                0.01266425            0.000783334205           
       0.267250               0.013004052            0.000795110865           
       0.267929              0.0126344239            0.000782925638           
       0.268609              0.0119193896            0.000764612171           
       0.269288               0.013572727            0.000802366084           
       0.269967              0.0120976076            0.000765672297           
       0.270646              0.0125039231            0.000775059236           
       0.271325              0.0142880398            0.000829894366           
       0.272004              0.0112042117            0.000727572405           
       0.272683              0.0138025869            0.000808541093           
       0.273363              0.0131141445            0.000793145596           
       0.274042              0.0120591051            0.000756084909           
       0.274721              0.0117809709            0.000746871711           
       0.275400              0.0114778158            0.000732318587           
       0.276079              0.0123856543            0.000765048479           
       0.276758              0.0127073016            0.000784697878           
       0.277438              0.0132172281            0.000791304074           
       0.278117              0.0130576531             0.00080081444           
       0.278796              0.0125962402            0.000778554542           
       0.279475              0.0121437345            0.000777070468           
       0.280154              0.0121904493            0.000767364581           
       0.280833              0.0112001021            0.000740007221           
       0.281513              0.0115321772            0.000762678012           
       0.282192               0.012476657            0.000779761074           
       0.282871              0.0115131918            0.000754283327           
       0.283550              0.0118746029            0.000770135847           
       0.284229              0.0109636349            0.000750874462           
       0.284908              0.0105292969            0.000743612295           
       0.285588              0.0131649472            0.000821752063           
       0.286267              0.0110929312             0.00076639583           
       0.286946              0.0115413721            0.000776649786           
       0.287625              0.0107370804            0.000761854376           
       0.288304               0.009964307            0.000724102948           
       0.288983              0.0112007453            0.000777437427           
       0.289663              0.0117016591            0.000799282222           
       0.290342              0.0106251723            0.000757576396           
       0.291021              0.0103813339            0.000752867411           
       0.291700               0.010301574              0.0007401724           
       0.292379              0.0103104851            0.000757446817           
       0.293058              0.0105439615            0.000763081502           
       0.293738             0.00950000118            0.000718238198           
       0.294417              0.0108525451            0.000776589032           
       0.295096              0.0100108046            0.000737664998           
       0.295775              0.0104285672            0.000764397738           
       0.296454              0.0104881518            0.000756663108           
       0.297133              0.0106868203             0.00076740943           
       0.297812              0.0105315599            0.000765635369           
       0.298492             0.00951145463            0.000729016562           
       0.299171              0.0098099632            0.000738967252           
       0.299850               0.010057874            0.000743136865           
       0.300529             0.00995698047             0.00074772911           
       0.301208              0.0104674032            0.000768520496           
       0.301887              0.0104749261            0.000767883033           
       0.302567             0.00859152407            0.000691949068           
       0.303246             0.00966708895             0.00073877653           
       0.303925              0.0101056237            0.000765045977           
       0.304604             0.00843219644            0.000683747802           
       0.305283              0.0104666128            0.000773076492           
       0.305962             0.00931553058            0.000724922519           
       0.306642             0.00952706773            0.000743063751           
       0.307321             0.00848371274            0.000698956938           
       0.308000             0.00967764587            0.000737672773           
       0.308679             0.00924244432            0.000736506923           
       0.309358             0.00887927388            0.000712126741           
       0.310037             0.00869118718            0.000706113764           
       0.310717             0.00809124127             0.00068065127           
       0.311396             0.00906526683            0.000725287704           
       0.312075             0.00801044641            0.000690432313           
       0.312754             0.00751329524            0.000655287067           
       0.313433              0.0103175139            0.000774577116           
       0.314112             0.00792934756            0.000678884912           
       0.314792             0.00871052562            0.000716565178           
       0.315471             0.00839406446            0.000694729008           
       0.316150             0.00933638772            0.000739468347           
       0.316829             0.00899362358            0.000730560129           
       0.317508             0.00849598773            0.000702093081           
       0.318187             0.00888458177            0.000727441114           
       0.318866             0.00878226491            0.000713497464           
       0.319546             0.00862698528            0.000717761793           
       0.320225             0.00988692382            0.000768404488           
       0.320904             0.00934118294            0.000735347615           
       0.321583             0.00771868495            0.000683170407           
       0.322262             0.00871181299            0.000714791085           
       0.322941             0.00774510444            0.000682601413           
       0.323621              0.0079406439            0.000686946456           
       0.324300             0.00872522334            0.000720648621           
       0.324979             0.00767815004            0.000677248459           
       0.325658             0.00819048865            0.000700747897           
       0.326337             0.00682514653            0.000640515122           
       0.327016               0.008055498            0.000691438614           
       0.327696             0.00860157716            0.000722436925           
       0.328375             0.00832739742            0.000704831409           
       0.329054             0.00860389379            0.000720322942           
       0.329733             0.00788243132            0.000691979078           
       0.330412             0.00721895431            0.000656790617           
       0.331091              0.0082215792            0.000713632607           
       0.331771             0.00754544666              0.0006657449           
       0.332450             0.00804592027            0.000700816539           
       0.333129             0.00641080659            0.000623951339           
       0.333808             0.00727448493              0.0006655323           
       0.334487             0.00748559135            0.000678321111           
       0.335166             0.00801802297            0.000691755989           
       0.335846             0.00684459155            0.000650367315           
       0.336525             0.00700044603            0.000651236411           
       0.337204             0.00758444615            0.000679633577           
       0.337883             0.00761746648            0.000682014271           
       0.338562             0.00665843147            0.000641176407           
       0.339241             0.00561942649            0.000590133952           
       0.339921             0.00597392521            0.000598259575           
       0.340600             0.00746203707            0.000681331694           
       0.341279              0.0072376761            0.000663825333           
       0.341958             0.00649739645            0.000637834873           
       0.342637             0.00680249982            0.000643418802           
       0.343316             0.00609582076            0.000610845166           
       0.343995             0.00644362103            0.000638312949           
       0.344675             0.00600841817            0.000605052611           
       0.345354             0.00628991984             0.00062314759           
       0.346033             0.00631475318            0.000622748897           
       0.346712             0.00596134017             0.00060893239           
       0.347391             0.00643174904            0.000636417976           
       0.348070             0.00684082041            0.000647023648           
       0.348750             0.00571307901            0.000599834722           
       0.349429             0.00501398835            0.000554683161           
       0.350108             0.00614692908            0.000621551749           
       0.350787             0.00569799461            0.000588257741           
       0.351466             0.00610720288            0.000620233526           
       0.352145             0.00523770813            0.000574863787           
       0.352825              0.0069284574             0.00065817436           
       0.353504             0.00624003584            0.000624467308           
       0.354183             0.00639941765             0.00062510618           
       0.354862             0.00518214176            0.000575591786           
       0.355541             0.00608876214            0.000615742524           
       0.356220             0.00599886357             0.00061233446           
       0.356900             0.00598227244            0.000617295267           
       0.357579             0.00620200412            0.000620822839           
       0.358258             0.00690362582            0.000664062669           
       0.358937             0.00582495689            0.000598513811           
       0.359616             0.00544493684            0.000586741634           
       0.360295             0.00595103443            0.000613915164           
       0.360975             0.00532499177            0.000578242812           
       0.361654              0.0055757229            0.000594750226           
       0.362333             0.00614635812            0.000621268074           
       0.363012             0.00560920118            0.000601136006           
       0.363691             0.00506481822            0.000559951327           
       0.364370             0.00512713961            0.000570374939           
       0.365050             0.00582597555            0.000604751603           
       0.365729             0.00447668948            0.000535171004           
       0.366408             0.00449509014            0.000537457148           
       0.367087             0.00583719352            0.000602635443           
       0.367766             0.00428152991            0.000526875543           
       0.368445             0.00624715693            0.000625129181           
       0.369124              0.0047064321              0.0005468558           
       0.369804             0.00608162984              0.0006206424           
       0.370483             0.00549270373            0.000592407577           
       0.371162             0.00498522083            0.000567649623           
       0.371841             0.00561740917            0.000592062064           
       0.372520             0.00305381726            0.000445286879           
       0.373199              0.0056943266            0.000600785776           
       0.373879             0.00526965793            0.000584640613           
       0.374558              0.0049109755            0.000556157228           
       0.375237             0.00486459341            0.000554432041           
       0.375916             0.00498977887            0.000572277856           
       0.376595             0.00472752111            0.000546148698           
       0.377274             0.00476202504            0.000556912139           
       0.377954             0.00547944004            0.000588006928           
       0.378633             0.00466719797            0.000549536278           
       0.379312             0.00491684863            0.000563899908           
       0.379991             0.00397868438            0.000504631885           
       0.380670             0.00412381353            0.000522833547           
       0.381349              0.0041873637            0.000519282077           
       0.382029             0.00438791708            0.000539188626           
       0.382708             0.00494458264            0.000559870269           
       0.383387             0.00478142833            0.000563032744           
       0.384066             0.00462609857            0.000548730427           
       0.384745             0.00355755178            0.000483093412           
       0.385424                0.00449042            0.000544592341           
       0.386104             0.00452940782            0.000540907065           
       0.386783             0.00447450874             0.00054924765           
       0.387462             0.00301206621            0.000439427497           
       0.388141              0.0039197743            0.000509292298           
       0.388820             0.00522005613            0.000583476518           
       0.389499             0.00481851285            0.000563741905           
       0.390178             0.00454567032            0.000549729186           
       0.390858             0.00425099809            0.000527310977           
       0.391537             0.00402645791            0.000518436011           
       0.392216             0.00423440322            0.000524990874           
       0.392895             0.00420123663            0.000524692492           
       0.393574              0.0033993945            0.000470802991           
       0.394253             0.00468099065            0.000554953645           
       0.394933             0.00404595323            0.000521834627           
       0.395612             0.00398290217             0.00050271321           
       0.396291             0.00358608667             0.00048672509           
       0.396970              0.0042237269             0.00052354775           
       0.397649             0.00432624424            0.000531494745           
       0.398328             0.00292490805            0.000435097317           
       0.399008             0.00386428992            0.000499022671           
       0.399687              0.0033818027             0.00046864635           
       0.400366             0.00387168673            0.000499524666           
       0.401045             0.00431078665            0.000526093816           
       0.401724              0.0049054921            0.000562147832           
       0.402403             0.00413264826            0.000519990334           
       0.403083             0.00552827526            0.000592745032           
       0.403762             0.00435940328            0.000528960119           
       0.404441             0.00467602942            0.000551321954           
       0.405120             0.00368586539            0.000487876503           
       0.405799             0.00397411815            0.000504393795           
       0.406478             0.00396064458            0.000503550685           
       0.407158             0.00393511262            0.000500983016           
       0.407837             0.00382574774            0.000498332273           
       0.408516             0.00335532991            0.000462630032           
       0.409195             0.00319108285            0.000456282831           
       0.409874             0.00395204689            0.000514845499           
       0.410553             0.00404862679            0.000526702855           
       0.411233              0.0032003307            0.000465857457           
       0.411912             0.00343732047            0.000489639025           
       0.412591              0.0036241936            0.000506100215           
       0.413270             0.00380413714            0.000516048773           
       0.413949             0.00296390252            0.000460481612           
       0.414628             0.00323603495             0.00048029325           
       0.415307             0.00339077737            0.000497111413           
       0.415987             0.00405985443             0.00053946798           
       0.416666             0.00455407809            0.000567923481           
       0.417345             0.00246560266             0.00042485784           
       0.418024             0.00305703424            0.000473089498           
       0.418703             0.00317866757            0.000481523103           
       0.419382             0.00328786309             0.00048732422           
       0.420062             0.00309045427            0.000473791637           
       0.420741             0.00362708487             0.00051601053           
       0.421420             0.00285173587            0.000459280811           
       0.422099              0.0034657071            0.000506326745           
       0.422778             0.00305142417            0.000477674134           
       0.423457             0.00271486794            0.000453320014           
       0.424137              0.0034126611            0.000499966909           
       0.424816             0.00319377229            0.000493775513           
       0.425495             0.00288434208            0.000468802495           
       0.426174             0.00310329711            0.000486441088           
       0.426853             0.00374284388            0.000530974137           
       0.427532             0.00236158945            0.000425334989           
       0.428212             0.00316765228            0.000495855468           
       0.428891             0.00216110172            0.000408634502           
       0.429570             0.00184310293            0.000377632241           
       0.430249             0.00288092228            0.000469677042           
       0.430928             0.00239252359            0.000437377266           
       0.431607              0.0022909898            0.000420641972           
       0.432287             0.00226397403             0.00042121703           
       0.432966             0.00286648331            0.000478132507           
       0.433645             0.00271552045            0.000465857822           
       0.434324             0.00267054391            0.000459198963           
       0.435003             0.00173085462            0.000370315984           
       0.435682             0.00322366901            0.000509524147           
       0.436361              0.0023299096            0.000432590975           
       0.437041             0.00256316184            0.000453122853           
       0.437720              0.0022713813            0.000428610407           
       0.438399             0.00277566395            0.000476279089           
       0.439078             0.00183868545            0.000398883763           
       0.439757             0.00240333028            0.000453226861           
       0.440436             0.00208414254            0.000431570226           
       0.441116              0.0033469763            0.000555850782           
       0.441795             0.00337465744            0.000558817078           
       0.442474             0.00330466871            0.000554533903           
       0.443153             0.00221712176            0.000464808921           
       0.443832             0.00212636618            0.000455963556           
       0.444511             0.00142980223            0.000372209811           
       0.445191             0.00272311559            0.000526162484           
       0.445870              0.0017070993            0.000416608468           
       0.446549             0.00227486727              0.0004859957           
       0.447228             0.00274582405            0.000530920827           
       0.447907             0.00136705044            0.000379110585           
       0.448586             0.00254819106            0.000530048353           
       0.449266             0.00217174793            0.000484831666           
       0.449945             0.00214889443            0.000480306842           
       0.450624             0.00228015049            0.000502615133           
       0.451303             0.00263931194            0.000547762935           
       0.451982             0.00215124411            0.000491472281           
       0.452661             0.00188808337            0.000469009095           
       0.453341             0.00179670909            0.000459122799           
       0.454020             0.00332874364            0.000625880568           
       0.454699             0.00184887495            0.000470710162           
       0.455378             0.00242180243            0.000539016626           
       0.456057             0.00266378901            0.000575358531           
       0.456736             0.00201348219             0.00049866186           
       0.457416             0.00238186385            0.000542379234           
       0.458095             0.00247246402            0.000560595561           
       0.458774             0.00176937426            0.000480503378           
       0.459453             0.00166575648            0.000468572937           
       0.460132             0.00217684891            0.000524087473           
       0.460811             0.00199132655            0.000519959205           
       0.461490             0.00220926396            0.000542103539           
       0.462170              0.0010514945            0.000379827969           
       0.462849             0.00189857266            0.000513694303           
       0.463528             0.00147594944            0.000451875302           
       0.464207             0.00155373648            0.000472305049           
       0.464886             0.00109571484            0.000393538973           
       0.465565             0.00156436243            0.000475392614           
       0.466245             0.00171938903            0.000499938283           
       0.466924             0.00180986745            0.000525039832           
       0.467603             0.00142492562            0.000455988739           
       0.468282             0.00196971062            0.000548829566           
       0.468961             0.00184590084            0.000534791067           
       0.469640            0.000935039965            0.000382141447           
       0.470320             0.00217955133            0.000583838428           
       0.470999             0.00141417993            0.000474721063           
       0.471678             0.00179051153            0.000539298557           
       0.472357             0.00114341582            0.000432168923           
       0.473036             0.00117858078            0.000441533651           
       0.473715              0.0017023176            0.000534796586           
       0.474395            0.000201983508            0.000186761991           
       0.475074            0.000705412278            0.000349031559           
       0.475753            0.000348440339            0.000243188889           
       0.476432             0.00113682715            0.000455257002           
       0.477111             0.00021755124            0.000196746187           
       0.477790            0.000930006894            0.000408961925           
       0.478470             0.00115511753            0.000461804849           
       0.479149            0.000248133764            0.000216250579           
       0.479828            0.000224175907            0.000205062027           
       0.480507             0.00136734991            0.000510526117           
       0.481186            0.000477869253            0.000308612829           
       0.481865             0.00121737365            0.000486474207           
       0.482545             0.00105523612            0.000458241393           
       0.483224            8.79832755e-05            0.000133222324           
       0.483903            9.49261787e-05            0.000140558628           
       0.484582            0.000751682925            0.000401964295           
       0.485261            0.000294617746            0.000245275771           
       0.485940            0.000337358322            0.000273052684           
       0.486619            0.000114105213            0.000157054232           
       0.487299            0.000115761984            0.000160712146           
       0.487978            0.000115328201            0.000158776427           
       0.488657           -8.06875301e-05                         0           
       0.489336           -9.15943479e-05                         0           
       0.490015            0.000138335544            0.000179293391           
       0.490694           -0.000315969596                         0           
       0.491374           -7.81459221e-05                         0           
       0.492053           -0.000316007886                         0           
       0.492732           -6.74048707e-05                         0           
       0.493411           -0.000316046354                         0           
       0.494090           -0.000316065839                         0           
       0.494769           -4.88573734e-05                         0           
       0.495449           -0.000316104325                         0           
       0.496128           -0.000316123762                         0           
       0.496807           -0.000316142986                         0           
       0.497486           -0.000316162388                         0           
       0.498165           -0.000316182068                         0           
       0.498844           -0.000316201452                         0           
       0.499524           -0.000316220927                         0           
       0.500203           -0.000316240711                         0           
       0.500882           -0.000316260106                         0           
       0.501561           -0.000316279562                         0           
       0.502240           -0.000316299277                         0           
       0.502919           -0.000316318905                         0           
       0.503599           -0.000316338612                         0           
       0.504278           -0.000316358596                         0           
       0.504957           -0.000316378344                         0           
       0.505636            6.00978772e-07            1.39081475e-05           
       0.506315           -0.000316417912                         0           
       0.506994            1.65754751e-05            7.45824084e-05           
       0.507673            -0.00031645705                         0           
       0.508353           -0.000316477011                         0           
       0.509032           -0.000316496887                         0           
       0.509711            -0.00031651677                         0           
       0.510390            4.44856324e-05            0.000126008503           
       0.511069           -0.000316557096                         0           
       0.511748           -0.000316577145                         0           
       0.512428           -0.000316597336                         0           
       0.513107            5.79775883e-05            0.000147702841           
       0.513786            -0.00031663716                         0           
       0.514465           -0.000316657443                         0           
       0.515144           -0.000316677712                         0           
       0.515823           -0.000316697797                         0           
       0.516503            -0.00031671807                         0           
       0.517182           -0.000316738341                         0           
       0.517861           -0.000316758563                         0           
       0.518540           -0.000316778899                         0           
       0.519219           -0.000316799117                         0           
       0.519898            -0.00031681954                         0           
       0.520578           -0.000316840085                         0           
       0.521257            0.000180651954            0.000296960677           
       0.521936           -0.000316880694                         0           
       0.522615           -0.000316901266                         0           
       0.523294            0.000156933987             0.00027345241           
       0.523973           -0.000316942277                         0           
       0.524653            0.000204792514            0.000324340944           
       0.525332           -0.000316983004                         0           
       0.526011           -0.000317003884                         0           
       0.526690           -0.000317024724                         0           
       0.527369           -0.000317045391                         0           
       0.528048           -0.000317066206                         0           
       0.528728           -0.000317086996                         0           
       0.529407            -0.00031710769                         0           
       0.530086           -0.000317128278                         0           
       0.530765            0.000249735729            0.000376656605           
       0.531444           -0.000317169733                         0           
       0.532123           -0.000317190941                         0           
       0.532802           -0.000317211975                         0           
       0.533482           -0.000317232938                         0           
       0.534161           -0.000317253934                         0           
       0.534840           -0.000317274751                         0           
       0.535519           -0.000317295953                         0           
       0.536198           -0.000317316935                         0           
       0.536877           -0.000317337629                         0           
       0.537557           -0.000317358678                         0           
       0.538236           -0.000317379917                         0           
       0.538915           -0.000317401148                         0           
       0.539594           -0.000317422351                         0           
       0.540273             0.00029717083            0.000426660557           
       0.540952            0.000983638628            0.000801450921           
       0.541632            0.000363525092            0.000498312417           
       0.542311           -0.000317507181                         0           
       0.542990           -0.000317528514                         0           
       0.543669           -0.000317550025                         0           
       0.544348             0.00115837478            0.000922007804           
       0.545027             0.00168371012             0.00105752188           
       0.545707           -0.000317614454                         0           
       0.546386           -0.000317636019                         0           
       0.547065           -0.000317657324                         0           
       0.547744             0.00121111832            0.000960885952           
       0.548423            0.000379823594            0.000518551597           
       0.549102           -0.000317722026                         0           
       0.549782           -0.000317743577                         0           
       0.550461           -0.000317765384                         0           
       0.551140           -0.000317787323                         0           
       0.551819           -0.000317809002                         0           
       0.552498             0.00126408192             0.00101497655           
       0.553177            0.000528226179            0.000665311906           
       0.553856           -0.000317873921                         0           
       0.554536           -0.000317895559                         0           
       0.555215           -0.000317917526                         0           
       0.555894           -0.000317939441                         0           
       0.556573           -0.000317961486                         0           
       0.557252           -0.000317983513                         0           
       0.557931           -0.000318005441                         0           
       0.558611           -0.000318027881                         0           
       0.559290            0.000649864794            0.000793146238           
       0.559969           -0.000318071081                         0           
       0.560648           -0.000318092978                         0           
       0.561327            0.000854874374            0.000999056789           
       0.562006           -0.000318137644                         0           
       0.562686           -0.000318159937                         0           
       0.563365           -0.000318182313                         0           
       0.564044           -0.000318204576                         0           
       0.564723            0.000810512036            0.000954425338           
       0.565402           -0.000318248589                         0           
       0.566081           -0.000318270534                         0           
       0.566761           -0.000318292715                         0           
       0.567440           -0.000318315346                         0           
       0.568119           -0.000318337799                         0           
       0.568798           -0.000318360568                         0           
       0.569477            -0.00031838319                         0           
       0.570156           -0.000318405922                         0           
       0.570836           -0.000318428568                         0           
       0.571515           -0.000318450736                         0           
       0.572194           -0.000318473546                         0           
       0.572873           -0.000318495835                         0           
       0.573552           -0.000318517992                         0           
       0.574231           -0.000318540598                         0           
       0.574911           -0.000318563775                         0           
       0.575590           -0.000318586505                         0           
       0.576269           -0.000318609166                         0           
       0.576948           -0.000318632263                         0           
       0.577627           -0.000318654655                         0           
       0.578306           -0.000318677362                         0           
       0.578985           -0.000318700264                         0           
       0.579665           -0.000318723034                         0           
       0.580344           -0.000318746149                         0           
       0.581023           -0.000318769238                         0           
       0.581702           -0.000318792115                         0           
       0.582381           -0.000318814783                         0           
       0.583060           -0.000318838127                         0           
       0.583740           -0.000318861105                         0           
       0.584419           -0.000318884159                         0           
       0.585098           -0.000318907186                         0           
       0.585777           -0.000318930392                         0           
       0.586456           -0.000318953975                         0           
       0.587135           -0.000318976931                         0           
       0.587815            -0.00031899964                         0           
       0.588494           -0.000319023057                         0           
       0.589173           -0.000319047011                         0           
       0.589852           -0.000319069692                         0           
       0.590531           -0.000319093228                         0           
       0.591210           -0.000319116221                         0           
       0.591890           -0.000319139658                         0           
       0.592569           -0.000319162312                         0           
       0.593248           -0.000319187078                         0           
       0.593927           -0.000319210625                         0           
       0.594606           -0.000319234657                         0           
       0.595285           -0.000319257257                         0           
       0.595965           -0.000319278346                         0           
       0.596644           -0.000319300048                         0           
