################################################################################
# EDF_DataBlockID                     0.Image.Psd
# EDF_BinarySize                      2105344
# EDF_HeaderSize                      2560
# ByteOrder                           LowByteFirst
# DataType                            FloatValue
# Dim_1                               512
# Dim_2                               1028
# Image                               0
# HeaderID                            EH:000000:000000:000000
# Size                                2105344
# Center_1                            304.9000
# Center_2                            588.7000
# Comment                             Xenocs_Cell_Window - 20251028_20perc_iodine_1.23mg
# DDummy                              0.6
# Date                                2025-10-31T17:49:14
# Delta                               21.910000
# Dummy                               -1.5
# ExposureTime                        360
# Gamma                               15.360000
# Intensity1                          8.62482e-10
# PSize_1                             7.5e-05
# PSize_2                             7.5e-05
# Pressure                            0.0326872
# SampleDistance                      0.115750
# SampleEnvKind                       large
# SampleEnvPN                         ElectroChemical cell
# SampleEnvSN                         1141
# Thickness                           0
# Wavelength                          1.541891e-10
# Wavelength                          1.54189e-10
# aux                                 0
# aux_dial                            0.002375
# beamx                               588.434
# beamx_dial                          588.434
# beamz                               657.808
# beamz_dial                          657.808
# det0x                               0
# det0x_dial                          6.36945
# det0xvd                             0
# det0xvd_dial                        0
# det0y                               450.002
# det0y_dial                          481.635
# det0z                               0
# det0z_dial                          1.23302
# det0zvd                             0
# det0zvd_dial                        0
# mag                                 1.818
# mag_dial                            1.818
# om                                  0.2499
# om_dial                             -0.610199
# phi                                 -0.0120535
# phi_dial                            0
# ry                                  0.599993
# ry_dial                             0.599993
# s1bot                               0.8
# s1bot_dial                          -1.66094
# s1hl                                0.8
# s1hl_dial                           -0.608437
# s1hr                                0.8
# s1hr_dial                           0.970938
# s1top                               0.8
# s1top_dial                          -0.461562
# s2bot                               0.45
# s2bot_dial                          1.36109
# s2hl                                0.45
# s2hl_dial                           -0.83375
# s2hr                                0.45
# s2hr_dial                           -0.118594
# s2top                               0.45
# s2top_dial                          1.44734
# w2theta                             32
# w2theta_dial                        32
# waxsch                              19.2605
# waxsch_dial                         -32.7355
# waxsh                               137.085
# waxsh_dial                          -43.5338
# waxsth                              26.0607
# waxsth_dial                         -19.4086
# waxsz                               67.0407
# waxsz_dial                          -23.7954
# wind                                65.9854
# wind_dial                           66.0041
# wpsi                                124
# wpsi_dial                           124
# wstod                               115
# wstod_dial                          115
# x                                   0
# x_dial                              1.00969
# z                                   0
# z_dial                              13.3172
# CountCutoff                         6807993
# DetectorModel                       Dectris EIGER2 Si 500K, S/N E-01-0554
# ThresholdSetting                    4023.88989258
# Saturation                          0
# FlatField                           Corrected
# BackgroundReductionExtra            0.02
# BackgroundCorrectionConstant        0.0026712
# Detector                            0
# Monitor                             0
# Pil_Roi0                            0
# SumForIntensity1                    3.10494e+08
# TransmittedFlux                     862482
# det                                 0
# mon                                 0
# pilai0                              3.10494e+08
# pilai1                              780422
# pilct0                              5.36661e+08
# pilct1                              780422
# pilroi0                             0
# pilroi1                             0
# sec                                 1
# title                               20251028_20perc_iodine_1.23mg_1_00686.edf
# usaxs0                              0
# Operation                           Azimuthal average I(q)
# Error_model                         ErrorModel.poisson
# Geometrical_correction              True
# Transmission_correction             True
# Thickness_correction                False
# Binning mode                        Uniform
# Binning factor                      1.0
# Psi                                 0.0
# Omega                               0.2499
# MaskInvalidPixels                   True
# DetectorEdge                        3
# MaskFiles                           ['WAXS_corrected.edf']
################################################################################
    q(A⁻¹)                Intensity(a.u.)            Sigma_I(a.u.)            
       0.693100              0.0123043607             0.00736323354           
       0.695741             0.00836106909             0.00495310658           
       0.698381             0.00839394362             0.00607914705           
       0.701021             0.00873972949             0.00876921674           
       0.703662             0.00556720889             0.00403989457           
       0.706302              0.0117952211             0.00455262071           
       0.708942             0.00849869004             0.00498775918           
       0.711583              0.0130466942             0.00535137662           
       0.714223             0.00578293203             0.00411328914           
       0.716864              0.0136779342             0.00413900769           
       0.719504             0.00581073728             0.00291118265           
       0.722144             0.00497666355             0.00249499565           
       0.724785             0.00476795742             0.00194804166           
       0.727425             0.00584595484             0.00291809772           
       0.730065             0.00217558877             0.00125922033           
       0.732706             0.00561316836             0.00169850214           
       0.735346             0.00524197494             0.00213960521           
       0.737987             0.00737492299             0.00179333734           
       0.740627             0.00288426559             0.00167335219           
       0.743267             0.00821793046             0.00189187798           
       0.745908              0.0087462464             0.00211753925           
       0.748548              0.0081667407             0.00188607705           
       0.751189             0.00555373022             0.00209577167           
       0.753829             0.00872967305             0.00241532553           
       0.756469             0.00689818088             0.00173131989           
       0.759110             0.00677434493             0.00180806574           
       0.761750              0.0075635879             0.00168929368           
       0.764390             0.00655924767              0.0016465454           
       0.767031             0.00772650359             0.00154752388           
       0.769671              0.0057844809             0.00167029311           
       0.772312             0.00781901028             0.00147838565           
       0.774952             0.00817151821              0.0020409057           
       0.777592             0.00616326473             0.00129102355           
       0.780233             0.00586604482             0.00151958575           
       0.782873             0.00680191114             0.00156498663           
       0.785513             0.00617710029             0.00159437786           
       0.788154             0.00998704122             0.00169590383           
       0.790794             0.00782274672             0.00179440913           
       0.793435             0.00994243126             0.00181734906           
       0.796075             0.00616366499             0.00137840782           
       0.798715             0.00600362467               0.001607599           
       0.801356             0.00883068359             0.00167804668           
       0.803996              0.0052817207             0.00132308366           
       0.806637             0.00901221903             0.00137539576           
       0.809277             0.00812883147             0.00141386259           
       0.811917             0.00643795321             0.00117626372           
       0.814558             0.00787468138             0.00135206368           
       0.817198              0.0075191956             0.00125519552           
       0.819838             0.00642432651             0.00117422604           
       0.822479             0.00978970924             0.00170212676           
       0.825119             0.00789067173             0.00130064181           
       0.827760              0.0088392833             0.00139444724           
       0.830400             0.00581324723             0.00106433455           
       0.833040             0.00576096356             0.00111006904           
       0.835681             0.00720528307             0.00141131201           
       0.838321             0.00702102919             0.00116931527           
       0.840961             0.00712834728             0.00128372396           
       0.843602             0.00618285468             0.00109637828           
       0.846242             0.00811608228             0.00125595576           
       0.848883              0.0093914316             0.00138259123           
       0.851523             0.00654482763             0.00113985202           
       0.854163             0.00806671737             0.00134575797           
       0.856804             0.00760685269             0.00117502466           
       0.859444             0.00781401577             0.00116686889           
       0.862085             0.00530407384             0.00100198619           
       0.864725             0.00633702981             0.00112084067           
       0.867365             0.00733378974             0.00111810124           
       0.870006             0.00740796115             0.00107083889           
       0.872646             0.00852479275             0.00120459888           
       0.875286              0.0056656076            0.000944771521           
       0.877927             0.00893543091             0.00114490019           
       0.880567             0.00708111175             0.00105591479           
       0.883208              0.0078734079             0.00110293187           
       0.885848             0.00681167554             0.00106516656           
       0.888488             0.00597878227            0.000935989931           
       0.891129             0.00802224071             0.00111325547           
       0.893769             0.00762927919             0.00103899267           
       0.896410             0.00841891772             0.00101760218           
       0.899050             0.00803252763             0.00109310365           
       0.901690             0.00899074998             0.00125972844           
       0.904331             0.00693448636            0.000980825697           
       0.906971             0.00564646359            0.000941558572           
       0.909611             0.00728572892            0.000973620467           
       0.912252             0.00763266292             0.00102931286           
       0.914892             0.00595470834            0.000993516437           
       0.917533             0.00752714026             0.00105669407           
       0.920173             0.00868530689               0.001053132           
       0.922813             0.00700516335            0.000992510666           
       0.925454             0.00603495721            0.000829532824           
       0.928094             0.00868254059             0.00106223859           
       0.930734             0.00660523228            0.000997473482           
       0.933375             0.00896521516             0.00115066038           
       0.936015             0.00643926464            0.000885672312           
       0.938656             0.00870925632             0.00110496759           
       0.941296             0.00782858634            0.000949425411           
       0.943936             0.00839715398            0.000964276283           
       0.946577             0.00676224595            0.000859607476           
       0.949217             0.00931648432            0.000927844717           
       0.951858             0.00615650778            0.000789551341           
       0.954498             0.00693247918            0.000969776867           
       0.957138             0.00791871126             0.00098190906           
       0.959779             0.00826309759            0.000988784911           
       0.962419             0.00930264692             0.00104216198           
       0.965059             0.00970519291             0.00111954551           
       0.967700             0.00892042864             0.00109930104           
       0.970340             0.00751733476             0.00089299787           
       0.972981             0.00702996367            0.000786790548           
       0.975621             0.00688852712            0.000828546847           
       0.978261             0.00708978697            0.000798683046           
       0.980902             0.00693715575            0.000945242395           
       0.983542             0.00837941202             0.00091998293           
       0.986182             0.00847468006            0.000908353645           
       0.988823             0.00790203062            0.000851692193           
       0.991463             0.00783040599            0.000904539221           
       0.994104              0.0091593018            0.000954334396           
       0.996744             0.00860090087            0.000943274578           
       0.999384             0.00835762501            0.000831586813           
       1.002025             0.00721332633             0.00086228245           
       1.004665             0.00895782147            0.000878153345           
       1.007306             0.00680751262            0.000761613648           
       1.009946             0.00753440117            0.000817156914           
       1.012586             0.00714474264            0.000775009598           
       1.015227             0.00736446364            0.000845308441           
       1.017867             0.00761892701            0.000826316053           
       1.020507             0.00766468955            0.000802799563           
       1.023148              0.0077365143            0.000870291936           
       1.025788             0.00887937574            0.000854900356           
       1.028429             0.00867167569            0.000885111549           
       1.031069             0.00784306129            0.000792130366           
       1.033709             0.00757177737            0.000827345762           
       1.036350             0.00786163156            0.000757158704           
       1.038990             0.00832304595            0.000793377796           
       1.041630             0.00905413431            0.000863079653           
       1.044271             0.00754958177            0.000741192277           
       1.046911             0.00765308917            0.000784963945           
       1.049552             0.00844583431            0.000866365417           
       1.052192             0.00808759379            0.000774141885           
       1.054832             0.00800141005            0.000777010729           
       1.057473             0.00999740676            0.000856192355           
       1.060113             0.00893090812            0.000789225658           
       1.062754              0.0081289104            0.000768754721           
       1.065394             0.00957792302            0.000882243535           
       1.068034             0.00861454862            0.000761281057           
       1.070675             0.00856621987            0.000791879011           
       1.073315              0.0087522646            0.000811905138           
       1.075955             0.00884055658            0.000770341276           
       1.078596             0.00880894712            0.000817254969           
       1.081236             0.00833204819            0.000761096697           
       1.083877             0.00812266032            0.000744731325           
       1.086517             0.00910275096            0.000845376429           
       1.089157             0.00973195205             0.00090698224           
       1.091798             0.00861751415            0.000748253878           
       1.094438             0.00889862597            0.000757906218           
       1.097078              0.0078321268             0.00068196168           
       1.099719             0.00859520169            0.000772744761           
       1.102359             0.00847129605            0.000718449573           
       1.105000             0.00959924381            0.000855179678           
       1.107640             0.00793701999             0.00074353147           
       1.110280             0.00880011544            0.000714350536           
       1.112921             0.00868876534            0.000762496636           
       1.115561             0.00962676456            0.000762803957           
       1.118202             0.00818126827            0.000703869438           
       1.120842              0.0084350489            0.000751157462           
       1.123482             0.00808439154            0.000732166518           
       1.126123             0.00901953182            0.000741775814           
       1.128763             0.00933480718            0.000759802724           
       1.131403             0.00924214006            0.000728491966           
       1.134044             0.00853021404            0.000720169726           
       1.136684             0.00893030677            0.000785626142           
       1.139325             0.00873791954            0.000715879881           
       1.141965             0.00990746825            0.000767324567           
       1.144605             0.00977343121             0.00072668021           
       1.147246             0.00853035831            0.000694791635           
       1.149886               0.008989989            0.000710732311           
       1.152527             0.00899879796            0.000721420969           
       1.155167             0.00958003364            0.000707994844           
       1.157807             0.00895735703            0.000734012539           
       1.160448             0.00912457451            0.000723441604           
       1.163088             0.00890908334            0.000681859759           
       1.165728              0.0106207915             0.00076437865           
       1.168369             0.00879253699            0.000701909397           
       1.171009             0.00964199734            0.000713330607           
       1.173650             0.00827061144            0.000677991797           
       1.176290              0.0088656453            0.000685969925           
       1.178930             0.00933649175            0.000689935004           
       1.181571             0.00921132622            0.000698884387           
       1.184211             0.00987749875             0.00072628128           
       1.186851             0.00862671039            0.000663595116           
       1.189492             0.00872344461            0.000662815993           
       1.192132              0.0103337248            0.000713307985           
       1.194773             0.00998197217            0.000704125754           
       1.197413             0.00829578961            0.000615036095           
       1.200053             0.00853469369            0.000639679762           
       1.202694              0.0100970526            0.000661637838           
       1.205334             0.00946952628            0.000690525628           
       1.207975             0.00975195517            0.000668883199           
       1.210615               0.009260613            0.000719062622           
       1.213255             0.00903278594            0.000635934127           
       1.215896             0.00931403503            0.000657459105           
       1.218536             0.00976698064            0.000647364072           
       1.221176             0.00912552023            0.000680312976           
       1.223817             0.00967102161            0.000657431916           
       1.226457              0.0106303538            0.000703154752           
       1.229098              0.0109227261            0.000712724063           
       1.231738              0.0101452783            0.000690271716           
       1.234378             0.00989116491            0.000640439446           
       1.237019              0.0091126412            0.000633461892           
       1.239659             0.00851208657            0.000606899329           
       1.242299             0.00954984384            0.000634663695           
       1.244940             0.00968384973            0.000621565855           
       1.247580             0.00954844932            0.000636080392           
       1.250221              0.0109454914            0.000676823081           
       1.252861               0.010111334            0.000619299738           
       1.255501              0.0101113254             0.00067244086           
       1.258142               0.010891807            0.000655812564           
       1.260782              0.0104934695            0.000657636696           
       1.263423              0.0109159196            0.000644508903           
       1.266063              0.0103428703            0.000643029676           
       1.268703             0.00925377494              0.0006031858           
       1.271344              0.0112648543            0.000688064374           
       1.273984              0.0112025137            0.000662693107           
       1.276624              0.0107035862            0.000635598504           
       1.279265              0.0111738895            0.000660196636           
       1.281905              0.0103351842            0.000637754353           
       1.284546              0.0101457812            0.000610772778           
       1.287186              0.0109616474            0.000622860544           
       1.289826              0.0110460663            0.000658966902           
       1.292467              0.0107598281            0.000636047915           
       1.295107              0.0115953191             0.00065372161           
       1.297747              0.0105984772            0.000598063735           
       1.300388              0.0106948788            0.000654923332           
       1.303028              0.0111396386            0.000638097164           
       1.305669             0.00983086598            0.000613715239           
       1.308309              0.0105918268            0.000630751769           
       1.310949              0.0107091995            0.000633599572           
       1.313590              0.0115961873            0.000638707061           
       1.316230             0.00948547161            0.000616445243           
       1.318871              0.0124348451            0.000691250132           
       1.321511              0.0109624362             0.00063700563           
       1.324151              0.0106144549            0.000608231122           
       1.326792               0.010391032            0.000605516311           
       1.329432              0.0103739917            0.000600750109           
       1.332072              0.0100722707             0.00058312757           
       1.334713              0.0104894266            0.000614182183           
       1.337353              0.0111377036            0.000606941462           
       1.339994              0.0116609637            0.000651714551           
       1.342634              0.0111399089            0.000610831158           
       1.345274              0.0110295861            0.000629014831           
       1.347915             0.00992486006            0.000580205418           
       1.350555              0.0123240944            0.000657865963           
       1.353195              0.0115727279            0.000640627526           
       1.355836              0.0116187476            0.000631890788           
       1.358476              0.0111088141            0.000600044341           
       1.361117              0.0110423967            0.000599069046           
       1.363757              0.0109951913            0.000616040352           
       1.366397              0.0112645353            0.000604671045           
       1.369038              0.0111306222            0.000607051076           
       1.371678              0.0107450531            0.000591185882           
       1.374319              0.0105719264            0.000581354443           
       1.376959              0.0110191505            0.000587554799           
       1.379599              0.0108469785            0.000624742132           
       1.382240              0.0115643433            0.000606269036           
       1.384880              0.0112240234            0.000632656996           
       1.387520              0.0120519972             0.00062262147           
       1.390161              0.0101585147            0.000542904523           
       1.392801              0.0112670757            0.000595718759           
       1.395442               0.012827062            0.000644303654           
       1.398082              0.0111114322             0.00056156443           
       1.400722              0.0111061335            0.000588085576           
       1.403363              0.0119022084            0.000640833334           
       1.406003              0.0104242388             0.00056126378           
       1.408644               0.011184643            0.000609027488           
       1.411284              0.0114849151            0.000584384938           
       1.413924              0.0118756104            0.000592038645           
       1.416565              0.0100992953            0.000543823913           
       1.419205              0.0117902091            0.000612948894           
       1.421845              0.0120228344            0.000618602771           
       1.424486              0.0115130462            0.000581876484           
       1.427126              0.0111988406            0.000596151883           
       1.429767              0.0130882663            0.000606380139           
       1.432407              0.0113123886            0.000589970086           
       1.435047              0.0131272606            0.000596873421           
       1.437688                0.01172147            0.000572442176           
       1.440328              0.0119629902            0.000590229939           
       1.442968              0.0105394017            0.000566412128           
       1.445609              0.0108909551            0.000557515965           
       1.448249               0.011277841            0.000581696503           
       1.450890              0.0111858331            0.000575537629           
       1.453530              0.0118479916             0.00061969374           
       1.456170              0.0120474951            0.000606469769           
       1.458811              0.0106924711            0.000546333985           
       1.461451              0.0102298442            0.000535786115           
       1.464092              0.0105750931            0.000548313758           
       1.466732              0.0101449244            0.000532430984           
       1.469372              0.0116903604            0.000558172219           
       1.472013              0.0126122229            0.000625285394           
       1.474653              0.0110016031            0.000574987888           
       1.477293              0.0117221647             0.00060602839           
       1.479934              0.0108946813            0.000557493478           
       1.482574              0.0102391147            0.000522810819           
       1.485215              0.0112127357            0.000557292992           
       1.487855              0.0110201915            0.000559775596           
       1.490495              0.0120412051            0.000582977707           
       1.493136               0.012343318            0.000582155403           
       1.495776              0.0113572347            0.000555875165           
       1.498416              0.0112827555            0.000572176414           
       1.501057               0.010902218            0.000550049209           
       1.503697              0.0108403406             0.00053623259           
       1.506338              0.0104601414            0.000536370596           
       1.508978              0.0102579303            0.000525937252           
       1.511618              0.0105950145            0.000569249237           
       1.514259               0.010892516            0.000557246038           
       1.516899              0.0113546037            0.000553962033           
       1.519540              0.0105639968            0.000542944695           
       1.522180              0.0104695757            0.000545260957           
       1.524820              0.0108603873            0.000552228811           
       1.527461             0.00988746698            0.000529518956           
       1.530101                0.01124048            0.000558941224           
       1.532741              0.0102022236            0.000529411555           
       1.535382              0.0115481724            0.000572319514           
       1.538022              0.0109896144            0.000525954847           
       1.540663              0.0114430172            0.000577248562           
       1.543303              0.0107107943            0.000518552774           
       1.545943              0.0115024308            0.000568771077           
       1.548584              0.0115193474            0.000579406467           
       1.551224              0.0100310536            0.000499912486           
       1.553864              0.0100086705            0.000527661261           
       1.556505               0.010558992            0.000523560667           
       1.559145              0.0111958022            0.000545721587           
       1.561786              0.0100698756             0.00051795249           
       1.564426              0.0102461027            0.000506214208           
       1.567066              0.0109371877            0.000548011307           
       1.569707              0.0103781787            0.000524233832           
       1.572347              0.0101166889            0.000534719502           
       1.574988              0.0106489331            0.000522180114           
       1.577628              0.0104264261            0.000538786419           
       1.580268              0.0098803032            0.000508171242           
       1.582909              0.0106927771            0.000560350515           
       1.585549              0.0093593525            0.000509028801           
       1.588189              0.0101163525            0.000517663829           
       1.590830              0.0110447401            0.000540216899           
       1.593470             0.00973211551            0.000527179597           
       1.596111             0.00955337692            0.000509942786           
       1.598751             0.00965888719            0.000496838563           
       1.601391             0.00938305519            0.000500496966           
       1.604032              0.0102862548            0.000534987153           
       1.606672             0.00896539396            0.000485271344           
       1.609312              0.0102667138            0.000542085176           
       1.611953             0.00956343071            0.000511973116           
       1.614593              0.0099430798            0.000512076335           
       1.617234              0.0100371796             0.00053320934           
       1.619874             0.00865710328            0.000493241066           
       1.622514             0.00834937381            0.000477787392           
       1.625155             0.00990021218            0.000523344938           
       1.627795             0.00949306425            0.000499914188           
       1.630436             0.00956136554            0.000499089612           
       1.633076             0.00941005043            0.000501618404           
       1.635716             0.00931090831            0.000491205407           
       1.638357             0.00897218188            0.000483458694           
       1.640997             0.00942018781            0.000510388007           
       1.643637             0.00911317969            0.000488504753           
       1.646278             0.00892317804            0.000498573505           
       1.648918              0.0093048487            0.000510513451           
       1.651559              0.0091840786            0.000511126127           
       1.654199             0.00893995834            0.000490463698           
       1.656839             0.00839821669            0.000475536908           
       1.659480             0.00890640374            0.000508102929           
       1.662120             0.00848122249            0.000466986884           
       1.664761             0.00871879897             0.00049182594           
       1.667401             0.00961174829            0.000493565625           
       1.670041             0.00937778302            0.000494955134           
       1.672682             0.00862320347            0.000472673611           
       1.675322             0.00912783179            0.000483180182           
       1.677962             0.00958107989            0.000489570324           
       1.680603             0.00967236287            0.000493410656           
       1.683243              0.0086365562            0.000486437854           
       1.685884             0.00864418864            0.000490246503           
       1.688524             0.00960470196             0.00050677731           
       1.691164             0.00901161309            0.000490992713           
       1.693805             0.00958369298            0.000511899973           
       1.696445             0.00892478572            0.000496854811           
       1.699085              0.0087976622            0.000476773878           
       1.701726             0.00873024011            0.000457525108           
       1.704366             0.00857890635            0.000477794383           
       1.707007             0.00891832277            0.000476295246           
       1.709647             0.00900344317            0.000483967285           
       1.712287             0.00852047404             0.00047490574           
       1.714928             0.00914922749            0.000496084037           
       1.717568             0.00856861761            0.000452242271           
       1.720209             0.00864131881            0.000475697708           
       1.722849              0.0088932273            0.000480100579           
       1.725489             0.00903440428            0.000484302615           
       1.728130             0.00896956069            0.000512827613           
       1.730770              0.0092524388            0.000494668951           
       1.733410             0.00863174659            0.000470278333           
       1.736051               0.008979629            0.000483000124           
       1.738691             0.00867568442            0.000465131498           
       1.741332             0.00861338159            0.000477010187           
       1.743972             0.00895414634            0.000502243574           
       1.746612             0.00919675828            0.000488771897           
       1.749253             0.00909773356            0.000495733737           
       1.751893             0.00752546019            0.000447557504           
       1.754533             0.00825745566             0.00046838143           
       1.757174             0.00812694792            0.000460313989           
       1.759814             0.00839196269            0.000460668739           
       1.762455             0.00872417742            0.000478323203           
       1.765095             0.00851664436            0.000452099091           
       1.767735             0.00903265175            0.000479957165           
       1.770376             0.00853071393            0.000467660778           
       1.773016             0.00894523273            0.000475680417           
       1.775657             0.00815047648            0.000447524331           
       1.778297             0.00803516525            0.000440521097           
       1.780937             0.00825401871              0.0004712595           
       1.783578             0.00826003777            0.000459643517           
       1.786218             0.00855812263            0.000488266986           
       1.788858             0.00883879714            0.000471278878           
       1.791499             0.00891167892            0.000467903218           
       1.794139             0.00949672035            0.000479098939           
       1.796780             0.00936034011            0.000473353337           
       1.799420             0.00884624325            0.000457622497           
       1.802060             0.00918758341            0.000470134812           
       1.804701             0.00823559067            0.000427149569           
       1.807341             0.00899863429            0.000469173771           
       1.809981             0.00834273033            0.000453257578           
       1.812622              0.0088562184            0.000458590637           
       1.815262             0.00822217258            0.000451256131           
       1.817903             0.00786424991            0.000434785888           
       1.820543             0.00879170495             0.00046687266           
       1.823183             0.00826266924            0.000452359021           
       1.825824              0.0093093718            0.000458722543           
       1.828464             0.00964797032            0.000486857594           
       1.831105             0.00751198846            0.000417719738           
       1.833745             0.00860030263            0.000456501243           
       1.836385             0.00793864378            0.000451106188           
       1.839026             0.00894511296            0.000477336053           
       1.841666             0.00801282952            0.000450175194           
       1.844306             0.00803463717            0.000438487421           
       1.846947             0.00749086926            0.000427100849           
       1.849587             0.00867479881             0.00050752619           
       1.852228             0.00832480072            0.000449576023           
       1.854868             0.00876608999            0.000487335313           
       1.857508             0.00839805173             0.00047231708           
       1.860149             0.00803597536            0.000470417385           
       1.862789             0.00856712828            0.000468827502           
       1.865429             0.00734423413            0.000453111985           
       1.868070             0.00846428058            0.000479954441           
       1.870710             0.00814210755            0.000459879135           
       1.873351             0.00917085853            0.000494101579           
       1.875991             0.00844389748            0.000481851573           
       1.878631             0.00763487433            0.000449411695           
       1.881272             0.00789900967             0.00045405667           
       1.883912             0.00771819486            0.000467101194           
       1.886553             0.00798256581            0.000469722753           
       1.889193             0.00790530291            0.000466645308           
       1.891833             0.00839966748             0.00049955292           
       1.894474             0.00784842359            0.000478677305           
       1.897114             0.00808477454            0.000470128901           
       1.899754             0.00845906618            0.000482900369           
       1.902395             0.00780778307            0.000454867717           
       1.905035             0.00777838879            0.000480873405           
       1.907676             0.00822047185            0.000465926083           
       1.910316             0.00812727421            0.000475578197           
       1.912956             0.00760601392            0.000449952675           
       1.915597             0.00720137885            0.000440267437           
       1.918237             0.00800893577             0.00047950612           
       1.920878             0.00841993351            0.000489643037           
       1.923518             0.00881359943            0.000501171234           
       1.926158             0.00801744463            0.000471796774           
       1.928799             0.00838071508            0.000476783394           
       1.931439             0.00831990093            0.000487510455           
       1.934079             0.00893841481            0.000526769866           
       1.936720             0.00837004647            0.000472295323           
       1.939360             0.00776262822            0.000485245774           
       1.942001             0.00778484131            0.000445388499           
       1.944641             0.00758741036            0.000448365684           
       1.947281             0.00829357644             0.00046444558           
       1.949922             0.00843057324            0.000483677174           
       1.952562             0.00831579177            0.000495430879           
       1.955202             0.00764601075            0.000474481199           
       1.957843             0.00791937644            0.000470366013           
       1.960483             0.00798911649            0.000493927603           
       1.963124             0.00784117038            0.000479293972           
       1.965764             0.00754585516            0.000443394548           
       1.968404             0.00664082968            0.000412025785           
       1.971045             0.00751139912            0.000446769249           
       1.973685             0.00839450095            0.000495410123           
       1.976326             0.00839089528            0.000488496395           
       1.978966             0.00693905344            0.000448127923           
       1.981606             0.00777777697            0.000484332894           
       1.984247             0.00800893215             0.00048824615           
       1.986887             0.00851096746            0.000497287146           
       1.989527             0.00742395397            0.000459444389           
       1.992168             0.00820162055            0.000501058846           
       1.994808             0.00816978665            0.000497941835           
       1.997449             0.00765608782            0.000472133651           
       2.000089             0.00730192126            0.000459255978           
       2.002729             0.00725258768            0.000457976331           
       2.005370             0.00711868367            0.000448846859           
       2.008010             0.00745311605            0.000479313202           
       2.010650             0.00844530705            0.000514027998           
       2.013291             0.00719801465            0.000455308063           
       2.015931             0.00740447369            0.000458527293           
       2.018572             0.00805314047            0.000511469711           
       2.021212             0.00800892569            0.000500899523           
       2.023852             0.00779744796            0.000467776858           
       2.026493             0.00749539287            0.000479117577           
       2.029133             0.00793320212            0.000482992367           
       2.031774             0.00767065064            0.000498431357           
       2.034414             0.00737955027            0.000449839515           
       2.037054             0.00791934512             0.00047781308           
       2.039695             0.00761074708            0.000464873253           
       2.042335             0.00828115881            0.000503934128           
       2.044975               0.007266546            0.000466329864           
       2.047616             0.00809737228            0.000491044794           
       2.050256             0.00745302184            0.000475560639           
       2.052897             0.00735163592            0.000481022359           
       2.055537             0.00861149857            0.000503149923           
       2.058177             0.00746614008             0.00045878415           
       2.060818              0.0079265863            0.000495210196           
       2.063458             0.00762492287            0.000506143107           
       2.066098              0.0082792493             0.00049752742           
       2.068739             0.00597556183            0.000429249356           
       2.071379              0.0081068161            0.000513011144           
       2.074020              0.0070147061            0.000466835505           
       2.076660             0.00751423812            0.000487077779           
       2.079300             0.00694640722            0.000479787329           
       2.081941             0.00727932018             0.00044970369           
       2.084581             0.00655737791            0.000450514114           
       2.087222             0.00788662834             0.00047648384           
       2.089862             0.00709523456            0.000492237384           
       2.092502             0.00731244542            0.000484402519           
       2.095143             0.00811042958            0.000526805098           
       2.097783             0.00747240253            0.000489563506           
       2.100423             0.00751291593            0.000473016596           
       2.103064             0.00698546205            0.000473275516           
       2.105704             0.00727453631            0.000480576587           
       2.108345             0.00709951926            0.000456117726           
       2.110985             0.00796106739            0.000515880138           
       2.113625              0.0073947812            0.000501532673           
       2.116266             0.00707141076            0.000497402442           
       2.118906             0.00732498429            0.000471789242           
       2.121546             0.00742052551             0.00046578963           
       2.124187             0.00792480308            0.000505275526           
       2.126827             0.00826405418            0.000521735997           
       2.129468             0.00735696627            0.000493527691           
       2.132108             0.00727256788             0.00047740274           
       2.134748             0.00720772871             0.00047342587           
       2.137389             0.00805367391            0.000522080552           
       2.140029             0.00725218838            0.000443531751           
       2.142670             0.00718548917            0.000471827132           
       2.145310             0.00671005419             0.00044378485           
       2.147950             0.00687168528            0.000462244193           
       2.150591             0.00680196469            0.000455245523           
       2.153231             0.00632860423            0.000452004987           
       2.155871             0.00753161741            0.000476365616           
       2.158512             0.00737833078            0.000491969617           
       2.161152             0.00725764503            0.000472638963           
       2.163793              0.0070192953             0.00046272062           
       2.166433             0.00714070312            0.000479257013           
       2.169073             0.00581349704            0.000422803516           
       2.171714             0.00757363291            0.000478975428           
       2.174354               0.006776635            0.000473419405           
       2.176995               0.007574664            0.000498413082           
       2.179635             0.00672005285            0.000496080364           
       2.182275             0.00756471335            0.000496943392           
       2.184916             0.00802578138            0.000494393867           
       2.187556             0.00680683459            0.000450741121           
       2.190196             0.00694213198            0.000475676512           
       2.192837             0.00741952429            0.000489084541           
       2.195477             0.00675978579            0.000445070663           
       2.198118             0.00684168283            0.000459231795           
       2.200758             0.00746929995            0.000492279893           
       2.203398             0.00753282444            0.000497531471           
       2.206039             0.00697695015            0.000453164848           
       2.208679              0.0070520687            0.000466200885           
       2.211319             0.00634741863             0.00044484667           
       2.213960              0.0069246074            0.000470857546           
       2.216600             0.00747848232            0.000506197302           
       2.219241             0.00743013009            0.000482221334           
       2.221881              0.0077310284            0.000492900052           
       2.224521             0.00740233757            0.000488218361           
       2.227162             0.00710377406            0.000468695101           
       2.229802             0.00671211034            0.000469853081           
       2.232443             0.00745773686            0.000487451464           
       2.235083             0.00674407695            0.000477215244           
       2.237723             0.00762632307            0.000486991451           
       2.240364              0.0067948623            0.000471002888           
       2.243004             0.00704740514             0.00047584684           
       2.245644             0.00722123109             0.00048650087           
       2.248285             0.00645862645            0.000450878527           
       2.250925             0.00807808197            0.000507310419           
       2.253566             0.00724073142            0.000513475442           
       2.256206             0.00668373462            0.000483466423           
       2.258846             0.00697544974             0.00046983963           
       2.261487             0.00687398153             0.00048954041           
       2.264127             0.00605163349            0.000443609421           
       2.266767             0.00795794512             0.00052225699           
       2.269408             0.00727796176            0.000501491401           
       2.272048             0.00685848741            0.000483918977           
       2.274689             0.00756920933            0.000515072985           
       2.277329             0.00721532193            0.000473501568           
       2.279969             0.00693977314            0.000494297601           
       2.282610             0.00769506002            0.000506024802           
       2.285250              0.0064692898            0.000444086634           
       2.287891             0.00711952468            0.000499483159           
       2.290531             0.00723888606            0.000510423209           
       2.293171             0.00690794397            0.000485700131           
       2.295812             0.00722117154            0.000494593511           
       2.298452             0.00677001859            0.000500795995           
       2.301092             0.00744929472            0.000488086333           
       2.303733             0.00769261604            0.000516006639           
       2.306373             0.00721453363            0.000507584772           
       2.309014             0.00620637685            0.000461602012           
       2.311654             0.00747775326            0.000528745144           
       2.314294             0.00730604611            0.000481509479           
       2.316935             0.00765381483            0.000494872328           
       2.319575             0.00710104249            0.000499436879           
       2.322215             0.00713161174            0.000521616681           
       2.324856              0.0065883425            0.000460944309           
       2.327496             0.00768525635            0.000529359963           
       2.330137             0.00633544939            0.000459926689           
       2.332777             0.00701978825            0.000499189541           
       2.335417             0.00681569306            0.000477196398           
       2.338058             0.00709463234            0.000501407033           
       2.340698             0.00676202059            0.000485665635           
       2.343339              0.0069621904            0.000503646123           
       2.345979             0.00720890342            0.000484858262           
       2.348619             0.00718569389            0.000501771868           
       2.351260             0.00774619752              0.0005179389           
       2.353900             0.00785480591            0.000519905052           
       2.356540             0.00703637363             0.00049137587           
       2.359181             0.00664567231            0.000470844138           
       2.361821             0.00715440515            0.000471910474           
       2.364462             0.00746521995            0.000504166386           
       2.367102             0.00704417243            0.000503288502           
       2.369742             0.00701002575            0.000528460374           
       2.372383              0.0071258131            0.000482455329           
       2.375023             0.00795219592            0.000535766652           
       2.377663             0.00708579961            0.000483560889           
       2.380304             0.00685726495            0.000483630666           
       2.382944             0.00652351221            0.000449293006           
       2.385585             0.00759701317            0.000517104404           
       2.388225             0.00723203233            0.000502159214           
       2.390865             0.00724024794            0.000497283136           
       2.393506             0.00781741759            0.000506975437           
       2.396146             0.00727393743             0.00052876683           
       2.398787             0.00708038829            0.000480772781           
       2.401427             0.00705022049            0.000463066901           
       2.404067             0.00686836887            0.000467250671           
       2.406708              0.0074191285            0.000479799951           
       2.409348             0.00662664806            0.000480973871           
       2.411988             0.00673423129            0.000475057934           
       2.414629              0.0066983656            0.000488546872           
       2.417269             0.00637395103            0.000482133501           
       2.419910             0.00685558121            0.000501177632           
       2.422550             0.00728429406            0.000494261125           
       2.425190             0.00701401106            0.000511245594           
       2.427831             0.00710934561            0.000511814941           
       2.430471             0.00659012394            0.000469459343           
       2.433112             0.00678838711            0.000463967067           
       2.435752             0.00713896199            0.000503541414           
       2.438392             0.00690378303            0.000477947832           
       2.441033              0.0076533359            0.000533317483           
       2.443673             0.00714107444            0.000515556138           
       2.446313             0.00631927274            0.000485411965           
       2.448954             0.00706123724            0.000488560151           
       2.451594             0.00597165734            0.000483089876           
       2.454235              0.0079166288            0.000521881224           
       2.456875             0.00724982637            0.000522571602           
       2.459515             0.00653351081            0.000508926401           
       2.462156             0.00802258302            0.000532445114           
       2.464796             0.00778482745            0.000517729196           
       2.467436             0.00776455384            0.000534695193           
       2.470077             0.00789814074            0.000511135023           
       2.472717              0.0079418787            0.000514768589           
       2.475358             0.00782405836            0.000516263504           
       2.477998             0.00773278942            0.000504590969           
       2.480638             0.00687931735            0.000484387919           
       2.483279             0.00782609824            0.000539977688           
       2.485919             0.00798868719            0.000525769802           
       2.488560             0.00732686477            0.000502113426           
       2.491200             0.00624149045            0.000477213455           
       2.493840              0.0066536978            0.000521362128           
       2.496481             0.00648124201            0.000506144135           
       2.499121             0.00675223362            0.000502492686           
       2.501761             0.00690047204            0.000514709062           
       2.504402             0.00703070762            0.000511953019           
       2.507042             0.00653600685            0.000489956634           
       2.509683             0.00679938959            0.000492093434           
       2.512323             0.00765623045            0.000548418568           
       2.514963             0.00703703853            0.000519278952           
       2.517604             0.00730059379            0.000548829345           
       2.520244              0.0066714304            0.000491858108           
       2.522884              0.0072231606            0.000519111704           
       2.525525             0.00904405014            0.000587462608           
       2.528165             0.00827859448            0.000553291615           
       2.530806             0.00772139108            0.000543661024           
       2.533446             0.00838267635            0.000554372512           
       2.536086             0.00727727253            0.000511905809           
       2.538727             0.00696431621            0.000480420081           
       2.541367              0.0065751497             0.00047140242           
       2.544008             0.00745925196            0.000518542439           
       2.546648             0.00663731011            0.000497529542           
       2.549288             0.00709075556             0.00052472196           
       2.551929             0.00676101177            0.000504208704           
       2.554569             0.00690588816            0.000490939813           
       2.557209             0.00654055997            0.000482165585           
       2.559850             0.00649455843            0.000482009873           
       2.562490             0.00698543945            0.000516667364           
       2.565131             0.00847048846            0.000589905221           
       2.567771             0.00735536857            0.000529998819           
       2.570411             0.00740270333            0.000525948524           
       2.573052              0.0068142064            0.000510964692           
       2.575692              0.0068917355            0.000510751541           
       2.578332             0.00763999699            0.000539988108           
       2.580973             0.00716123118            0.000517820805           
       2.583613             0.00688428875            0.000495620343           
       2.586254             0.00693613795            0.000496791848           
       2.588894             0.00709347691            0.000521713072           
       2.591534             0.00752781896            0.000556359878           
       2.594175             0.00679595192             0.00051864797           
       2.596815              0.0072152356            0.000537558805           
       2.599456             0.00666761119            0.000490037684           
       2.602096             0.00694299799            0.000503860684           
       2.604736             0.00696406854            0.000516590416           
       2.607377             0.00693902305            0.000502071306           
       2.610017             0.00641408795            0.000474259905           
       2.612657             0.00745936547             0.00054400008           
       2.615298             0.00744501836            0.000530604203           
       2.617938             0.00592604608            0.000506407757           
       2.620579             0.00724911178            0.000537683721           
       2.623219             0.00739308343            0.000542222801           
       2.625859              0.0071464015            0.000518322725           
       2.628500             0.00734707152            0.000522104792           
       2.631140              0.0069543347            0.000515785403           
       2.633780             0.00718249251            0.000523722387           
       2.636421             0.00692455538            0.000526878429           
       2.639061             0.00724598166            0.000507376547           
       2.641702             0.00691621172             0.00050717225           
       2.644342             0.00614978114            0.000480283602           
       2.646982             0.00694987446            0.000502938389           
       2.649623             0.00647114085            0.000508582457           
       2.652263             0.00728008352            0.000534021801           
       2.654904             0.00809603061            0.000563720167           
       2.657544             0.00786972509            0.000523492376           
       2.660184              0.0062735713              0.0004946445           
       2.662825             0.00680765586            0.000527223821           
       2.665465             0.00836892244            0.000565368282           
       2.668105             0.00653270289            0.000526501398           
       2.670746             0.00727269135            0.000513183142           
       2.673386             0.00872250922            0.000579198332           
       2.676027             0.00775120163            0.000537235182           
       2.678667             0.00941688641            0.000577792847           
       2.681307              0.0103013098            0.000593775697           
       2.683948              0.0135823479            0.000700528579           
       2.686588              0.0115922839            0.000636444277           
       2.689229             0.00986865083            0.000573812299           
       2.691869              0.0100107336            0.000610812679           
       2.694509              0.0100848216            0.000613405656           
       2.697150             0.00757467762            0.000522988289           
       2.699790             0.00821181497            0.000570871538           
       2.702430             0.00841966842            0.000552547461           
       2.705071             0.00683762379            0.000514524266           
       2.707711             0.00668419881            0.000493749893           
       2.710352             0.00678799418            0.000525743622           
       2.712992              0.0071786373            0.000550656877           
       2.715632             0.00688178469            0.000500225378           
       2.718273             0.00718748031            0.000529805456           
       2.720913             0.00701033342            0.000521746998           
       2.723553             0.00693045552            0.000522246676           
       2.726194             0.00657827335            0.000531868179           
       2.728834             0.00791978921            0.000583859796           
       2.731475             0.00702646579            0.000507552147           
       2.734115             0.00637215448            0.000498343661           
       2.736755             0.00788672166             0.00055897709           
       2.739396             0.00671738215            0.000512887632           
       2.742036             0.00686137977            0.000542492213           
       2.744677             0.00746692597            0.000549103032           
       2.747317             0.00732849016            0.000540110028           
       2.749957             0.00676439007            0.000522548334           
       2.752598             0.00734697654            0.000550496148           
       2.755238             0.00822941067            0.000593136153           
       2.757878             0.00747289125            0.000560274067           
       2.760519             0.00818267967             0.00058006205           
       2.763159             0.00986101249            0.000630413626           
       2.765800             0.00789956662            0.000537715137           
       2.768440             0.00772125446            0.000535528062           
       2.771080             0.00806788951            0.000551986335           
       2.773721             0.00702903897            0.000528515128           
       2.776361             0.00719052098            0.000541926259           
       2.779001             0.00789849182            0.000588199565           
       2.781642             0.00733879744            0.000562798167           
       2.784282             0.00680932418            0.000551030529           
       2.786923             0.00735434506            0.000577700565           
       2.789563             0.00651305124            0.000523603199           
       2.792203             0.00760473667            0.000540487117           
       2.794844             0.00709528274            0.000572179365           
       2.797484             0.00651923927            0.000517613429           
       2.800125             0.00767703163            0.000590626817           
       2.802765             0.00679578706            0.000546135028           
       2.805405             0.00622324994            0.000524392182           
       2.808046             0.00584145347            0.000516983172           
       2.810686             0.00698964866            0.000519641911           
       2.813326             0.00612112307            0.000505117281           
       2.815967             0.00673252216            0.000544805548           
       2.818607             0.00730083672            0.000541392329           
       2.821248             0.00649927013            0.000500203589           
       2.823888             0.00792402294            0.000573317673           
       2.826528             0.00698973283            0.000521471074           
       2.829169             0.00669312396            0.000534496865           
       2.831809             0.00635458155            0.000527887942           
       2.834449             0.00665809971            0.000543762668           
       2.837090             0.00715494656            0.000544431513           
       2.839730             0.00660539579            0.000520551703           
       2.842371             0.00637636014            0.000512185419           
       2.845011             0.00702448094            0.000541871042           
       2.847651             0.00794398754            0.000576953953           
       2.850292             0.00737969774            0.000561542471           
       2.852932             0.00650459486            0.000538687026           
       2.855573             0.00733640357            0.000554948083           
       2.858213             0.00615413378             0.00053374482           
       2.860853              0.0082407232            0.000574543729           
       2.863494             0.00647552011            0.000527314041           
       2.866134             0.00741060439            0.000586315702           
       2.868774             0.00694252837             0.00055773319           
       2.871415             0.00724981315            0.000578820213           
       2.874055             0.00658650966            0.000527362627           
       2.876696             0.00717202738            0.000565188927           
       2.879336             0.00711831254            0.000542689739           
       2.881976              0.0078410625            0.000587476836           
       2.884617             0.00832111266            0.000596304949           
       2.887257             0.00742924834            0.000566351458           
       2.889897             0.00653370942             0.00052019003           
       2.892538             0.00651559743            0.000569079663           
       2.895178             0.00689775182            0.000528988039           
       2.897819             0.00683278717            0.000537071213           
       2.900459             0.00633477288            0.000507068692           
       2.903099             0.00736031624             0.00054097987           
       2.905740             0.00706087425            0.000543569868           
       2.908380             0.00731343721            0.000559491732           
       2.911021             0.00667333092            0.000543135734           
       2.913661             0.00747217507            0.000574553446           
       2.916301             0.00651378572            0.000536954655           
       2.918942             0.00688255757            0.000527948967           
       2.921582             0.00682734609            0.000550166651           
       2.924222             0.00665944907            0.000526411082           
       2.926863             0.00781034392            0.000593811157           
       2.929503             0.00780617868            0.000600686057           
       2.932144              0.0067755517            0.000537210144           
       2.934784             0.00734393747            0.000550118365           
       2.937424             0.00740349835            0.000558015463           
       2.940065             0.00604819059             0.00048111161           
       2.942705             0.00672130289            0.000506541036           
       2.945346             0.00667294981            0.000535631111           
       2.947986             0.00688310932            0.000554692123           
       2.950626             0.00702484856            0.000557219115           
       2.953267             0.00555898101            0.000487675316           
       2.955907             0.00703695092            0.000569188364           
       2.958547             0.00737490986            0.000550095012           
       2.961188             0.00687906412            0.000554274093           
       2.963828             0.00712889165             0.00055193997           
       2.966469             0.00691481892            0.000533259644           
       2.969109             0.00728625151            0.000555504938           
       2.971749             0.00728014654            0.000551808189           
       2.974390             0.00865642414            0.000591290343           
       2.977030             0.00888045074            0.000612276897           
       2.979670             0.00894456827            0.000597703291           
       2.982311             0.00871100734             0.00061134782           
       2.984951             0.00710302463            0.000525045004           
       2.987592             0.00731876906            0.000543633843           
       2.990232             0.00716568178            0.000559429112           
       2.992872             0.00823951509            0.000565056634           
       2.995513             0.00790270802            0.000541394842           
       2.998153              0.0118431991            0.000673901995           
       3.000794              0.0114411341            0.000641567644           
       3.003434              0.0115417085            0.000645354294           
       3.006074              0.0418982699              0.0012123586           
       3.008715               0.117237395             0.00195764773           
       3.011355                0.19812652             0.00245411726           
       3.013995               0.104645786              0.0017884009           
       3.016636              0.0672822959             0.00140424275           
       3.019276               0.133805995             0.00194658828           
       3.021917                0.47477585             0.00352575247           
       3.024557                1.55955359             0.00628257438           
       3.027197                1.17321975             0.00531261492           
       3.029838               0.532981325             0.00363154684           
       3.032478               0.266686001              0.0025714443           
       3.035118              0.0699009413             0.00133415507           
       3.037759              0.0900899381             0.00151266321           
       3.040399               0.121377236              0.0018111419           
       3.043040               0.496415345             0.00370763865           
       3.045680               0.407586866             0.00316088757           
       3.048320              0.0933011371             0.00154521741           
       3.050961               0.106968934             0.00168368442           
       3.053601              0.0839367893             0.00143644498           
       3.056242              0.0576596466             0.00126581099           
       3.058882              0.0459248342             0.00121181464           
       3.061522              0.0358250344             0.00105009233           
       3.064163              0.0447909856              0.0011593804           
       3.066803               0.103601054             0.00185631761           
       3.069443               0.103357953             0.00193990374           
       3.072084              0.0572283363             0.00140557402           
       3.074724              0.0407965589             0.00132533085           
       3.077365              0.0828038237             0.00195457041           
       3.080005              0.0186942445            0.000933972442           
       3.082645              0.0104915458            0.000735030839           
       3.085286              0.0143754831            0.000867181556           
       3.087926             0.00869814739            0.000669348119           
       3.090566              0.0110579223            0.000739462184           
       3.093207              0.0107505561            0.000758717221           
       3.095847             0.00819426964            0.000634899189           
       3.098488             0.00865824317             0.00072365081           
       3.101128             0.00974622067            0.000772709629           
       3.103768                0.01013344            0.000773086693           
       3.106409             0.00919640957            0.000783809112           
       3.109049             0.00908875062            0.000747767065           
       3.111690             0.00920430776            0.000739587557           
       3.114330             0.00784704466             0.00069741144           
       3.116970             0.00912227988            0.000757720617           
       3.119611              0.0118260752            0.000918325154           
       3.122251              0.0167993145             0.00114490003           
       3.124891              0.0387137878             0.00175420854           
       3.127532              0.0239512929             0.00134983588           
       3.130172              0.0129189668             0.00100848774           
       3.132813             0.00850902434            0.000805744079           
       3.135453             0.00783638099            0.000766871906           
       3.138093             0.00696873692            0.000783583332           
       3.140734              0.0065258866            0.000699568962           
       3.143374             0.00753605657            0.000795025724           
       3.146014             0.00669208753            0.000806533374           
       3.148655             0.00806067572            0.000822848569           
       3.151295             0.00515925806            0.000701527953           
       3.153936             0.00613994889            0.000739260159           
       3.156576             0.00664187159            0.000758424453           
       3.159216             0.00662198987            0.000761076276           
       3.161857             0.00562779967            0.000698766625           
       3.164497             0.00812593358            0.000882232609           
       3.167138             0.00837204583            0.000925262982           
       3.169778             0.00770207687            0.000872833702           
       3.172418             0.00628880421            0.000780677246           
       3.175059             0.00629791812            0.000692604753           
       3.177699             0.00553229471            0.000687401962           
       3.180339             0.00518082426            0.000712718923           
       3.182980              0.0079646343            0.000913649533           
       3.185620             0.00510749682            0.000745118768           
       3.188261             0.00710338233            0.000894408364           
       3.190901             0.00618509473            0.000767586335           
       3.193541             0.00481870732            0.000711905552           
       3.196182             0.00594189859            0.000823848257           
       3.198822             0.00628058217            0.000847286137           
       3.201463             0.00795533491            0.000937156012           
       3.204103             0.00578058532             0.00079399579           
       3.206743             0.00490589647             0.00073139286           
       3.209384             0.00521322484            0.000814582744           
       3.212024             0.00508880309             0.00075032918           
       3.214664             0.00587470009            0.000916751746           
       3.217305             0.00504762763            0.000807767226           
       3.219945             0.00531870485            0.000853433757           
       3.222586              0.0060904232            0.000869857308           
       3.225226             0.00550357501            0.000917303513           
       3.227866             0.00612750731            0.000884655032           
       3.230507             0.00492208788            0.000821905292           
       3.233147             0.00671432631            0.000967700799           
       3.235787             0.00654217686            0.000977542938           
       3.238428             0.00578584157            0.000992042659           
       3.241068             0.00772275584              0.0010716869           
       3.243709             0.00570955516             0.00095202866           
       3.246349             0.00526798981            0.000833628288           
       3.248989             0.00755597034             0.00117886236           
       3.251630             0.00596805171             0.00100890031           
       3.254270             0.00557951368            0.000871838237           
       3.256911             0.00681516378             0.00105134393           
       3.259551             0.00487212894             0.00095700909           
       3.262191             0.00586224133             0.00107227371           
       3.264832             0.00447031786            0.000978356281           
       3.267472             0.00506029042            0.000976490842           
       3.270112             0.00617262322             0.00119186673           
       3.272753             0.00692842392             0.00115580568           
       3.275393             0.00541973852             0.00104305027           
       3.278034             0.00582551831             0.00108200134           
       3.280674             0.00734325532             0.00131822681           
       3.283314             0.00757303061             0.00119726503           
       3.285955             0.00401930027            0.000899949111           
       3.288595              0.0037252003            0.000963900438           
       3.291235             0.00605296968             0.00126308074           
       3.293876             0.00406067378             0.00104940294           
       3.296516             0.00473211963             0.00108755809           
       3.299157              0.0073142539             0.00133511315           
       3.301797             0.00570902495             0.00134548755           
       3.304437             0.00712670963             0.00130242321           
       3.307078             0.00430231211             0.00111472397           
       3.309718             0.00335404451             0.00101591201           
       3.312359             0.00429754501             0.00115023096           
       3.314999             0.00596799366              0.0013345684           
       3.317639             0.00603065414             0.00128303365           
       3.320280             0.00614750405             0.00137728183           
       3.322920             0.00571645991             0.00135047252           
       3.325560             0.00538861481             0.00131206603           
       3.328201             0.00542040691             0.00118515433           
       3.330841             0.00729618241             0.00167347678           
       3.333482             0.00789277803             0.00164522044           
       3.336122             0.00684178723             0.00153247544           
       3.338762              0.0096341153              0.0021006557           
       3.341403             0.00538334237             0.00150045797           
       3.344043             0.00499464094             0.00138758153           
       3.346683             0.00641925849             0.00160597904           
       3.349324              0.0076348436             0.00196920502           
       3.351964             0.00393413233             0.00149479075           
       3.354605             0.00596889406             0.00210570276           
       3.357245             0.00717031228             0.00208198178           
       3.359885             0.00620763664             0.00155044586           
       3.362526             0.00719159887             0.00208691337           
       3.365166             0.00649947567             0.00187124946           
       3.367807             0.00889227217             0.00280117282           
       3.370447             0.00909226322             0.00234959578           
       3.373087             0.00483142844             0.00183156437           
       3.375728             0.00877813513             0.00278628008           
       3.378368             0.00779526736             0.00389680834           
       3.381008             0.00321885213             0.00186690486           
       3.383649              0.0062821479             0.00209223379           
       3.386289              0.0136741233             0.00365330912           
       3.388930             0.00981425451             0.00489563068           
       3.391570             0.00117896654             0.00120030943           
       3.394210             0.00785886022             0.00392186128           
       3.396851              0.0121144049             0.00544674803           
       3.399491             0.00459770904             0.00335644145           
       3.402131             0.00484353858             0.00487400762           
       3.404772             0.00957501205             0.00969380469           
       3.407412                       nan                       nan           
       3.410053           -2.62799162e-05                         0           
       3.412693                       nan                       nan           
       3.415333           -2.63301366e-05                         0           
