################################################################################
# EDF_DataBlockID                     0.Image.Psd
# EDF_BinarySize                      2105344
# EDF_HeaderSize                      2560
# ByteOrder                           LowByteFirst
# DataType                            FloatValue
# Dim_1                               512
# Dim_2                               1028
# Image                               0
# HeaderID                            EH:000000:000000:000000
# Size                                2105344
# Center_1                            304.9000
# Center_2                            588.7000
# Comment                             Xenocs_Cell_Window - 20251028_20perc_iodine_1.23mg
# DDummy                              0.6
# Date                                2025-10-31T23:59:16
# Delta                               21.910000
# Dummy                               -1.5
# ExposureTime                        360
# Gamma                               15.360000
# Intensity1                          8.61562e-10
# PSize_1                             7.5e-05
# PSize_2                             7.5e-05
# Pressure                            0.0327864
# SampleDistance                      0.115750
# SampleEnvKind                       large
# SampleEnvPN                         ElectroChemical cell
# SampleEnvSN                         1141
# Thickness                           0
# Wavelength                          1.541891e-10
# Wavelength                          1.54189e-10
# aux                                 0
# aux_dial                            0.002375
# beamx                               588.434
# beamx_dial                          588.434
# beamz                               657.808
# beamz_dial                          657.808
# det0x                               0
# det0x_dial                          6.36945
# det0xvd                             0
# det0xvd_dial                        0
# det0y                               450.002
# det0y_dial                          481.635
# det0z                               0
# det0z_dial                          1.23302
# det0zvd                             0
# det0zvd_dial                        0
# mag                                 1.818
# mag_dial                            1.818
# om                                  0.2499
# om_dial                             -0.610199
# phi                                 -0.0120535
# phi_dial                            0
# ry                                  0.599993
# ry_dial                             0.599993
# s1bot                               0.8
# s1bot_dial                          -1.66094
# s1hl                                0.8
# s1hl_dial                           -0.608437
# s1hr                                0.8
# s1hr_dial                           0.970938
# s1top                               0.8
# s1top_dial                          -0.461562
# s2bot                               0.45
# s2bot_dial                          1.36109
# s2hl                                0.45
# s2hl_dial                           -0.83375
# s2hr                                0.45
# s2hr_dial                           -0.118594
# s2top                               0.45
# s2top_dial                          1.44734
# w2theta                             32
# w2theta_dial                        32
# waxsch                              19.2605
# waxsch_dial                         -32.7355
# waxsh                               137.085
# waxsh_dial                          -43.5338
# waxsth                              26.0607
# waxsth_dial                         -19.4086
# waxsz                               67.0407
# waxsz_dial                          -23.7954
# wind                                65.9854
# wind_dial                           66.0041
# wpsi                                124
# wpsi_dial                           124
# wstod                               115
# wstod_dial                          115
# x                                   0
# x_dial                              1.00969
# z                                   0
# z_dial                              13.3172
# CountCutoff                         6807993
# DetectorModel                       Dectris EIGER2 Si 500K, S/N E-01-0554
# ThresholdSetting                    4023.88989258
# Saturation                          0
# FlatField                           Corrected
# BackgroundReductionExtra            0.02
# BackgroundCorrectionConstant        0.0026712
# Detector                            0
# Monitor                             0
# Pil_Roi0                            0
# SumForIntensity1                    3.10162e+08
# TransmittedFlux                     861562
# det                                 0
# mon                                 0
# pilai0                              3.10162e+08
# pilai1                              788893
# pilct0                              5.3636e+08
# pilct1                              788893
# pilroi0                             0
# pilroi1                             0
# sec                                 1
# title                               20251028_20perc_iodine_1.23mg_1_00742.edf
# usaxs0                              0
# Operation                           Azimuthal average I(q)
# Error_model                         ErrorModel.poisson
# Geometrical_correction              True
# Transmission_correction             True
# Thickness_correction                False
# Binning mode                        Uniform
# Binning factor                      1.0
# Psi                                 0.0
# Omega                               0.2499
# MaskInvalidPixels                   True
# DetectorEdge                        3
# MaskFiles                           ['WAXS_corrected.edf']
################################################################################
    q(A⁻¹)                Intensity(a.u.)            Sigma_I(a.u.)            
       0.693100           -2.35655737e-05                         0           
       0.695741              0.0055813426             0.00404900078           
       0.698381             0.00423888337             0.00432232193           
       0.701021              0.0175216518              0.0124231316           
       0.703662             0.00568796038             0.00408565137           
       0.706302              0.0068228062             0.00346434948           
       0.708942             0.00850776518             0.00499308525           
       0.711583             0.00872167092             0.00437770886           
       0.714223              0.0116501822             0.00584135104           
       0.716864             0.00622119498             0.00279289519           
       0.719504             0.00288945928             0.00205396896           
       0.722144             0.00375680638              0.0021689114           
       0.724785             0.00636537733             0.00225203888           
       0.727425             0.00437507974             0.00252578769           
       0.730065             0.00873735946             0.00252484763           
       0.732706             0.00404460173             0.00144255273           
       0.735346              0.0069955911             0.00247303428           
       0.737987             0.00825632941             0.00189849084           
       0.740627             0.00675273028             0.00256177619           
       0.743267             0.00824402739             0.00189589096           
       0.745908             0.00670218563             0.00185464415           
       0.748548              0.0108653112             0.00217664641           
       0.751189             0.00554160937             0.00209460089           
       0.753829             0.00869614653             0.00241196976           
       0.756469             0.00692384107             0.00173546287           
       0.759110             0.00576217586             0.00166842071           
       0.761750             0.00525779134             0.00140920655           
       0.764390             0.00822469393              0.0018447534           
       0.767031             0.00648842696             0.00141888539           
       0.769671             0.00627306716             0.00174033244           
       0.772312              0.0058626855              0.0012808312           
       0.774952             0.00816257229             0.00204087702           
       0.777592               0.008072213             0.00147828038           
       0.780233             0.00668452813             0.00162300424           
       0.782873             0.00648290141             0.00152866251           
       0.785513             0.00451226105             0.00136341413           
       0.788154             0.00605813672             0.00132155149           
       0.790794             0.00659115004             0.00164798854           
       0.793435             0.00662229495             0.00148398006           
       0.796075             0.00802014363             0.00157318951           
       0.798715             0.00816343077             0.00187559502           
       0.801356             0.00697671107               0.001492327           
       0.803996             0.00634588755              0.0014510338           
       0.806637              0.0058717009             0.00111077354           
       0.809277             0.00762654333             0.00137021516           
       0.811917             0.00884740315             0.00137965486           
       0.814558             0.00691997322             0.00126813243           
       0.817198             0.00565681335             0.00108928962           
       0.819838             0.00748465594             0.00126810605           
       0.822479              0.0062366412              0.0013592963           
       0.825119             0.00899250466             0.00138922571           
       0.827760             0.00858990084              0.0013753695           
       0.830400             0.00756149585             0.00121451918           
       0.833040             0.00856385859             0.00135415669           
       0.835681             0.00577433556             0.00126409664           
       0.838321              0.0101353521             0.00140566686           
       0.840961             0.00578330481             0.00115690318           
       0.843602             0.00481644655            0.000968190971           
       0.846242             0.00756436355             0.00121316276           
       0.848883             0.00549627296             0.00105826345           
       0.851523             0.00753607035             0.00122378068           
       0.854163             0.00787541594             0.00133041472           
       0.856804             0.00744163795             0.00116281466           
       0.859444             0.00624963146             0.00104410428           
       0.862085             0.00683439947             0.00113799115           
       0.864725             0.00757266138             0.00122590559           
       0.867365             0.00597905762             0.00101010152           
       0.870006             0.00587030075            0.000953754752           
       0.872646             0.00648560036             0.00105125333           
       0.875286             0.00975049454             0.00124007691           
       0.877927             0.00674647629            0.000995359874           
       0.880567             0.00631510084            0.000997700172           
       0.883208                0.00661472             0.00101147417           
       0.885848             0.00796087652             0.00115213334           
       0.888488             0.00746461284             0.00104640596           
       0.891129             0.00847962132             0.00114516212           
       0.893769             0.00959187883             0.00116561285           
       0.896410             0.00721938165            0.000942826214           
       0.899050             0.00715776608             0.00103241839           
       0.901690              0.0061728009             0.00104436392           
       0.904331               0.007783515             0.00103969109           
       0.906971             0.00930616399              0.0012094173           
       0.909611              0.0062289258            0.000900723558           
       0.912252             0.00721694262              0.0010014234           
       0.914892             0.00929567031             0.00124198662           
       0.917533             0.00710799696             0.00102740018           
       0.920173             0.00753934588            0.000981722651           
       0.922813              0.0088308982             0.00111496245           
       0.925454             0.00649453104            0.000860997971           
       0.928094             0.00843118438              0.0010473087           
       0.930734             0.00798470408             0.00109728256           
       0.933375             0.00559096621            0.000909163486           
       0.936015              0.0080253526            0.000989278897           
       0.938656             0.00802931827             0.00106152468           
       0.941296             0.00841504635            0.000984870631           
       0.943936             0.00886527906            0.000991318896           
       0.946577             0.00653707451            0.000845625697           
       0.949217             0.00638940497            0.000768796204           
       0.951858             0.00719195465            0.000853824046           
       0.954498              0.0065124205            0.000940438722           
       0.957138             0.00683287266            0.000912593622           
       0.959779             0.00769723304            0.000954837483           
       0.962419             0.00654741711            0.000874779733           
       0.965059             0.00723652653             0.00096724501           
       0.967700             0.00701651797            0.000975475462           
       0.970340             0.00668916029            0.000842822326           
       0.972981             0.00685156036            0.000777157585           
       0.975621             0.00669884403            0.000817495871           
       0.978261             0.00818776984            0.000858761247           
       0.980902             0.00807478382             0.00102035119           
       0.983542             0.00779271478            0.000887665088           
       0.986182             0.00683735678            0.000816336436           
       0.988823             0.00791176487            0.000852671507           
       0.991463             0.00793973463            0.000911318126           
       0.994104               0.010147648             0.00100504114           
       0.996744              0.0100512207             0.00102025167           
       0.999384             0.00837123599            0.000832707925           
       1.002025              0.0082619401            0.000923324863           
       1.004665             0.00853584695            0.000857677902           
       1.007306               0.009562396            0.000903141097           
       1.009946             0.00753867645            0.000817825021           
       1.012586             0.00781610182            0.000811036954           
       1.015227             0.00864722015            0.000916462406           
       1.017867             0.00834159708            0.000865078741           
       1.020507             0.00690815018            0.000762557295           
       1.023148             0.00784254437             0.00087670309           
       1.025788             0.00764019795            0.000793429491           
       1.028429             0.00831466597             0.00086716282           
       1.031069             0.00647703966            0.000720234446           
       1.033709              0.0068600809            0.000787924309           
       1.036350             0.00861729186            0.000793136122           
       1.038990             0.00710890737            0.000733621542           
       1.041630             0.00799705586            0.000811566718           
       1.044271             0.00814783208            0.000770410558           
       1.046911             0.00692696141            0.000747195863           
       1.049552             0.00695173236            0.000786426435           
       1.052192              0.0085428479            0.000796056678           
       1.054832              0.0071747045             0.00073616898           
       1.057473             0.00809116843            0.000770663938           
       1.060113             0.00655980314            0.000676753547           
       1.062754             0.00821377007            0.000773169388           
       1.065394             0.00902665313            0.000856935121           
       1.068034             0.00936335753            0.000794102047           
       1.070675             0.00887724283            0.000806556927           
       1.073315              0.0090534039            0.000826195396           
       1.075955             0.00831527258            0.000747503726           
       1.078596             0.00850954524            0.000803675069           
       1.081236             0.00828353756            0.000759282912           
       1.083877             0.00786528635             0.00073322877           
       1.086517             0.00760955702            0.000773348494           
       1.089157             0.00736399212            0.000789381988           
       1.091798             0.00920330082            0.000773680293           
       1.094438             0.00833764913            0.000734019425           
       1.097078             0.00784358698            0.000682824708           
       1.099719             0.00702697325            0.000699075264           
       1.102359              0.0088526812            0.000734836172           
       1.105000              0.0086893349            0.000814073993           
       1.107640             0.00844296148            0.000767272749           
       1.110280             0.00805618937            0.000683854605           
       1.112921             0.00885502309            0.000770168051           
       1.115561             0.00799997355            0.000695742911           
       1.118202             0.00892190451            0.000735431672           
       1.120842             0.00809491586            0.000736249656           
       1.123482             0.00749957251            0.000705563655           
       1.126123             0.00766939108            0.000684372997           
       1.128763             0.00896987767            0.000745200578           
       1.131403             0.00740009598            0.000652212206           
       1.134044              0.0074266172            0.000672329502           
       1.136684             0.00795619144            0.000741937124           
       1.139325             0.00944574182            0.000744707836           
       1.141965              0.0100520167            0.000773314425           
       1.144605             0.00837694634            0.000673122987           
       1.147246              0.0103539868            0.000765872544           
       1.149886             0.00951912516            0.000731739923           
       1.152527             0.00792411509            0.000677335207           
       1.155167             0.00989490194            0.000719919732           
       1.157807             0.00976434551            0.000766773081           
       1.160448             0.00902942565            0.000720043916           
       1.163088             0.00882134062            0.000678855902           
       1.165728             0.00876038846            0.000694582028           
       1.168369             0.00913348681            0.000715770853           
       1.171009             0.00902019372             0.00069031457           
       1.173650             0.00929346629            0.000719078405           
       1.176290             0.00759782669            0.000635369471           
       1.178930             0.00903015764            0.000678884259           
       1.181571             0.00902183525            0.000692027663           
       1.184211              0.0108262188            0.000760766729           
       1.186851             0.00935467803            0.000691395815           
       1.189492             0.00796437075            0.000633660246           
       1.192132             0.00983677461            0.000696316606           
       1.194773             0.00918115389            0.000675651021           
       1.197413             0.00987710321            0.000671457126           
       1.200053             0.00897424144            0.000656295261           
       1.202694              0.0108176336            0.000685205613           
       1.205334             0.00891128888             0.00067022047           
       1.207975             0.00954061951            0.000661948922           
       1.210615              0.0095416911            0.000730283141           
       1.213255              0.0102191873            0.000676770162           
       1.215896             0.00929172029            0.000657021569           
       1.218536              0.0104189691             0.00066897911           
       1.221176             0.00979496177            0.000705201233           
       1.223817             0.00961153764            0.000655756788           
       1.226457             0.00826728898            0.000620426542           
       1.229098             0.00930581268            0.000658210497           
       1.231738              0.0106812352            0.000708648036           
       1.234378              0.0103237481            0.000654643416           
       1.237019              0.0106071182            0.000683799556           
       1.239659              0.0103889859            0.000670836945           
       1.242299             0.00926300631            0.000625393341           
       1.244940              0.0107650525            0.000655696636           
       1.247580              0.0104343657            0.000665289031           
       1.250221               0.008798879            0.000607159722           
       1.252861              0.0102824353            0.000624850921           
       1.255501              0.0107911796            0.000695050348           
       1.258142              0.0104663658            0.000643219898           
       1.260782              0.0105167355            0.000658716762           
       1.263423             0.00971954935             0.00060849018           
       1.266063              0.0102294274            0.000639834851           
       1.268703              0.0108561925            0.000653675431           
       1.271344              0.0126978688             0.00073090924           
       1.273984              0.0102286276             0.00063357079           
       1.276624              0.0121555128            0.000677698625           
       1.279265              0.0110857537             0.00065793878           
       1.281905             0.00984428661            0.000622756398           
       1.284546               0.011161967            0.000640971981           
       1.287186             0.00930776219            0.000574258323           
       1.289826             0.00975099578            0.000619463918           
       1.292467              0.0101276485            0.000617409387           
       1.295107             0.00995626063            0.000606081978           
       1.297747              0.0118912562            0.000633827905           
       1.300388              0.0112651537            0.000672516339           
       1.303028              0.0104110254            0.000617205473           
       1.305669              0.0106132341            0.000638008762           
       1.308309               0.010744331            0.000635615504           
       1.310949              0.0116152059            0.000660209211           
       1.313590              0.0105704636              0.0006101307           
       1.316230              0.0105388772            0.000650120656           
       1.318871              0.0109091487            0.000647801906           
       1.321511              0.0120867995            0.000669232686           
       1.324151              0.0102486442             0.00059797737           
       1.326792              0.0113846061            0.000634143085           
       1.329432             0.00955375206            0.000576819117           
       1.332072              0.0111046398            0.000612609702           
       1.334713              0.0108029466            0.000623625989           
       1.337353              0.0126017436            0.000645945758           
       1.339994              0.0108463052             0.00062887287           
       1.342634              0.0113193839            0.000616060704           
       1.345274              0.0119032428            0.000653801143           
       1.347915              0.0108918685            0.000608138546           
       1.350555              0.0118852361            0.000646391399           
       1.353195              0.0110411172            0.000626074458           
       1.355836              0.0105471327            0.000602367207           
       1.358476              0.0110541849            0.000598886619           
       1.361117               0.012523952            0.000638333529           
       1.363757              0.0117301773            0.000636636896           
       1.366397              0.0106286116             0.00058766869           
       1.369038               0.011037723            0.000604835133           
       1.371678              0.0116838736            0.000616800829           
       1.374319              0.0116784274            0.000611347111           
       1.376959              0.0105983189            0.000576533523           
       1.379599               0.011087613            0.000631971056           
       1.382240              0.0102457777            0.000570964512           
       1.384880               0.011446631            0.000639241007           
       1.387520              0.0108985348            0.000592393646           
       1.390161              0.0107163296            0.000557908703           
       1.392801              0.0111700614            0.000593465124           
       1.395442              0.0106657465            0.000587833561           
       1.398082              0.0105626684            0.000547814026           
       1.400722              0.0104332641            0.000570296803           
       1.403363              0.0111907988            0.000621718249           
       1.406003              0.0108815302            0.000573748523           
       1.408644              0.0114766175            0.000617254886           
       1.411284              0.0110677575            0.000573979908           
       1.413924              0.0116718279            0.000587250336           
       1.416565             0.00980757109            0.000536198075           
       1.419205              0.0110681857            0.000594201143           
       1.421845              0.0109256313            0.000590015541           
       1.424486              0.0116730244            0.000586217975           
       1.427126              0.0108730532            0.000587730051           
       1.429767              0.0104543966            0.000542232001           
       1.432407              0.0107370453            0.000575078299           
       1.435047              0.0110366576            0.000547577663           
       1.437688              0.0105022731            0.000542143171           
       1.440328              0.0111076127            0.000569040893           
       1.442968              0.0111930075            0.000584022685           
       1.445609              0.0103047996            0.000542595082           
       1.448249               0.010353573            0.000557648254           
       1.450890              0.0111164267            0.000574055539           
       1.453530              0.0104338128            0.000581845947           
       1.456170              0.0110742695            0.000581768328           
       1.458811               0.011431159             0.00056519207           
       1.461451              0.0101522485            0.000534035117           
       1.464092              0.0104654526              0.0005457551           
       1.466732              0.0104558872            0.000540817967           
       1.469372              0.0108979444            0.000539210468           
       1.472013              0.0111111941            0.000587211543           
       1.474653              0.0108421269             0.00057110992           
       1.477293             0.00984064252            0.000555562009           
       1.479934               0.010240778            0.000540792616           
       1.482574              0.0108388148            0.000538190481           
       1.485215              0.0103052933            0.000534551706           
       1.487855               0.010701194            0.000551908729           
       1.490495             0.00990755538            0.000529092952           
       1.493136              0.0109855515            0.000549497419           
       1.495776              0.0109412898            0.000545892318           
       1.498416              0.0108041788            0.000560208891           
       1.501057              0.0111939975            0.000557658683           
       1.503697             0.00952299168            0.000502863595           
       1.506338              0.0111719487            0.000554616011           
       1.508978              0.0102485309            0.000525976838           
       1.511618              0.0100238634            0.000553988821           
       1.514259              0.0105898079            0.000549741697           
       1.516899             0.00999142554            0.000519923551           
       1.519540              0.0108157448            0.000549669237           
       1.522180               0.011388841            0.000568998835           
       1.524820              0.0110392845            0.000557055694           
       1.527461              0.0105964039            0.000548466356           
       1.530101              0.0104316943            0.000538744552           
       1.532741              0.0108603942             0.00054651306           
       1.535382              0.0109259775            0.000556985422           
       1.538022              0.0104446948            0.000513023032           
       1.540663              0.0102493751            0.000546604282           
       1.543303              0.0107577459            0.000519965484           
       1.545943             0.00966044223            0.000521522375           
       1.548584              0.0108214626            0.000561880724           
       1.551224              0.0117712483            0.000541830841           
       1.553864              0.0109073478            0.000551135453           
       1.556505              0.0105741833            0.000524216819           
       1.559145             0.00974275731            0.000509349894           
       1.561786              0.0105309899             0.00052996138           
       1.564426              0.0101073731            0.000503043889           
       1.567066               0.010227665            0.000530220709           
       1.569707             0.00940923396            0.000499428543           
       1.572347              0.0098221064            0.000527158112           
       1.574988              0.0101693858            0.000510559536           
       1.577628              0.0096308534            0.000518099346           
       1.580268             0.00978250057            0.000505919759           
       1.582909             0.00966035395            0.000532896406           
       1.585549             0.00984131127            0.000522249088           
       1.588189                0.01014278            0.000518616224           
       1.590830              0.0099144597            0.000512102261           
       1.593470             0.00939867149            0.000518346242           
       1.596111             0.00923240428            0.000501570695           
       1.598751             0.00956990097            0.000494808583           
       1.601391              0.0087121598            0.000482529625           
       1.604032             0.00858983977            0.000489146554           
       1.606672              0.0104751733            0.000524822344           
       1.609312              0.0101295916            0.000538740373           
       1.611953             0.00896586975            0.000495984681           
       1.614593             0.00905610872            0.000488963915           
       1.617234             0.00922533243            0.000511463522           
       1.619874             0.00874942955            0.000496128928           
       1.622514             0.00905466267            0.000497823762           
       1.625155             0.00982599315            0.000521657862           
       1.627795             0.00937428117             0.00049704189           
       1.630436             0.00938248634            0.000494662846           
       1.633076             0.00901176879            0.000491150125           
       1.635716             0.00955206977            0.000497791652           
       1.638357             0.00849656847            0.000470721325           
       1.640997             0.00949759296             0.00051275418           
       1.643637             0.00911088974            0.000488704091           
       1.646278             0.00809738259             0.00047519679           
       1.648918             0.00903683147            0.000503375849           
       1.651559             0.00913419269            0.000510008157           
       1.654199             0.00951852777             0.00050635577           
       1.656839             0.00849119374            0.000478417237           
       1.659480             0.00874198188            0.000503659711           
       1.662120             0.00854172163            0.000468899656           
       1.664761              0.0094491882            0.000512285543           
       1.667401             0.00803624374            0.000451546014           
       1.670041             0.00862910709            0.000475040267           
       1.672682             0.00897556489            0.000482491523           
       1.675322             0.00883603088            0.000475647988           
       1.677962             0.00910198249             0.00047742769           
       1.680603             0.00919612308            0.000481367066           
       1.683243             0.00876872157            0.000490407332           
       1.685884             0.00908910674            0.000502973079           
       1.688524             0.00859564413            0.000479674003           
       1.691164             0.00878305661            0.000484985072           
       1.693805             0.00903651382            0.000497337115           
       1.696445             0.00879922806            0.000493610784           
       1.699085             0.00883073197            0.000477924083           
       1.701726             0.00863633288            0.000455300657           
       1.704366             0.00850423067            0.000475964261           
       1.707007             0.00896621299             0.00047782727           
       1.709647             0.00903271631            0.000485012162           
       1.712287             0.00973103478            0.000507793111           
       1.714928             0.00904105007            0.000493405776           
       1.717568             0.00797363669            0.000436491455           
       1.720209             0.00838485576            0.000468835615           
       1.722849             0.00792453037            0.000453441278           
       1.725489             0.00878217852            0.000477749165           
       1.728130             0.00828010737            0.000492987096           
       1.730770             0.00851907994            0.000474913637           
       1.733410             0.00897853631             0.00047988829           
       1.736051             0.00861055494            0.000473222481           
       1.738691             0.00930976082            0.000482086413           
       1.741332             0.00800536146            0.000460111444           
       1.743972             0.00871209813            0.000495673186           
       1.746612             0.00829135368            0.000464337025           
       1.749253             0.00832346295            0.000474422903           
       1.751893             0.00898456075            0.000489285662           
       1.754533             0.00847944632            0.000474888926           
       1.757174             0.00873947473            0.000477600588           
       1.759814             0.00844905231             0.00046247975           
       1.762455             0.00857186413             0.00047438243           
       1.765095             0.00905605203            0.000466445153           
       1.767735             0.00812082453            0.000455330416           
       1.770376             0.00910027888            0.000483278375           
       1.773016             0.00936781666            0.000487046464           
       1.775657             0.00887156717             0.00046715078           
       1.778297             0.00893966327             0.00046490224           
       1.780937              0.0086471085            0.000482608093           
       1.783578             0.00892747122            0.000478108103           
       1.786218             0.00808174269            0.000474736222           
       1.788858             0.00744425675            0.000432736788           
       1.791499             0.00832212028            0.000452402518           
       1.794139             0.00848986452            0.000453231949           
       1.796780             0.00895521807            0.000463243638           
       1.799420             0.00933326347            0.000470301586           
       1.802060              0.0100432008            0.000491801204           
       1.804701              0.0089858251            0.000446419677           
       1.807341              0.0083005948            0.000450849698           
       1.809981             0.00964722677            0.000487667672           
       1.812622             0.00994367788            0.000486190312           
       1.815262             0.00862194447            0.000462342891           
       1.817903             0.00904601046            0.000466559548           
       1.820543             0.00830674687            0.000454055699           
       1.823183              0.0094921932            0.000485107633           
       1.825824              0.0101933794            0.000480264783           
       1.828464             0.00914655116            0.000474290477           
       1.831105             0.00822156136            0.000437236535           
       1.833745             0.00890649977             0.00046480456           
       1.836385             0.00760931085            0.000441885796           
       1.839026             0.00938434475              0.0004891759           
       1.841666             0.00753553472            0.000436794739           
       1.844306             0.00930110875            0.000472033822           
       1.846947             0.00901096082             0.00046868562           
       1.849587             0.00861545272            0.000506057139           
       1.852228             0.00877679999            0.000461866083           
       1.854868             0.00840684526            0.000477499805           
       1.857508             0.00869079273            0.000480735093           
       1.860149             0.00853875315            0.000485169003           
       1.862789             0.00793071212             0.00045131866           
       1.865429             0.00802738413            0.000473970233           
       1.868070             0.00862677522            0.000484798181           
       1.870710             0.00877386705            0.000477642062           
       1.873351             0.00870265809            0.000481580571           
       1.875991             0.00875385272            0.000490877556           
       1.878631             0.00801176727            0.000460616338           
       1.881272              0.0086912542            0.000476537097           
       1.883912             0.00853214511            0.000491376041           
       1.886553             0.00882351272            0.000494109102           
       1.889193              0.0092092768             0.00050393226           
       1.891833             0.00912381649            0.000520919335           
       1.894474             0.00977003664            0.000534356958           
       1.897114              0.0088111924            0.000491057206           
       1.899754             0.00939952746            0.000509308693           
       1.902395             0.00863485084            0.000478608512           
       1.905035             0.00799393012            0.000487750655           
       1.907676             0.00829160555            0.000468187398           
       1.910316             0.00910820533            0.000503729793           
       1.912956             0.00956255381            0.000504785625           
       1.915597             0.00823213365            0.000470973741           
       1.918237             0.00936867546            0.000518892745           
       1.920878             0.00846368744            0.000491175632           
       1.923518             0.00833220826            0.000487552393           
       1.926158               0.008223476            0.000478075458           
       1.928799              0.0083302144            0.000475598443           
       1.931439             0.00846028581            0.000491868631           
       1.934079             0.00719269205            0.000472789863           
       1.936720             0.00899180802            0.000489784431           
       1.939360             0.00840908761            0.000505316593           
       1.942001             0.00856392751            0.000467393167           
       1.944641             0.00874603216            0.000481640354           
       1.947281              0.0089903777            0.000483820904           
       1.949922             0.00843481114            0.000484056965           
       1.952562             0.00892117932            0.000513421623           
       1.955202             0.00830570584             0.00049479076           
       1.957843             0.00801562778            0.000473468361           
       1.960483             0.00766455558            0.000484048815           
       1.963124             0.00808264146            0.000486877754           
       1.965764             0.00817922877            0.000461874564           
       1.968404             0.00748088535            0.000437543742           
       1.971045              0.0083003674             0.00046989764           
       1.973685             0.00820315865             0.00048999285           
       1.976326             0.00790847395            0.000474499008           
       1.978966             0.00770664869            0.000472515895           
       1.981606             0.00769235244            0.000481922898           
       1.984247             0.00723851753            0.000464416978           
       1.986887             0.00793634679            0.000480462878           
       1.989527             0.00870585392            0.000497797552           
       1.992168             0.00897817982            0.000524523318           
       1.994808             0.00755490067            0.000479092519           
       1.997449             0.00806904957            0.000484958355           
       2.000089              0.0089379035            0.000508376923           
       2.002729             0.00784208144            0.000476479221           
       2.005370             0.00735987132            0.000456630804           
       2.008010             0.00799597529            0.000496727179           
       2.010650             0.00804607247            0.000501998911           
       2.013291              0.0082510023            0.000487735183           
       2.015931             0.00789277158            0.000473657713           
       2.018572             0.00769648178            0.000500282323           
       2.021212             0.00904416986             0.00053257355           
       2.023852             0.00744821269              0.0004574254           
       2.026493             0.00831728572            0.000504972195           
       2.029133             0.00823157132            0.000492253863           
       2.031774              0.0077198992            0.000500295759           
       2.034414             0.00779516195            0.000462580135           
       2.037054             0.00691413247            0.000446697991           
       2.039695             0.00844179723            0.000489857909           
       2.042335             0.00891945249             0.00052327389           
       2.044975             0.00838588831            0.000501228208           
       2.047616             0.00673032244            0.000447918238           
       2.050256             0.00852768961            0.000508964099           
       2.052897             0.00755809226            0.000487990217           
       2.055537             0.00823782798            0.000492375183           
       2.058177             0.00688523293            0.000440809971           
       2.060818             0.00696013832             0.00046428769           
       2.063458              0.0080331316            0.000519792241           
       2.066098             0.00754342826            0.000475157594           
       2.068739             0.00861621363            0.000515715591           
       2.071379             0.00799249621            0.000509653029           
       2.074020              0.0083312894            0.000509034246           
       2.076660             0.00742558573            0.000484454451           
       2.079300             0.00839048225            0.000527586735           
       2.081941             0.00781373532            0.000466167659           
       2.084581              0.0075219466            0.000482769883           
       2.087222             0.00757505305            0.000467226083           
       2.089862             0.00799414485            0.000522767974           
       2.092502             0.00703433746            0.000475355394           
       2.095143             0.00785775807            0.000518810932           
       2.097783             0.00783543707            0.000501582381           
       2.100423             0.00801680894             0.00048888266           
       2.103064             0.00770098021            0.000497188672           
       2.105704             0.00768244204            0.000494130145           
       2.108345             0.00715125764            0.000458021056           
       2.110985             0.00709576052            0.000487297725           
       2.113625             0.00752622228            0.000506240445           
       2.116266             0.00704439517            0.000496716387           
       2.118906             0.00748458215            0.000477155811           
       2.121546             0.00762758639            0.000472495639           
       2.124187             0.00747793942            0.000491085088           
       2.126827             0.00878074479            0.000538085951           
       2.129468              0.0077963762            0.000508323618           
       2.132108             0.00662278321            0.000455819644           
       2.134748             0.00826701323            0.000507292964           
       2.137389             0.00677570267            0.000479125645           
       2.140029             0.00739574549            0.000448139172           
       2.142670             0.00784727897            0.000493339671           
       2.145310             0.00710011273            0.000456745033           
       2.147950             0.00775607746            0.000491351916           
       2.150591             0.00702574727            0.000462920604           
       2.153231             0.00864374128            0.000528532733           
       2.155871              0.0077748212            0.000484254025           
       2.158512             0.00703023329            0.000480480584           
       2.161152             0.00742429399             0.00047828966           
       2.163793             0.00794513485            0.000492554719           
       2.166433             0.00835290469            0.000518619095           
       2.169073             0.00702663956            0.000465077632           
       2.171714             0.00721790647            0.000467841222           
       2.174354             0.00778083193             0.00050755578           
       2.176995               0.007392469            0.000492645199           
       2.179635             0.00679066379            0.000498946016           
       2.182275             0.00751043913            0.000495421784           
       2.184916             0.00656316346            0.000447319442           
       2.187556             0.00710726026            0.000460826499           
       2.190196             0.00700791621            0.000478180076           
       2.192837             0.00752334991            0.000492757551           
       2.195477             0.00697026416            0.000452187833           
       2.198118             0.00768244578            0.000486891267           
       2.200758              0.0071565877            0.000482121944           
       2.203398             0.00684485588            0.000474521112           
       2.206039             0.00784284552            0.000480719775           
       2.208679             0.00715714506            0.000469911949           
       2.211319             0.00749410647            0.000483619111           
       2.213960             0.00763677369            0.000494741874           
       2.216600             0.00738589428            0.000503322547           
       2.219241             0.00727991548            0.000477576702           
       2.221881             0.00821754665            0.000508443935           
       2.224521             0.00773498059            0.000499333878           
       2.227162             0.00702929664             0.00046648054           
       2.229802             0.00720799956            0.000487160046           
       2.232443             0.00807858134            0.000507606477           
       2.235083             0.00744241688            0.000501581833           
       2.237723             0.00679730297            0.000460006325           
       2.240364             0.00731893976            0.000489090333           
       2.243004             0.00675024506            0.000465955125           
       2.245644              0.0077952909            0.000505738383           
       2.248285             0.00694186666            0.000467691368           
       2.250925             0.00712022749            0.000476538881           
       2.253566             0.00743298872            0.000520525424           
       2.256206             0.00800475792            0.000529373956           
       2.258846             0.00734748304            0.000482463638           
       2.261487             0.00694867001            0.000492455467           
       2.264127             0.00723089692            0.000485168157           
       2.266767             0.00710189531            0.000493631285           
       2.269408             0.00766471545            0.000514918359           
       2.272048             0.00724872329            0.000497761146           
       2.274689             0.00764895161            0.000518055422           
       2.277329             0.00631437262            0.000443190478           
       2.279969             0.00801524634            0.000531503411           
       2.282610             0.00779381734            0.000509533405           
       2.285250             0.00674506171            0.000453695127           
       2.287891             0.00707869073            0.000498314553           
       2.290531             0.00660076115            0.000487666928           
       2.293171             0.00759750548            0.000509637153           
       2.295812             0.00783986356            0.000515620989           
       2.298452             0.00763649777            0.000532163132           
       2.301092             0.00692628778            0.000470891756           
       2.303733             0.00799844783            0.000526444838           
       2.306373             0.00646680243            0.000480818315           
       2.309014             0.00745383911            0.000506139674           
       2.311654             0.00704184114            0.000513376152           
       2.314294             0.00757469326            0.000490543939           
       2.316935             0.00756909731            0.000492388601           
       2.319575             0.00738568616            0.000509620311           
       2.322215             0.00767655899            0.000541467849           
       2.324856             0.00759812286            0.000495273717           
       2.327496             0.00718685761             0.00051218067           
       2.330137             0.00692449084            0.000481089162           
       2.332777             0.00688134782             0.00049450647           
       2.335417             0.00729906406            0.000494091616           
       2.338058             0.00670591219            0.000487737511           
       2.340698              0.0067994109            0.000487266468           
       2.343339             0.00659988855            0.000490628306           
       2.345979             0.00692723126            0.000475545189           
       2.348619             0.00698072093            0.000494827517           
       2.351260             0.00762626136            0.000514187887           
       2.353900             0.00733833439            0.000502790206           
       2.356540             0.00717363773            0.000496410378           
       2.359181             0.00694286405            0.000481513856           
       2.361821             0.00726161831            0.000475687032           
       2.364462             0.00664879176            0.000476053432           
       2.367102             0.00681331027            0.000495236738           
       2.369742             0.00715661716            0.000534242294           
       2.372383             0.00779460598            0.000504857404           
       2.375023             0.00647185981            0.000483591262           
       2.377663             0.00726320979            0.000489838347           
       2.380304             0.00666204967            0.000476951316           
       2.382944             0.00665615791             0.00045408011           
       2.385585              0.0069847258            0.000496093149           
       2.388225             0.00778474854            0.000521273087           
       2.390865             0.00676686557            0.000481008265           
       2.393506             0.00681010001            0.000473438704           
       2.396146             0.00639152796            0.000495922168           
       2.398787             0.00773847747            0.000502887508           
       2.401427             0.00745856628            0.000476542698           
       2.404067             0.00652604683            0.000455700992           
       2.406708              0.0067116837            0.000456595099           
       2.409348             0.00713145496            0.000499223884           
       2.411988             0.00779136482            0.000511259138           
       2.414629             0.00677751304            0.000491687023           
       2.417269             0.00804232921            0.000541858167           
       2.419910             0.00693528479            0.000504351645           
       2.422550             0.00678116653            0.000477140933           
       2.425190             0.00706021812            0.000513200613           
       2.427831             0.00685440239            0.000502822492           
       2.430471             0.00740764593            0.000497992791           
       2.433112             0.00717530749            0.000477260911           
       2.435752             0.00629309719            0.000473022318           
       2.438392             0.00663828682            0.000468917767           
       2.441033             0.00737084023            0.000523661547           
       2.443673             0.00651909726            0.000492855564           
       2.446313             0.00667540773            0.000499168967           
       2.448954             0.00686935314            0.000482133506           
       2.451594             0.00660003275            0.000508142236           
       2.454235             0.00673923369            0.000481768656           
       2.456875              0.0072003966            0.000521065074           
       2.459515             0.00812456668            0.000567823719           
       2.462156             0.00745968198            0.000513700093           
       2.464796             0.00707121282            0.000493692884           
       2.467436             0.00654698506            0.000491247614           
       2.470077             0.00670915329            0.000471344903           
       2.472717             0.00755244635            0.000502256991           
       2.475358              0.0068440601            0.000483107794           
       2.477998             0.00761394662            0.000500965764           
       2.480638             0.00675127893            0.000480115148           
       2.483279              0.0082490186            0.000554671767           
       2.485919             0.00698935982            0.000492049033           
       2.488560             0.00649660609            0.000473061676           
       2.491200             0.00745816101             0.00052193468           
       2.493840             0.00691410831            0.000531750352           
       2.496481             0.00727999833            0.000536713453           
       2.499121             0.00677115654            0.000503464895           
       2.501761              0.0073804434            0.000532592926           
       2.504402             0.00599359871            0.000472940137           
       2.507042             0.00720893937             0.00051483591           
       2.509683             0.00702157723            0.000500335938           
       2.512323               0.008063866             0.00056312921           
       2.514963             0.00709347093            0.000521635217           
       2.517604             0.00680669404            0.000530222434           
       2.520244             0.00697360881            0.000503142378           
       2.522884               0.010191022            0.000616932724           
       2.525525              0.0100357606            0.000619163928           
       2.528165             0.00775567026            0.000535817883           
       2.530806             0.00854584164            0.000572255001           
       2.533446                0.00783999            0.000536413681           
       2.536086             0.00745377808            0.000518353123           
       2.538727             0.00799226836             0.00051493059           
       2.541367             0.00708671739            0.000489658496           
       2.544008             0.00685365166            0.000497312566           
       2.546648             0.00775598737            0.000538112546           
       2.549288             0.00710938784             0.00052569136           
       2.551929             0.00725776966             0.00052268235           
       2.554569             0.00817380194            0.000534394882           
       2.557209             0.00800617234            0.000533743946           
       2.559850             0.00679884043            0.000493435392           
       2.562490             0.00665538385            0.000504582832           
       2.565131             0.00860035119            0.000594727277           
       2.567771             0.00821792395            0.000560512747           
       2.570411             0.00658295122            0.000496238138           
       2.573052             0.00720697459            0.000525764788           
       2.575692             0.00735537559            0.000527933918           
       2.578332             0.00703286026            0.000518364615           
       2.580973             0.00686842198            0.000507394652           
       2.583613             0.00670833793            0.000489506884           
       2.586254             0.00597836683            0.000461464856           
       2.588894             0.00660836995            0.000503826568           
       2.591534             0.00683742822             0.00053051707           
       2.594175             0.00732540725            0.000538759787           
       2.596815             0.00729395997            0.000540771956           
       2.599456             0.00731542809            0.000513565652           
       2.602096             0.00738919377            0.000520076502           
       2.604736              0.0077109487            0.000543876739           
       2.607377             0.00551563256            0.000447863482           
       2.610017             0.00662354254            0.000482198518           
       2.612657             0.00707995543            0.000530267529           
       2.615298             0.00666466154            0.000502294706           
       2.617938             0.00657741563            0.000533798357           
       2.620579             0.00689630371             0.00052471615           
       2.623219             0.00756580885            0.000548813021           
       2.625859             0.00673348856            0.000503394377           
       2.628500             0.00645294844            0.000489566165           
       2.631140             0.00646567225              0.0004975994           
       2.633780             0.00641433453             0.00049518913           
       2.636421             0.00669626034            0.000518396892           
       2.639061              0.0077149731            0.000523818381           
       2.641702              0.0062857161             0.00048376058           
       2.644342             0.00699222034            0.000512397774           
       2.646982             0.00652209238            0.000487474083           
       2.649623             0.00696092913            0.000527759801           
       2.652263              0.0079137927            0.000557076571           
       2.654904             0.00734861921            0.000537356028           
       2.657544             0.00713521122            0.000498730294           
       2.660184             0.00745993429            0.000539678378           
       2.662825             0.00709587722            0.000538556195           
       2.665465             0.00669517215            0.000505951974           
       2.668105             0.00730058248            0.000556882516           
       2.670746             0.00775175547            0.000530098515           
       2.673386             0.00914876521            0.000593498434           
       2.676027             0.00970311018            0.000601405177           
       2.678667             0.00984366331             0.00059105599           
       2.681307              0.0120598404            0.000642804232           
       2.683948              0.0138246553            0.000707126871           
       2.686588              0.0103328936            0.000601199501           
       2.689229             0.00989584013            0.000574908922           
       2.691869              0.0103562369            0.000621595457           
       2.694509             0.00911313835            0.000583417429           
       2.697150             0.00690042366            0.000499435624           
       2.699790             0.00741885133            0.000542898823           
       2.702430             0.00744382416            0.000519818699           
       2.705071             0.00646228741            0.000500470113           
       2.707711             0.00830062918            0.000550515553           
       2.710352             0.00705046089            0.000536097508           
       2.712992             0.00621869569            0.000512792266           
       2.715632             0.00622243241            0.000475912407           
       2.718273             0.00675366433            0.000513841977           
       2.720913             0.00629109458            0.000494521846           
       2.723553             0.00680791071            0.000517885166           
       2.726194             0.00684515757            0.000542839606           
       2.728834             0.00802246577            0.000587946011           
       2.731475             0.00696734899             0.00050568228           
       2.734115             0.00748791933            0.000540503015           
       2.736755             0.00742587461            0.000542689363           
       2.739396             0.00680023808            0.000516316506           
       2.742036              0.0065677296            0.000531039913           
       2.744677             0.00662119506            0.000517348105           
       2.747317             0.00753367234            0.000547911104           
       2.749957             0.00669477222            0.000520129876           
       2.752598             0.00821967442            0.000582584623           
       2.755238             0.00679511743            0.000539262554           
       2.757878             0.00757313376            0.000564320408           
       2.760519             0.00847058776            0.000590493611           
       2.763159             0.00962962903            0.000623306087           
       2.765800             0.00699161359            0.000506140501           
       2.768440             0.00798866892            0.000545013505           
       2.771080             0.00785537901            0.000544958812           
       2.773721             0.00831805148            0.000575243873           
       2.776361             0.00661521827            0.000520072461           
       2.779001             0.00766178473            0.000579627975           
       2.781642             0.00603935185            0.000510819117           
       2.784282             0.00721592298            0.000567546373           
       2.786923             0.00599852939            0.000522017351           
       2.789563             0.00638805605            0.000518831284           
       2.792203             0.00711011255            0.000522893504           
       2.794844             0.00732587985             0.00058171329           
       2.797484             0.00804557136            0.000575330334           
       2.800125             0.00708696546            0.000567777799           
       2.802765             0.00653078952             0.00053566682           
       2.805405             0.00679621274            0.000548293152           
       2.808046             0.00678166567            0.000557334447           
       2.810686             0.00707639739            0.000523135699           
       2.813326             0.00734986271            0.000553793732           
       2.815967             0.00754750166            0.000577146394           
       2.818607             0.00682999624            0.000523923363           
       2.821248             0.00631135637            0.000493182449           
       2.823888             0.00576631624            0.000489331809           
       2.826528             0.00660111886            0.000507037947           
       2.829169             0.00571932072             0.00049435019           
       2.831809             0.00729310772            0.000565830469           
       2.834449              0.0068382145            0.000551362662           
       2.837090             0.00647321836            0.000518121887           
       2.839730             0.00641006796            0.000513071059           
       2.842371             0.00687069485            0.000531952524           
       2.845011             0.00648066217            0.000520751185           
       2.847651              0.0075812547            0.000563928666           
       2.850292             0.00687307828             0.00054221399           
       2.852932             0.00678830054            0.000550603127           
       2.855573             0.00764280034            0.000566720285           
       2.858213              0.0065350838            0.000550310171           
       2.860853             0.00771652296            0.000556266625           
       2.863494             0.00721138067            0.000556766339           
       2.866134             0.00682386999            0.000562926683           
       2.868774             0.00725385077            0.000570405519           
       2.871415             0.00763378201            0.000594267406           
       2.874055             0.00756544479            0.000565497472           
       2.876696             0.00655164626            0.000540480025           
       2.879336             0.00731609145            0.000550470943           
       2.881976             0.00814436124            0.000599050667           
       2.884617             0.00741931382            0.000563366911           
       2.887257             0.00717475323            0.000556863588           
       2.889897              0.0067960812            0.000530814953           
       2.892538             0.00876488926            0.000660390646           
       2.895178             0.00588566491            0.000488901747           
       2.897819             0.00679356747             0.00053581347           
       2.900459             0.00714569907             0.00053883449           
       2.903099             0.00664499776             0.00051429469           
       2.905740             0.00670657829            0.000530039685           
       2.908380             0.00685200619            0.000541843078           
       2.911021             0.00788044257            0.000590532906           
       2.913661             0.00734368979            0.000569896288           
       2.916301             0.00580259954            0.000507065345           
       2.918942             0.00745800482            0.000549870094           
       2.921582             0.00670555144            0.000545528323           
       2.924222              0.0068251042            0.000533202611           
       2.926863             0.00782899728            0.000594837168           
       2.929503             0.00745238326             0.00058722921           
       2.932144             0.00635426662            0.000520518707           
       2.934784             0.00626852181            0.000508517591           
       2.937424             0.00733858882            0.000555860446           
       2.940065              0.0067884207            0.000509975404           
       2.942705             0.00665481344            0.000504298407           
       2.945346             0.00746371235            0.000566782018           
       2.947986             0.00707304322            0.000562593323           
       2.950626              0.0071702167            0.000563255467           
       2.953267             0.00723951399            0.000556826168           
       2.955907             0.00758401527            0.000591214537           
       2.958547             0.00764706792            0.000560452195           
       2.961188              0.0064717262             0.00053790022           
       2.963828             0.00637171154            0.000522084312           
       2.966469             0.00613869849            0.000502710801           
       2.969109             0.00652409566            0.000525929773           
       2.971749              0.0061545591            0.000507631199           
       2.974390              0.0077778977            0.000560782417           
       2.977030             0.00777513327            0.000573213013           
       2.979670              0.0100379773            0.000633520704           
       2.982311             0.00824884471            0.000595226824           
       2.984951             0.00741787714            0.000536841944           
       2.987592             0.00663783173            0.000518003071           
       2.990232             0.00734030642            0.000566506831           
       2.992872             0.00855853714             0.00057619923           
       2.995513             0.00853580301            0.000562963308           
       2.998153               0.011736945            0.000671230239           
       3.000794              0.0117051309             0.00064927369           
       3.003434              0.0111955509            0.000635942191           
       3.006074              0.0546818773             0.00138575519           
       3.008715               0.137564061             0.00212170847           
       3.011355               0.170473374             0.00227763451           
       3.013995              0.0823997363              0.0015878105           
       3.016636              0.0596394208             0.00132278801           
       3.019276                0.13046184             0.00192313521           
       3.021917               0.522892152             0.00370207593           
       3.024557                1.79989139             0.00675293219           
       3.027197                1.08354063             0.00510826017           
       3.029838               0.509685688             0.00355319159           
       3.032478               0.252973379             0.00250579867           
       3.035118              0.0731226519             0.00136528248           
       3.037759               0.104871701             0.00163292038           
       3.040399               0.153428857             0.00203736637           
       3.043040               0.586922076             0.00403363667           
       3.045680               0.362421849             0.00298220776           
       3.048320              0.0763635099              0.0013986879           
       3.050961               0.111098551              0.0017167925           
       3.053601              0.0850661156             0.00144684788           
       3.056242              0.0583007131             0.00127350766           
       3.058882              0.0528747265              0.0013009728           
       3.061522              0.0421322674             0.00113939247           
       3.064163              0.0526008629             0.00125706817           
       3.066803               0.114734199             0.00195455724           
       3.069443               0.111661058             0.00201739459           
       3.072084              0.0448090845             0.00124440844           
       3.074724              0.0417407078             0.00134129466           
       3.077365              0.0816981384              0.0019425131           
       3.080005              0.0133403872            0.000789398093           
       3.082645              0.0123031669            0.000796390426           
       3.085286              0.0137467786            0.000848459329           
       3.087926             0.00836347743            0.000656695232           
       3.090566              0.0140930494            0.000835244147           
       3.093207             0.00996387546            0.000730819917           
       3.095847             0.00935380128             0.00067869628           
       3.098488             0.00833683289            0.000710471177           
       3.101128             0.00982950471            0.000776418319           
       3.103768             0.00920370967            0.000737162027           
       3.106409             0.00930375255            0.000788791066           
       3.109049             0.00855868406            0.000726021512           
       3.111690              0.0085375343            0.000712675803           
       3.114330             0.00823470496            0.000714811908           
       3.116970             0.00851078502              0.0007322746           
       3.119611              0.0142227988             0.00100762851           
       3.122251              0.0205007956             0.00126543224           
       3.124891              0.0346539362             0.00166056709           
       3.127532              0.0222943632             0.00130300408           
       3.130172              0.0127173662             0.00100112216           
       3.132813             0.00857561641            0.000809322594           
       3.135453              0.0100121079            0.000867280476           
       3.138093             0.00766541617            0.000822257372           
       3.140734             0.00690414225              0.0007199418           
       3.143374             0.00941436693            0.000889070947           
       3.146014               0.007975573            0.000880956037           
       3.148655             0.00689740831            0.000761568396           
       3.151295             0.00678005683            0.000804636584           
       3.153936             0.00579046885            0.000718296153           
       3.156576               0.006334664            0.000741072391           
       3.159216             0.00663254013            0.000762088879           
       3.161857             0.00606679572            0.000725895789           
       3.164497             0.00938200751            0.000948475489           
       3.167138              0.0081617966             0.00091405857           
       3.169778             0.00739687354            0.000855821971           
       3.172418             0.00628622948            0.000780934037           
       3.175059             0.00593112206            0.000672492036           
       3.177699             0.00587470317            0.000708733285           
       3.180339             0.00657094636            0.000803090655           
       3.182980             0.00595836802            0.000790664302           
       3.185620             0.00663982874            0.000850024886           
       3.188261             0.00641535316            0.000850443161           
       3.190901             0.00569570371            0.000736986451           
       3.193541              0.0063961363            0.000820630611           
       3.196182             0.00583420304             0.00081678383           
       3.198822              0.0068451452            0.000885020304           
       3.201463             0.00495535397             0.00074003414           
       3.204103             0.00634663424            0.000832407106           
       3.206743             0.00666685823            0.000853068467           
       3.209384             0.00457308959            0.000763340991           
       3.212024             0.00552550149            0.000782278898           
       3.214664             0.00501301145            0.000847305443           
       3.217305             0.00711291308            0.000959396383           
       3.219945             0.00408001079            0.000747875455           
       3.222586             0.00496824984             0.00078606371           
       3.225226             0.00474128684            0.000851864419           
       3.227866             0.00575825117            0.000858043068           
       3.230507             0.00713123119            0.000989831124           
       3.233147             0.00726724784             0.00100729486           
       3.235787             0.00539521277            0.000888199947           
       3.238428             0.00612182855             0.00102098512           
       3.241068             0.00532355941            0.000890255313           
       3.243709             0.00651034533             0.00101714449           
       3.246349             0.00621276298            0.000905782916           
       3.248989                0.00700579             0.00113573835           
       3.251630             0.00478445274            0.000903815642           
       3.254270             0.00693857414            0.000972757545           
       3.256911             0.00665965119             0.00103983434           
       3.259551             0.00562563431             0.00102890239           
       3.262191             0.00529895531             0.00102000122           
       3.264832              0.0051404105             0.00104968378           
       3.267472             0.00658999298             0.00111494818           
       3.270112             0.00388465768             0.00094602136           
       3.272753             0.00502422412            0.000984767829           
       3.275393             0.00804329648             0.00127134923           
       3.278034             0.00482652337            0.000985393001           
       3.280674             0.00472682877             0.00105818722           
       3.283314              0.0049112392            0.000964678804           
       3.285955             0.00585067979              0.0010863697           
       3.288595             0.00677733749             0.00130082439           
       3.291235             0.00522711302             0.00117438247           
       3.293876             0.00597795432             0.00127394674           
       3.296516             0.00626083199             0.00125161967           
       3.299157             0.00659809312             0.00126874408           
       3.301797             0.00602520103             0.00138298108           
       3.304437             0.00692039353             0.00128411744           
       3.307078             0.00461585269             0.00115524502           
       3.309718             0.00646124754             0.00141078757           
       3.312359             0.00492190929             0.00123161052           
       3.314999             0.00656594445             0.00140057708           
       3.317639             0.00299672557            0.000904921851           
       3.320280              0.0040208711             0.00111446192           
       3.322920             0.00574383507             0.00135442482           
       3.325560             0.00478377336             0.00123689881           
       3.328201             0.00566817135             0.00121258503           
       3.330841             0.00616487957             0.00153909668           
       3.333482             0.00686867648             0.00153559763           
       3.336122             0.00650456276             0.00149502876           
       3.338762             0.00685709103             0.00177317119           
       3.341403             0.00457440157             0.00138387457           
       3.344043             0.00379822051             0.00121067679           
       3.346683             0.00640488148             0.00160503587           
       3.349324             0.00664721338             0.00183841021           
       3.351964             0.00965356919             0.00234278065           
       3.354605             0.00149293277             0.00105366368           
       3.357245             0.00359335222             0.00147465197           
       3.359885             0.00621147107             0.00155175248           
       3.362526             0.00415822344             0.00158773259           
       3.365166             0.00482810477             0.00161366219           
       3.367807             0.00444156615             0.00198076681           
       3.370447              0.0036323607             0.00148587881           
       3.373087             0.00204195579             0.00119134989           
       3.375728             0.00443389544             0.00198129031           
       3.378368             0.00197855431             0.00196426138           
       3.381008             0.00326210527              0.0018804094           
       3.383649             0.00415846383             0.00170315569           
       3.386289             0.00488136915             0.00218393271           
       3.388930             0.00478561068             0.00342042778           
       3.391570             0.00488641614             0.00244494704           
       3.394210             0.00394207533             0.00277911589           
       3.396851           -2.61940348e-05                         0           
       3.399491           -2.62087666e-05                         0           
       3.402131              0.0143821951             0.00840328635           
       3.404772           -2.62433411e-05                         0           
       3.407412                       nan                       nan           
       3.410053             0.00919288822              0.0095151693           
       3.412693                       nan                       nan           
       3.415333           -2.63582527e-05                         0           
