################################################################################
# EDF_DataBlockID                     0.Image.Psd
# EDF_BinarySize                      4366944
# EDF_HeaderSize                      2560
# ByteOrder                           LowByteFirst
# DataType                            FloatValue
# Dim_1                               1028
# Dim_2                               1062
# Image                               0
# HeaderID                            EH:000000:000000:000000
# Size                                4366944
# Center_1                            607.5200
# Center_2                            651.5500
# Comment                             Xenocs_Cell_Window - 20251028_20perc_iodine_1.23mg
# DDummy                              0.6
# Date                                2025-10-29T11:03:54
# Delta                               0
# Dummy                               -1.5
# ExposureTime                        360
# Gamma                               0
# Intensity1                          8.51856e-10
# PSize_1                             7.5e-05
# PSize_2                             7.5e-05
# Pressure                            0.0330391
# SampleDistance                      0.450002
# SampleEnvKind                       large
# SampleEnvPN                         ElectroChemical cell
# SampleEnvSN                         1141
# Thickness                           0
# Wavelength                          1.541891e-10
# Wavelength                          1.54189e-10
# aux                                 0
# aux_dial                            0.002375
# beamx                               588.434
# beamx_dial                          588.434
# beamz                               657.808
# beamz_dial                          657.808
# det0x                               0
# det0x_dial                          6.36945
# det0xvd                             0
# det0xvd_dial                        0
# det0y                               450.002
# det0y_dial                          481.635
# det0z                               0
# det0z_dial                          1.23302
# det0zvd                             0
# det0zvd_dial                        0
# mag                                 1.818
# mag_dial                            1.818
# om                                  0.2499
# om_dial                             -0.610199
# phi                                 -0.0120535
# phi_dial                            0
# ry                                  0.599993
# ry_dial                             0.599993
# s1bot                               0.8
# s1bot_dial                          -1.66094
# s1hl                                0.8
# s1hl_dial                           -0.608437
# s1hr                                0.8
# s1hr_dial                           0.970938
# s1top                               0.8
# s1top_dial                          -0.461562
# s2bot                               0.45
# s2bot_dial                          1.36109
# s2hl                                0.45
# s2hl_dial                           -0.83375
# s2hr                                0.45
# s2hr_dial                           -0.118594
# s2top                               0.45
# s2top_dial                          1.44734
# w2theta                             32
# w2theta_dial                        32
# waxsch                              19.2605
# waxsch_dial                         -32.7355
# waxsh                               137.085
# waxsh_dial                          -43.5338
# waxsth                              26.0607
# waxsth_dial                         -19.4086
# waxsz                               67.0407
# waxsz_dial                          -23.7954
# wind                                65.9854
# wind_dial                           66.0041
# wpsi                                124
# wpsi_dial                           124
# wstod                               115
# wstod_dial                          115
# x                                   0
# x_dial                              1.00969
# z                                   0
# z_dial                              13.3172
# CountCutoff                         15302352
# DetectorModel                       Dectris EIGER2 Si 1M, S/N E-02-0362
# ThresholdSetting                    4023.88989258
# Saturation                          0
# FlatField                           Corrected
# BackgroundReductionExtra            0.02
# BackgroundCorrectionConstant        0.0026712
# Detector                            0
# Monitor                             0
# Pil_Roi0                            0
# SumForIntensity1                    3.06668e+08
# TransmittedFlux                     851856
# det                                 0
# mon                                 0
# pilai0                              3.06668e+08
# pilai1                              766455
# pilct0                              5.31296e+08
# pilct1                              766455
# pilroi0                             0
# pilroi1                             0
# sec                                 1
# title                               20251028_20perc_iodine_1.23mg_0_00188.edf
# usaxs0                              0
# Operation                           Azimuthal average I(q)
# Error_model                         ErrorModel.poisson
# Geometrical_correction              True
# Transmission_correction             True
# Thickness_correction                False
# Binning mode                        Uniform
# Binning factor                      1.0
# Psi                                 0.0
# Omega                               0.2499
# MaskInvalidPixels                   True
# DetectorEdge                        3
# MaskFiles                           ['20251028_20perc_iodine_1.23mg_0_00012_mask.edf']
################################################################################
    q(A⁻¹)                Intensity(a.u.)            Sigma_I(a.u.)            
       0.000340                371814.777                120.620615           
       0.001019                359790.534                72.6605582           
       0.001698                350748.204                50.7290382           
       0.002377                330908.181                44.0714863           
       0.003056                306816.235                 35.865688           
       0.003735                253621.779                 28.758162           
       0.004415                205508.939                25.8870949           
       0.005094                153552.279                19.3787984           
       0.005773                101261.908                14.5696298           
       0.006452                58911.8574                10.6477069           
       0.007131                32317.9085                7.63984895           
       0.007810                16219.7547                5.37118598           
       0.008490                8121.11885                3.36890314           
       0.009169                3897.64641                2.30660098           
       0.009848                1202.98412                1.23895853           
       0.010527                468.265461               0.772988702           
       0.011206                 118.43336               0.371020254           
       0.011885                54.8433861               0.234579897           
       0.012564                25.3614344               0.163774897           
       0.013244                16.9817319               0.125288553           
       0.013923                12.2900697               0.108304684           
       0.014602                9.40738842              0.0878798948           
       0.015281                7.60833669              0.0804504959           
       0.015960                6.14762389              0.0717981803           
       0.016639                4.96880871              0.0609537673           
       0.017319                4.15574232              0.0548771433           
       0.017998                3.43741538              0.0477479315           
       0.018677                2.96110022              0.0458997433           
       0.019356                2.49740543              0.0416511823           
       0.020035                 2.1662783              0.0363942849           
       0.020714                1.86912747               0.034163925           
       0.021394                1.57715022              0.0296930414           
       0.022073                1.41656219               0.029278265           
       0.022752                1.30197365              0.0268511034           
       0.023431                1.14029161              0.0243919375           
       0.024110                  0.996093              0.0237681285           
       0.024789                0.92093456              0.0212246055           
       0.025469               0.841680078               0.020909846           
       0.026148               0.725265254              0.0182373059           
       0.026827               0.647444036              0.0175068586           
       0.027506               0.629525258              0.0175118373           
       0.028185               0.581832141              0.0160549997           
       0.028864               0.525566075               0.015173348           
       0.029544               0.468968348              0.0138990554           
       0.030223               0.448380936              0.0137854339           
       0.030902               0.405530506              0.0132301529           
       0.031581               0.374869725              0.0120919212           
       0.032260                0.35382273              0.0119477354           
       0.032939               0.309992679              0.0107831003           
       0.033619               0.310655625              0.0109532702           
       0.034298               0.292680967              0.0103463368           
       0.034977                0.24709968             0.00931978044           
       0.035656               0.231492013             0.00925938494           
       0.036335               0.230851788             0.00896801602           
       0.037014               0.213931076             0.00865884981           
       0.037693               0.198832813             0.00803038604           
       0.038373               0.193014206             0.00798965755           
       0.039052               0.169490806             0.00751883353           
       0.039731               0.160222006             0.00713999097           
       0.040410               0.158317663             0.00704984745           
       0.041089               0.142312588             0.00657930372           
       0.041768               0.138968044             0.00653550006           
       0.042448               0.138284978             0.00646883074           
       0.043127               0.131559354             0.00616054235           
       0.043806               0.133714266              0.0062571006           
       0.044485               0.126670797             0.00596496282           
       0.045164               0.119147235             0.00589912727           
       0.045843               0.115098569             0.00556101761           
       0.046523               0.100943662             0.00522583787           
       0.047202              0.0979447216             0.00518359604           
       0.047881              0.0945011199             0.00499346766           
       0.048560              0.0895275163             0.00490458867           
       0.049239              0.0874981885             0.00465561134           
       0.049918               0.087596164             0.00474928039           
       0.050598              0.0897003921             0.00473388029           
       0.051277              0.0848810298             0.00459034292           
       0.051956               0.089644888             0.00468777504           
       0.052635              0.0762972263             0.00423294412           
       0.053314              0.0859521902             0.00462415127           
       0.053993              0.0801982353             0.00434418288           
       0.054673              0.0766807118             0.00415322299           
       0.055352              0.0700744213             0.00402860508           
       0.056031              0.0789164418              0.0041853937           
       0.056710              0.0812446241             0.00435074811           
       0.057389              0.0684497996             0.00385096749           
       0.058068              0.0687482093             0.00389913609           
       0.058748              0.0698330278             0.00397879961           
       0.059427              0.0724698224             0.00398459583           
       0.060106              0.0648863939             0.00380604226           
       0.060785              0.0620603667             0.00361070952           
       0.061464              0.0642126846             0.00376131524           
       0.062143              0.0618882991             0.00365510097           
       0.062822              0.0630880926             0.00364705504           
       0.063502              0.0563564057             0.00344083344           
       0.064181              0.0571460861             0.00342826839           
       0.064860              0.0588327239             0.00353147333           
       0.065539               0.052163809             0.00329278571           
       0.066218              0.0499039348             0.00315170957           
       0.066897              0.0590534093             0.00345494401           
       0.067577              0.0519020262             0.00327011576           
       0.068256              0.0521054269             0.00335700332           
       0.068935              0.0519309973             0.00329718968           
       0.069614               0.051400624             0.00331296414           
       0.070293              0.0446392723             0.00311585626           
       0.070972              0.0497951026             0.00326678564           
       0.071652              0.0446036453             0.00309747893           
       0.072331              0.0479450786             0.00315417108           
       0.073010              0.0434426953             0.00307102349           
       0.073689              0.0463697555             0.00315536112           
       0.074368              0.0472925225              0.0031808072           
       0.075047               0.041295011             0.00294033384           
       0.075727               0.039763383              0.0028674695           
       0.076406              0.0363730979             0.00279722344           
       0.077085              0.0366894217              0.0027568572           
       0.077764              0.0399491713             0.00286664077           
       0.078443              0.0416429425             0.00294490089           
       0.079122              0.0451746307             0.00303777076           
       0.079802              0.0438433855              0.0030244162           
       0.080481              0.0405531949             0.00281060453           
       0.081160              0.0353658568             0.00267855667           
       0.081839                0.03814993             0.00273745181           
       0.082518              0.0389706423             0.00276907041           
       0.083197              0.0347253195             0.00257328186           
       0.083876                0.03455449             0.00252429074           
       0.084556              0.0331411985             0.00254088229           
       0.085235              0.0350580166             0.00256283857           
       0.085914              0.0307540891             0.00242369236           
       0.086593              0.0302329247             0.00238760215           
       0.087272               0.033372484             0.00247305331           
       0.087951              0.0329780565             0.00251392806           
       0.088631              0.0327102647             0.00241842301           
       0.089310              0.0361512685             0.00259637136           
       0.089989              0.0356954262              0.0025497884           
       0.090668              0.0355238716             0.00257173116           
       0.091347              0.0297838502             0.00236799404           
       0.092026              0.0317794207             0.00233801656           
       0.092706              0.0306729425             0.00238032694           
       0.093385              0.0300979184             0.00232170067           
       0.094064              0.0306548718             0.00237035354           
       0.094743              0.0354050796             0.00250857421           
       0.095422              0.0309253252             0.00231836196           
       0.096101              0.0284346669             0.00226882886           
       0.096781              0.0306137741             0.00232045296           
       0.097460              0.0280111489             0.00215907761           
       0.098139              0.0257919709             0.00205584535           
       0.098818              0.0298030593             0.00218271546           
       0.099497              0.0294247343             0.00217327024           
       0.100176              0.0288581584             0.00209575889           
       0.100856              0.0265130973             0.00200751528           
       0.101535              0.0274744782              0.0020396467           
       0.102214              0.0297270181              0.0021216248           
       0.102893              0.0290705611             0.00207416332           
       0.103572              0.0275240633             0.00198842345           
       0.104251              0.0273620732             0.00198988752           
       0.104931              0.0293038616             0.00204053717           
       0.105610              0.0259405448             0.00192805869           
       0.106289              0.0251099831             0.00186537324           
       0.106968              0.0259827234             0.00190314486           
       0.107647              0.0266722711             0.00192939029           
       0.108326               0.027644934             0.00193797746           
       0.109005              0.0263293867             0.00187940433           
       0.109685              0.0249428542             0.00180873076           
       0.110364              0.0250188923             0.00183206037           
       0.111043              0.0235904377             0.00177193737           
       0.111722              0.0258508708             0.00183221728           
       0.112401              0.0277849402             0.00190480335           
       0.113080              0.0246343112             0.00177300554           
       0.113760              0.0230885477             0.00174514762           
       0.114439              0.0280867658              0.0018973259           
       0.115118              0.0213704115             0.00164251905           
       0.115797              0.0247139365             0.00178270614           
       0.116476               0.023720009             0.00172035059           
       0.117155              0.0252784037             0.00179028867           
       0.117835               0.024941311             0.00174295927           
       0.118514              0.0234814267              0.0017126233           
       0.119193              0.0213786677             0.00163415429           
       0.119872              0.0244534929             0.00172586772           
       0.120551              0.0266768909             0.00179061455           
       0.121230              0.0216716015             0.00159767126           
       0.121910              0.0208012416             0.00158038804           
       0.122589              0.0223520626             0.00163992958           
       0.123268              0.0232186857             0.00163903757           
       0.123947              0.0213350334             0.00158130794           
       0.124626              0.0226324056             0.00160876411           
       0.125305              0.0228316369             0.00162375887           
       0.125985              0.0225006699             0.00159943905           
       0.126664              0.0209447076              0.0015284473           
       0.127343              0.0218854489             0.00158050594           
       0.128022              0.0211311808             0.00154111983           
       0.128701              0.0222387496             0.00157275643           
       0.129380              0.0221039446             0.00154834415           
       0.130059              0.0227585106             0.00157475116           
       0.130739              0.0247036854             0.00165220634           
       0.131418              0.0205556108             0.00150290311           
       0.132097              0.0236422099             0.00159112411           
       0.132776              0.0201270004             0.00146145151           
       0.133455              0.0212052336             0.00151174128           
       0.134134              0.0236476201             0.00159134527           
       0.134814              0.0212523541              0.0014930562           
       0.135493              0.0208074254             0.00148332334           
       0.136172               0.021744896             0.00150492327           
       0.136851              0.0208301777             0.00148149665           
       0.137530              0.0229639977             0.00151857159           
       0.138209              0.0204270647             0.00144905093           
       0.138889              0.0204688009             0.00145692448           
       0.139568              0.0175969986             0.00135027554           
       0.140247               0.020120965             0.00144197586           
       0.140926              0.0184557219             0.00134152996           
       0.141605              0.0168143245              0.0013130169           
       0.142284              0.0194087971             0.00138730855           
       0.142964              0.0195254841             0.00139679468           
       0.143643              0.0205114249             0.00142981751           
       0.144322              0.0191429844             0.00135239434           
       0.145001              0.0204445652             0.00142630235           
       0.145680              0.0189195826             0.00133961561           
       0.146359              0.0205967509             0.00140284447           
       0.147039               0.019282191             0.00136851389           
       0.147718                0.02135644             0.00141647616           
       0.148397              0.0186573795             0.00134451891           
       0.149076              0.0196656139              0.0013375481           
       0.149755              0.0204871906             0.00138628137           
       0.150434              0.0199456504             0.00136839508           
       0.151114              0.0178739739             0.00128821743           
       0.151793              0.0205446223             0.00138112096           
       0.152472              0.0199999212             0.00133861838           
       0.153151              0.0210453866             0.00138643537           
       0.153830              0.0172094336             0.00124459684           
       0.154509               0.021462743             0.00138411513           
       0.155188              0.0191119626             0.00130563474           
       0.155868              0.0194798549             0.00130876112           
       0.156547              0.0209467762             0.00136586226           
       0.157226              0.0213735896             0.00134600885           
       0.157905              0.0184430639             0.00126083534           
       0.158584              0.0199229718             0.00130806457           
       0.159263              0.0177256762             0.00123836471           
       0.159943              0.0179532612             0.00124721871           
       0.160622              0.0194165402             0.00127201923           
       0.161301              0.0189054662               0.001271955           
       0.161980              0.0169489063             0.00118386483           
       0.162659              0.0164043757             0.00117760136           
       0.163338              0.0186413925             0.00124509749           
       0.164018              0.0184191976              0.0012311589           
       0.164697              0.0186651519             0.00125526526           
       0.165376              0.0170300516              0.0011728264           
       0.166055              0.0189907937             0.00124667167           
       0.166734              0.0186529515             0.00122999828           
       0.167413              0.0202005195             0.00128090215           
       0.168093              0.0155704112             0.00113520305           
       0.168772              0.0198729318             0.00124498511           
       0.169451              0.0186809114             0.00122927738           
       0.170130              0.0189670395             0.00122239444           
       0.170809              0.0174138375             0.00118525287           
       0.171488              0.0176744126              0.0011832024           
       0.172168              0.0170421194             0.00115068387           
       0.172847              0.0183353494             0.00120922343           
       0.173526              0.0162464461             0.00111654508           
       0.174205              0.0191779585             0.00121869161           
       0.174884              0.0188055875             0.00120051326           
       0.175563               0.015977171             0.00111128071           
       0.176243              0.0184522973             0.00120621226           
       0.176922              0.0180236371             0.00116105278           
       0.177601              0.0183880755             0.00118562036           
       0.178280              0.0170334801             0.00112837656           
       0.178959              0.0172088519              0.0011432929           
       0.179638              0.0173415405             0.00114438712           
       0.180317              0.0178974641             0.00115411602           
       0.180997              0.0173504478             0.00114250984           
       0.181676              0.0166139002              0.0011060587           
       0.182355              0.0171969379             0.00113205747           
       0.183034              0.0162815186             0.00108383644           
       0.183713              0.0172800092             0.00113017415           
       0.184392              0.0179393446             0.00115118541           
       0.185072              0.0182953733             0.00114930347           
       0.185751              0.0178330834             0.00113784685           
       0.186430              0.0176296752             0.00112341501           
       0.187109              0.0197371533             0.00120190523           
       0.187788              0.0162023869             0.00108628916           
       0.188467              0.0179570342             0.00113006417           
       0.189147              0.0169422668             0.00110878541           
       0.189826              0.0163262206             0.00106919253           
       0.190505              0.0171715199             0.00111457252           
       0.191184              0.0173877841             0.00110540484           
       0.191863              0.0188699178              0.0011539798           
       0.192542              0.0162255766             0.00108016371           
       0.193222              0.0175313228             0.00109762384           
       0.193901              0.0148586266             0.00102404244           
       0.194580              0.0157542504             0.00103600862           
       0.195259              0.0159036867             0.00105286521           
       0.195938               0.015362666              0.0010372721           
       0.196617              0.0155694707             0.00102965438           
       0.197297              0.0162153403             0.00105508451           
       0.197976              0.0168644568             0.00105946763           
       0.198655              0.0166185262             0.00106320195           
       0.199334              0.0170486919             0.00106737775           
       0.200013              0.0156972292             0.00102363056           
       0.200692              0.0162231065             0.00104689518           
       0.201371              0.0165082979             0.00104416346           
       0.202051              0.0162255574             0.00103840221           
       0.202730              0.0175351541             0.00106871301           
       0.203409              0.0152393089             0.00100298524           
       0.204088              0.0162593259             0.00103486224           
       0.204767              0.0166870238             0.00104287463           
       0.205446              0.0143965443            0.000970553795           
       0.206126              0.0159695148             0.00100831333           
       0.206805              0.0170264375             0.00106023256           
       0.207484              0.0167392549             0.00103235417           
       0.208163              0.0148810512            0.000979217949           
       0.208842              0.0163977677             0.00102512415           
       0.209521              0.0150006619            0.000972332868           
       0.210201              0.0161073678             0.00101880622           
       0.210880              0.0150983209            0.000967022819           
       0.211559               0.014740697            0.000969628722           
       0.212238              0.0164556425             0.00101926786           
       0.212917              0.0163477119             0.00101214516           
       0.213596                 0.0155226            0.000992103344           
       0.214276              0.0137719822            0.000915017589           
       0.214955              0.0141872078            0.000948239161           
       0.215634              0.0151145663            0.000971725272           
       0.216313              0.0164746773              0.0010123745           
       0.216992              0.0147837204            0.000958773087           
       0.217671              0.0150241832            0.000959992132           
       0.218351               0.016113852             0.00100391918           
       0.219030              0.0154239527            0.000966689513           
       0.219709              0.0151873504            0.000965229932           
       0.220388              0.0173040511             0.00102897633           
       0.221067              0.0151016612            0.000962028695           
       0.221746              0.0149014235            0.000954650609           
       0.222426              0.0135578266            0.000896986982           
       0.223105              0.0146063523            0.000943710217           
       0.223784              0.0147453366            0.000938784185           
       0.224463              0.0149857451            0.000953943081           
       0.225142              0.0153064987            0.000948843651           
       0.225821               0.015386314            0.000955146224           
       0.226500              0.0143949423            0.000929737159           
       0.227180              0.0160354609            0.000966168815           
       0.227859              0.0157254825            0.000961077119           
       0.228538              0.0152210615            0.000936042822           
       0.229217              0.0153496746            0.000947429628           
       0.229896              0.0163803005            0.000978248469           
       0.230575               0.014725653            0.000912739415           
       0.231255              0.0152889646             0.00094395766           
       0.231934              0.0155613728            0.000945823642           
       0.232613              0.0159625355            0.000961471668           
       0.233292               0.015370342            0.000934352667           
       0.233971              0.0159102278            0.000950177059           
       0.234650              0.0145580488            0.000919594711           
       0.235330              0.0148607416            0.000920992439           
       0.236009              0.0154203115            0.000936149602           
       0.236688              0.0152557276            0.000927808062           
       0.237367              0.0133187378            0.000868167517           
       0.238046              0.0167544694             0.00098058474           
       0.238725               0.016082346            0.000945893083           
       0.239405              0.0157758949            0.000942646988           
       0.240084              0.0135799603            0.000869014599           
       0.240763              0.0145156358            0.000907056977           
       0.241442              0.0135011134            0.000862458881           
       0.242121              0.0138205717            0.000874249941           
       0.242800              0.0148664553            0.000911019158           
       0.243480              0.0143733133            0.000891587507           
       0.244159              0.0150056923            0.000911430664           
       0.244838               0.013383751              0.0008466013           
       0.245517              0.0133950824            0.000859142775           
       0.246196              0.0157610723            0.000932384164           
       0.246875              0.0163072599            0.000935181562           
       0.247554              0.0141640294            0.000880421018           
       0.248234              0.0144394062            0.000875459302           
       0.248913              0.0137913175            0.000865184209           
       0.249592              0.0140287378            0.000864307802           
       0.250271              0.0134922658            0.000845159504           
       0.250950               0.014140967            0.000870537856           
       0.251629              0.0150143658            0.000889394802           
       0.252309               0.014224333            0.000867436281           
       0.252988               0.014034452            0.000846785206           
       0.253667               0.015355056            0.000896078486           
       0.254346              0.0141011136            0.000858534344           
       0.255025              0.0137805866            0.000846861586           
       0.255704              0.0127168728            0.000809794964           
       0.256384              0.0139523336            0.000845285212           
       0.257063              0.0133609738            0.000831893972           
       0.257742              0.0146817738            0.000866001341           
       0.258421              0.0140345624            0.000845068621           
       0.259100              0.0138692778            0.000841542675           
       0.259779              0.0118688311            0.000777830356           
       0.260459              0.0143186327            0.000856019608           
       0.261138                 0.0148274            0.000854071602           
       0.261817              0.0129759108            0.000815098321           
       0.262496              0.0130385598            0.000809050595           
       0.263175               0.013232572            0.000816798275           
       0.263854              0.0142598728             0.00084397213           
       0.264534              0.0124942729            0.000783250403           
       0.265213              0.0125376436            0.000796973168           
       0.265892              0.0137879385            0.000825059714           
       0.266571              0.0126060175            0.000787110883           
       0.267250              0.0136906448            0.000821655755           
       0.267929               0.013346457            0.000810429795           
       0.268609              0.0120144753            0.000773136564           
       0.269288              0.0127654718            0.000783694956           
       0.269967               0.011224849            0.000742801977           
       0.270646              0.0122917954            0.000773943079           
       0.271325              0.0111599679            0.000738682099           
       0.272004              0.0128095205            0.000783504713           
       0.272683              0.0104844106            0.000709714167           
       0.273363              0.0126593703            0.000784835424           
       0.274042               0.012513201            0.000775687601           
       0.274721              0.0123031064            0.000768692195           
       0.275400              0.0112749591            0.000731000258           
       0.276079              0.0109275034            0.000723734981           
       0.276758              0.0114690786            0.000750809373           
       0.277438              0.0117832157            0.000752479605           
       0.278117              0.0119796157            0.000772521167           
       0.278796              0.0120625986            0.000767323723           
       0.279475              0.0125754106            0.000796406821           
       0.280154              0.0126451996            0.000787126166           
       0.280833              0.0124629781            0.000786186339           
       0.281513              0.0122087972            0.000790335742           
       0.282192              0.0111207586            0.000741428459           
       0.282871              0.0114086908            0.000756213024           
       0.283550              0.0112181374            0.000753889644           
       0.284229               0.011809296            0.000784859043           
       0.284908              0.0109995483            0.000765462487           
       0.285588              0.0112577321            0.000765325719           
       0.286267              0.0108276632            0.000762582709           
       0.286946              0.0109061102            0.000760363144           
       0.287625                0.01172782            0.000801912755           
       0.288304              0.0117690302            0.000792568331           
       0.288983              0.0100188143            0.000740525056           
       0.289663              0.0118403263            0.000809744261           
       0.290342              0.0115547339            0.000795660921           
       0.291021              0.0120730201            0.000817691515           
       0.291700              0.0110024525            0.000770398551           
       0.292379              0.0106894248            0.000776746622           
       0.293058              0.0105361915            0.000768246267           
       0.293738              0.0102335152            0.000750773091           
       0.294417              0.0114039839            0.000801758111           
       0.295096               0.010427825            0.000758247807           
       0.295775             0.00972274256            0.000743346114           
       0.296454              0.0111102043            0.000784338824           
       0.297133             0.00945270774            0.000726893198           
       0.297812              0.0111802344            0.000794494145           
       0.298492              0.0104397489            0.000769216449           
       0.299171             0.00950143004            0.000732445983           
       0.299850              0.0100283709            0.000747343936           
       0.300529             0.00968879508             0.00074285655           
       0.301208              0.0102684918            0.000766617834           
       0.301887             0.00901278041            0.000717362375           
       0.302567              0.0104532684            0.000768696115           
       0.303246             0.00986106438            0.000751478813           
       0.303925             0.00965807743            0.000753253099           
       0.304604             0.00950671898            0.000731190474           
       0.305283             0.00895617536            0.000720228484           
       0.305962              0.0100850708            0.000759655836           
       0.306642             0.00843789193            0.000704292461           
       0.307321             0.00929974886            0.000737025755           
       0.308000             0.00805998215             0.00067800913           
       0.308679             0.00872536604             0.00072071714           
       0.309358             0.00999135819            0.000760799894           
       0.310037               0.010313142            0.000774676238           
       0.310717              0.0101181659            0.000766580193           
       0.311396             0.00938208653            0.000743120679           
       0.312075             0.00945986007            0.000755657011           
       0.312754             0.00952590794            0.000743120377           
       0.313433             0.00870138372            0.000716408783           
       0.314112              0.0070418102            0.000644331254           
       0.314792             0.00928305453            0.000745021113           
       0.315471             0.00749339608            0.000661086424           
       0.316150             0.00909811797            0.000735183146           
       0.316829              0.0094232663            0.000753145623           
       0.317508             0.00785968472            0.000680111202           
       0.318187             0.00781509153            0.000687125387           
       0.318866             0.00983479457            0.000760433822           
       0.319546             0.00779838324            0.000687294244           
       0.320225              0.0082063595            0.000705056919           
       0.320904              0.0087614061            0.000717246216           
       0.321583             0.00763671164            0.000684384548           
       0.322262             0.00758906603            0.000671906174           
       0.322941             0.00736351503            0.000670325504           
       0.323621             0.00841711099            0.000712305283           
       0.324300             0.00794502389             0.00069258407           
       0.324979             0.00905591234            0.000740756454           
       0.325658             0.00806453108            0.000700303131           
       0.326337              0.0070525892            0.000655748495           
       0.327016             0.00754757596            0.000674063466           
       0.327696             0.00780448165            0.000693062712           
       0.328375             0.00783999488            0.000688776155           
       0.329054             0.00755725962            0.000679910125           
       0.329733             0.00657483777            0.000636495001           
       0.330412             0.00742982386            0.000671071297           
       0.331091             0.00865767256            0.000737542841           
       0.331771             0.00747742701            0.000667468959           
       0.332450             0.00735617284             0.00067488854           
       0.333129             0.00656034841            0.000635693027           
       0.333808             0.00708640252            0.000661561972           
       0.334487              0.0079626007            0.000704594674           
       0.335166             0.00736412025            0.000667681475           
       0.335846             0.00738601617            0.000680424083           
       0.336525             0.00802946494            0.000702439188           
       0.337204              0.0065392294             0.00063557351           
       0.337883             0.00784169963            0.000696919953           
       0.338562             0.00687387493            0.000656118057           
       0.339241             0.00652420234            0.000640409736           
       0.339921             0.00635738071            0.000621567772           
       0.340600             0.00756211927            0.000690782399           
       0.341279             0.00783581386            0.000695642194           
       0.341958             0.00633966009             0.00063454317           
       0.342637             0.00684146237            0.000649865618           
       0.343316             0.00630453172            0.000625649461           
       0.343995              0.0067889047            0.000659869609           
       0.344675             0.00646162253            0.000631936539           
       0.345354             0.00629728494            0.000627963856           
       0.346033             0.00676432488            0.000649137378           
       0.346712             0.00554040311            0.000591231299           
       0.347391             0.00676400155            0.000657308659           
       0.348070             0.00625732881            0.000623232595           
       0.348750             0.00587969819            0.000612863299           
       0.349429              0.0068395547            0.000652464438           
       0.350108             0.00642902603            0.000640192224           
       0.350787             0.00627135235            0.000621551109           
       0.351466             0.00599798579            0.000619050946           
       0.352145             0.00634254247            0.000637111739           
       0.352825             0.00626307922            0.000630240413           
       0.353504              0.0054536308            0.000587961167           
       0.354183             0.00617994109            0.000618678956           
       0.354862             0.00511809667            0.000576107855           
       0.355541             0.00661995344            0.000646623854           
       0.356220             0.00487351277            0.000555859296           
       0.356900             0.00470942762            0.000551611774           
       0.357579             0.00541733159             0.00058436471           
       0.358258             0.00466410639            0.000549723471           
       0.358937             0.00603586565            0.000613602629           
       0.359616             0.00517885674            0.000576311177           
       0.360295             0.00596986833            0.000619275811           
       0.360975             0.00649259516            0.000643057112           
       0.361654              0.0053399091            0.000586192919           
       0.362333             0.00514010531            0.000572197196           
       0.363012             0.00549777427            0.000599384207           
       0.363691             0.00532335276             0.00057816338           
       0.364370             0.00648294953             0.00064594984           
       0.365050             0.00616302737            0.000626439824           
       0.365729             0.00636051509            0.000642465548           
       0.366408              0.0046841455            0.000552559996           
       0.367087             0.00605105227            0.000617956191           
       0.367766              0.0055319595            0.000603167115           
       0.368445             0.00550445393            0.000590983419           
       0.369124             0.00464266176            0.000547016034           
       0.369804             0.00539914699            0.000588957066           
       0.370483             0.00441166693            0.000534710222           
       0.371162             0.00543719213            0.000597056051           
       0.371841             0.00512660192            0.000569644114           
       0.372520             0.00474906695            0.000559257906           
       0.373199             0.00582943201            0.000612211083           
       0.373879             0.00526722106             0.00058867847           
       0.374558             0.00402745821            0.000507246238           
       0.375237             0.00377852799            0.000492125625           
       0.375916             0.00460865973            0.000553915126           
       0.376595             0.00626983009            0.000633449009           
       0.377274             0.00501533152            0.000575612586           
       0.377954             0.00415748432            0.000515845058           
       0.378633             0.00486886556            0.000565290594           
       0.379312             0.00433468227            0.000533245071           
       0.379991             0.00409205988            0.000515425077           
       0.380670             0.00552204976            0.000609331606           
       0.381349             0.00418582997            0.000522893681           
       0.382029             0.00364879828            0.000495194776           
       0.382708              0.0043743405            0.000530357226           
       0.383387             0.00559540485            0.000613423198           
       0.384066             0.00522519727            0.000587344029           
       0.384745             0.00486139508            0.000568755447           
       0.385424             0.00403648829            0.000520019354           
       0.386104             0.00439703477            0.000536749319           
       0.386783             0.00493540611            0.000580960473           
       0.387462             0.00474667665            0.000555570794           
       0.388141             0.00424276111            0.000533642584           
       0.388820             0.00344711783            0.000477533091           
       0.389499             0.00435837467            0.000539977545           
       0.390178             0.00459738025            0.000556794135           
       0.390858             0.00476459593            0.000562242934           
       0.391537             0.00441556725             0.00054678481           
       0.392216             0.00416096415            0.000524133895           
       0.392895             0.00412057871            0.000523341285           
       0.393574             0.00338341371            0.000473048416           
       0.394253              0.0043519026             0.00053891096           
       0.394933             0.00364182929            0.000498622496           
       0.395612             0.00361404332            0.000482288344           
       0.396291               0.003892764            0.000510730733           
       0.396970             0.00454449847            0.000546941622           
       0.397649             0.00449736029            0.000545772827           
       0.398328             0.00421044434            0.000525755558           
       0.399008             0.00502786154            0.000573279867           
       0.399687             0.00553812296            0.000604007058           
       0.400366             0.00451263647            0.000543139789           
       0.401045             0.00553678988            0.000600486937           
       0.401724             0.00497057576            0.000569904661           
       0.402403             0.00365876697            0.000492762937           
       0.403083             0.00392969615            0.000503317685           
       0.403762             0.00397347794            0.000508609445           
       0.404441              0.0032449633            0.000462552652           
       0.405120             0.00451593039            0.000543880386           
       0.405799             0.00311362295            0.000449647278           
       0.406478             0.00428866073            0.000527728698           
       0.407158             0.00399552106            0.000508417796           
       0.407837             0.00355534925            0.000483828665           
       0.408516             0.00316159856            0.000452281872           
       0.409195             0.00376234374            0.000498980914           
       0.409874             0.00278912414            0.000435601543           
       0.410553              0.0040392388            0.000529847849           
       0.411233             0.00325008522            0.000472816484           
       0.411912             0.00396329314             0.00052952165           
       0.412591              0.0034630867            0.000498255522           
       0.413270             0.00363054673            0.000507736394           
       0.413949             0.00220667001            0.000400164577           
       0.414628              0.0033537165            0.000492439256           
       0.415307              0.0031395069            0.000481752999           
       0.415987             0.00237283768            0.000415368987           
       0.416666             0.00347054047            0.000499318613           
       0.417345             0.00279491144            0.000455570642           
       0.418024             0.00308789888            0.000478866329           
       0.418703             0.00262307407            0.000440544174           
       0.419382              0.0028980967            0.000460794388           
       0.420062             0.00278331183            0.000452842077           
       0.420741             0.00242886674             0.00042527628           
       0.421420             0.00342680852            0.000507058634           
       0.422099             0.00267131095            0.000447699669           
       0.422778             0.00294152141            0.000472341443           
       0.423457             0.00312648162            0.000489945858           
       0.424137             0.00390593426            0.000538699727           
       0.424816             0.00230511818            0.000422487421           
       0.425495             0.00291287467            0.000474479051           
       0.426174             0.00152537471            0.000343476046           
       0.426853             0.00235406177            0.000424102712           
       0.427532             0.00206871662            0.000400930433           
       0.428212             0.00298200286            0.000484540401           
       0.428891               0.001947832            0.000390717431           
       0.429570              0.0022803441            0.000423042574           
       0.430249             0.00217239533            0.000410764216           
       0.430928             0.00283726423            0.000479697653           
       0.431607             0.00258121794            0.000449679383           
       0.432287             0.00198096164            0.000396823921           
       0.432966              0.0021024683            0.000412408779           
       0.433645             0.00209664674            0.000412267496           
       0.434324             0.00247747684            0.000445446396           
       0.435003             0.00185290795            0.000385885709           
       0.435682             0.00253832067            0.000455357404           
       0.436361             0.00219935879            0.000423297372           
       0.437041             0.00187526417            0.000390345153           
       0.437720             0.00147719533            0.000348117827           
       0.438399             0.00191906913            0.000398853119           
       0.439078             0.00230797225            0.000450088111           
       0.439757             0.00210307148            0.000426997703           
       0.440436             0.00285233639            0.000508484534           
       0.441116             0.00303246407            0.000532867637           
       0.441795             0.00295160872            0.000526349029           
       0.442474             0.00222223778            0.000457982637           
       0.443153             0.00284290576            0.000530091115           
       0.443832             0.00264496355            0.000512165784           
       0.444511             0.00244198365            0.000489903811           
       0.445191             0.00143063465            0.000384096916           
       0.445870             0.00359908385            0.000609234227           
       0.446549             0.00241888952            0.000504721754           
       0.447228             0.00175839713            0.000427899229           
       0.447907             0.00254820431            0.000521291177           
       0.448586             0.00281706707             0.00056129051           
       0.449266             0.00155134998            0.000412696487           
       0.449945             0.00282594873            0.000554731699           
       0.450624             0.00184686099            0.000455575667           
       0.451303             0.00185751838            0.000462810765           
       0.451982             0.00229224395            0.000510945067           
       0.452661             0.00133456244            0.000397127298           
       0.453341               0.001464343            0.000417446665           
       0.454020                0.00170677            0.000451365546           
       0.454699             0.00345625488            0.000648175031           
       0.455378             0.00174199807            0.000460411595           
       0.456057             0.00257944504            0.000570218623           
       0.456736             0.00218258636            0.000522886687           
       0.457416             0.00180468543            0.000475482956           
       0.458095             0.00226149077            0.000539972554           
       0.458774             0.00179298029            0.000487151406           
       0.459453              0.0011510059            0.000392283311           
       0.460132             0.00171878072            0.000469017971           
       0.460811             0.00120042084            0.000406587856           
       0.461490             0.00074951907            0.000318008987           
       0.462170             0.00092967711            0.000359698908           
       0.462849             0.00180343716            0.000504232989           
       0.463528             0.00248659347            0.000590710743           
       0.464207             0.00169131209            0.000496289852           
       0.464886             0.00153928577            0.000469773175           
       0.465565             0.00154083114            0.000475172037           
       0.466245             0.00085946329            0.000355985735           
       0.466924            0.000906654647             0.00037426518           
       0.467603             0.00159887504            0.000486468688           
       0.468282            0.000759695024            0.000343277658           
       0.468961             0.00125372601            0.000443885429           
       0.469640             0.00109189348             0.00041589989           
       0.470320             0.00110557707            0.000418787054           
       0.470999             0.00159614912             0.00050794011           
       0.471678             0.00131628466            0.000465698906           
       0.472357             0.00165702767            0.000523969402           
       0.473036              0.0010200328            0.000413695514           
       0.473715              0.0010256343            0.000418075011           
       0.474395            0.000907132356            0.000398616692           
       0.475074             0.00090494282            0.000398146929           
       0.475753             0.00172568484            0.000545066973           
       0.476432             0.00206535897            0.000618011847           
       0.477111             0.00075028172            0.000367982646           
       0.477790            4.17098114e-05            8.72265141e-05           
       0.478470            0.000592805053            0.000333189234           
       0.479149            0.000448069023            0.000292668795           
       0.479828            0.000437681325            0.000288575461           
       0.480507            0.000816354721              0.0003972896           
       0.481186            0.000488412122            0.000314226104           
       0.481865            0.000850176223            0.000409441594           
       0.482545            0.000671539194            0.000368166938           
       0.483224             0.00150216691            0.000554403101           
       0.483903           -0.000110792052                         0           
       0.484582            0.000321856027            0.000264905252           
       0.485261             0.00029085429            0.000245444071           
       0.485940            0.000973358532            0.000467118178           
       0.486619            0.000562317846            0.000351137688           
       0.487299            0.000825370515            0.000432195068           
       0.487978            0.000342409846            0.000275537681           
       0.488657           -0.000320439124                         0           
       0.489336            0.000149795309            0.000186438857           
       0.490015            0.000338911538            0.000282637756           
       0.490694           -0.000320497404                         0           
       0.491374            0.000161580368            0.000198108431           
       0.492053            0.000697725277            0.000422965226           
       0.492732           -0.000320555627                         0           
       0.493411            0.000192781626            0.000222104927           
       0.494090           -6.23816772e-05                         0           
       0.494769           -0.000320614409                         0           
       0.495449            0.000200323124            0.000230138478           
       0.496128            0.000220546032              0.0002439128           
       0.496807            -0.00032067328                         0           
       0.497486           -5.34540755e-05                         0           
       0.498165           -0.000320712922                         0           
       0.498844           -0.000320732583                         0           
       0.499524           -0.000320752337                         0           
       0.500203           -0.000320772405                         0           
       0.500882           -2.22658482e-05                         0           
       0.501561           -0.000320811812                         0           
       0.502240           -3.03689964e-05                         0           
       0.502919           -0.000320851719                         0           
       0.503599           -0.000320871709                         0           
       0.504278           -0.000320891979                         0           
       0.504957            -0.00032091201                         0           
       0.505636           -0.000320931914                         0           
       0.506315           -0.000320952145                         0           
       0.506994            0.000343992332             0.00034219007           
       0.507673            0.000375996971             0.00036188986           
       0.508353           -0.000321012091                         0           
       0.509032           -0.000321032251                         0           
       0.509711            -0.00032105242                         0           
       0.510390            0.000405999949            0.000383391576           
       0.511069             4.7946984e-05            0.000132155763           
       0.511748           -0.000321113659                         0           
       0.512428            -0.00032113414                         0           
       0.513107            6.25461412e-05            0.000154507174           
       0.513786            8.24941911e-05            0.000182440349           
       0.514465            5.56727431e-05            0.000145090508           
       0.515144           -0.000321215668                         0           
       0.515823            -0.00032123604                         0           
       0.516503            0.000101066897            0.000206516549           
       0.517182           -0.000321277165                         0           
       0.517861            0.000100316664            0.000207221095           
       0.518540           -0.000321318304                         0           
       0.519219            0.000113318404            0.000222644648           
       0.519898            0.000141294057             0.00025718034           
       0.520578           -0.000321380367                         0           
       0.521257            0.000178509966            0.000297302429           
       0.521936           -0.000321421558                         0           
       0.522615           -0.000321442425                         0           
       0.523294            -0.00032146337                         0           
       0.523973           -0.000321484024                         0           
       0.524653            -0.00032150453                         0           
       0.525332             0.00015596204            0.000272397792           
       0.526011            0.000197329684            0.000319978583           
       0.526690           -0.000321567652                         0           
       0.527369           -0.000321588616                         0           
       0.528048            0.000176236863            0.000299216531           
       0.528728           -0.000321630817                         0           
       0.529407           -0.000321651808                         0           
       0.530086            -0.00032167269                         0           
       0.530765             0.00190114945             0.00104665364           
       0.531444           -0.000321714739                         0           
       0.532123           -0.000321736251                         0           
       0.532802            0.000777268762            0.000650879598           
       0.533482            0.000255522608            0.000386550815           
       0.534161            0.000253448531            0.000380402682           
       0.534840           -0.000321821262                         0           
       0.535519           -0.000321842768                         0           
       0.536198            0.000876028295            0.000721097641           
       0.536877            0.000966847427            0.000789324088           
       0.537557           -0.000321906392                         0           
       0.538236           -0.000321927935                         0           
       0.538915           -0.000321949471                         0           
       0.539594           -0.000321970977                         0           
       0.540273            -0.00032199282                         0           
       0.540952           -0.000322014419                         0           
       0.541632           -0.000322035624                         0           
       0.542311           -0.000322057023                         0           
       0.542990           -0.000322078661                         0           
       0.543669            0.000955733648            0.000782946325           
       0.544348           -0.000322122274                         0           
       0.545027           -0.000322144021                         0           
       0.545707           -0.000322165833                         0           
       0.546386           -0.000322187707                         0           
       0.547065           -0.000322209318                         0           
       0.547744           -0.000322231027                         0           
       0.548423           -0.000322252976                         0           
       0.549102           -0.000322274947                         0           
       0.549782           -0.000322296807                         0           
       0.550461             0.00049725446            0.000641065801           
       0.551140           -0.000322341179                         0           
       0.551819             0.00133319309             0.00106071328           
       0.552498           -0.000322385347                         0           
       0.553177           -0.000322407144                         0           
       0.553856            0.000596199708            0.000735586771           
       0.554536           -0.000322450966                         0           
       0.555215           -0.000322473248                         0           
       0.555894           -0.000322495477                         0           
       0.556573           -0.000322517838                         0           
       0.557252           -0.000322540181                         0           
       0.557931           -0.000322562423                         0           
       0.558611           -0.000322585184                         0           
       0.559290           -0.000322607367                         0           
       0.559969           -0.000322629004                         0           
       0.560648           -0.000322651215                         0           
       0.561327            -0.00032267392                         0           
       0.562006            -0.00032269652                         0           
       0.562686           -0.000322719133                         0           
       0.563365            -0.00032274183                         0           
       0.564044           -0.000322764411                         0           
       0.564723           -0.000322786943                         0           
       0.565402           -0.000322809055                         0           
       0.566081           -0.000322831315                         0           
       0.566761           -0.000322853813                         0           
       0.567440             0.00107367125             0.00122843343           
       0.568119           -0.000322899544                         0           
       0.568798             0.00112173322             0.00127820874           
       0.569477           -0.000322945585                         0           
       0.570156             0.00260778347             0.00196090163           
       0.570836           -0.000322991614                         0           
       0.571515           -0.000323014099                         0           
       0.572194             0.00274370281             0.00204940632           
       0.572873           -0.000323059844                         0           
       0.573552           -0.000323082319                         0           
       0.574231           -0.000323105249                         0           
       0.574911           -0.000323128758                         0           
       0.575590           -0.000323151814                         0           
       0.576269           -0.000323174799                         0           
       0.576948           -0.000323198227                         0           
       0.577627            -0.00032322094                         0           
       0.578306           -0.000323243973                         0           
       0.578985           -0.000323267203                         0           
       0.579665           -0.000323290299                         0           
       0.580344           -0.000323313745                         0           
       0.581023           -0.000323337165                         0           
       0.581702           -0.000323360369                         0           
       0.582381           -0.000323383362                         0           
       0.583060           -0.000323407041                         0           
       0.583740           -0.000323430348                         0           
       0.584419           -0.000323453733                         0           
       0.585098           -0.000323477089                         0           
       0.585777           -0.000323500628                         0           
       0.586456           -0.000323524549                         0           
       0.587135           -0.000323547835                         0           
       0.587815           -0.000323570869                         0           
       0.588494           -0.000323594621                         0           
       0.589173           -0.000323618918                         0           
       0.589852           -0.000323641924                         0           
       0.590531           -0.000323665798                         0           
       0.591210            -0.00032368912                         0           
       0.591890           -0.000323712893                         0           
       0.592569           -0.000323735871                         0           
       0.593248           -0.000323760993                         0           
       0.593927           -0.000323784877                         0           
       0.594606           -0.000323809253                         0           
       0.595285           -0.000323832177                         0           
       0.595965           -0.000323853568                         0           
       0.596644           -0.000323875581                         0           
