################################################################################
# EDF_DataBlockID                     0.Image.Psd
# EDF_BinarySize                      2105344
# EDF_HeaderSize                      2560
# ByteOrder                           LowByteFirst
# DataType                            FloatValue
# Dim_1                               512
# Dim_2                               1028
# Image                               0
# HeaderID                            EH:000000:000000:000000
# Size                                2105344
# Center_1                            304.9000
# Center_2                            588.7000
# Comment                             Xenocs_Cell_Window - 20251028_20perc_iodine_1.23mg
# DDummy                              0.6
# Date                                2025-10-31T07:22:26
# Delta                               21.910000
# Dummy                               -1.5
# ExposureTime                        360
# Gamma                               15.360000
# Intensity1                          8.52727e-10
# PSize_1                             7.5e-05
# PSize_2                             7.5e-05
# Pressure                            0.0329218
# SampleDistance                      0.115750
# SampleEnvKind                       large
# SampleEnvPN                         ElectroChemical cell
# SampleEnvSN                         1141
# Thickness                           0
# Wavelength                          1.541891e-10
# Wavelength                          1.54189e-10
# aux                                 0
# aux_dial                            0.002375
# beamx                               588.434
# beamx_dial                          588.434
# beamz                               657.808
# beamz_dial                          657.808
# det0x                               0
# det0x_dial                          6.36945
# det0xvd                             0
# det0xvd_dial                        0
# det0y                               450.002
# det0y_dial                          481.635
# det0z                               0
# det0z_dial                          1.23302
# det0zvd                             0
# det0zvd_dial                        0
# mag                                 1.818
# mag_dial                            1.818
# om                                  0.2499
# om_dial                             -0.610199
# phi                                 -0.0120535
# phi_dial                            0
# ry                                  0.599993
# ry_dial                             0.599993
# s1bot                               0.8
# s1bot_dial                          -1.66094
# s1hl                                0.8
# s1hl_dial                           -0.608437
# s1hr                                0.8
# s1hr_dial                           0.970938
# s1top                               0.8
# s1top_dial                          -0.461562
# s2bot                               0.45
# s2bot_dial                          1.36109
# s2hl                                0.45
# s2hl_dial                           -0.83375
# s2hr                                0.45
# s2hr_dial                           -0.118594
# s2top                               0.45
# s2top_dial                          1.44734
# w2theta                             32
# w2theta_dial                        32
# waxsch                              19.2605
# waxsch_dial                         -32.7355
# waxsh                               137.085
# waxsh_dial                          -43.5338
# waxsth                              26.0607
# waxsth_dial                         -19.4086
# waxsz                               67.0407
# waxsz_dial                          -23.7954
# wind                                65.9854
# wind_dial                           66.0041
# wpsi                                124
# wpsi_dial                           124
# wstod                               115
# wstod_dial                          115
# x                                   0
# x_dial                              1.00969
# z                                   0
# z_dial                              13.3172
# CountCutoff                         6807993
# DetectorModel                       Dectris EIGER2 Si 500K, S/N E-01-0554
# ThresholdSetting                    4023.88989258
# Saturation                          0
# FlatField                           Corrected
# BackgroundReductionExtra            0.02
# BackgroundCorrectionConstant        0.0026712
# Detector                            0
# Monitor                             0
# Pil_Roi0                            0
# SumForIntensity1                    3.06982e+08
# TransmittedFlux                     852727
# det                                 0
# mon                                 0
# pilai0                              3.06982e+08
# pilai1                              780956
# pilct0                              5.3178e+08
# pilct1                              780956
# pilroi0                             0
# pilroi1                             0
# sec                                 1
# title                               20251028_20perc_iodine_1.23mg_1_00591.edf
# usaxs0                              0
# Operation                           Azimuthal average I(q)
# Error_model                         ErrorModel.poisson
# Geometrical_correction              True
# Transmission_correction             True
# Thickness_correction                False
# Binning mode                        Uniform
# Binning factor                      1.0
# Psi                                 0.0
# Omega                               0.2499
# MaskInvalidPixels                   True
# DetectorEdge                        3
# MaskFiles                           ['WAXS_corrected.edf']
################################################################################
    q(A⁻¹)                Intensity(a.u.)            Sigma_I(a.u.)            
       0.693100              0.0124524406              0.0074496574           
       0.695741              0.0112233701             0.00577136341           
       0.698381             0.00428280193             0.00436710498           
       0.701021             0.00883970998             0.00886953456           
       0.703662           -2.37613026e-05                         0           
       0.706302           -2.37374085e-05                         0           
       0.708942               0.011460158             0.00582498482           
       0.711583             0.00440235004             0.00312627785           
       0.714223           -2.37136328e-05                         0           
       0.716864             0.00498561235             0.00251313168           
       0.719504             0.00146994889             0.00147256666           
       0.722144             0.00500168803              0.0025155269           
       0.724785             0.00560464692             0.00212410606           
       0.727425             0.00886443132             0.00361382865           
       0.730065             0.00730100955             0.00231992952           
       0.732706             0.00875885202             0.00213380964           
       0.735346             0.00793626323             0.00264767224           
       0.737987             0.00873815948             0.00196319412           
       0.740627             0.00385690018             0.00194607218           
       0.743267             0.00703208545             0.00176004582           
       0.745908              0.0041275473             0.00146297417           
       0.748548             0.00792324964             0.00186834352           
       0.751189              0.0112555769             0.00300058179           
       0.753829             0.00539609861             0.00190979448           
       0.756469             0.00436197797             0.00138459187           
       0.759110             0.00685031331              0.0018285456           
       0.761750             0.00645298522             0.00156924797           
       0.764390             0.00751180798             0.00177210294           
       0.767031             0.00783160129             0.00156689954           
       0.769671             0.00831428391             0.00201392333           
       0.772312             0.00845964698             0.00154652868           
       0.774952              0.0102984287             0.00230423653           
       0.777592              0.0073562121             0.00141848872           
       0.780233             0.00597331963             0.00154216348           
       0.782873             0.00798633842             0.00170545012           
       0.785513             0.00665478741             0.00166431695           
       0.788154             0.00551241602             0.00126713768           
       0.790794             0.00665444203             0.00166443819           
       0.793435             0.00804053959             0.00164363228           
       0.796075             0.00652303784              0.0014261105           
       0.798715             0.00824799963             0.00189502651           
       0.801356             0.00705272127             0.00150818719           
       0.803996             0.00367903825             0.00111054652           
       0.806637             0.00782222968             0.00128868599           
       0.809277             0.00998033925             0.00157556313           
       0.811917             0.00849117442             0.00135857834           
       0.814558             0.00796188567             0.00136728369           
       0.817198             0.00697647075             0.00121594405           
       0.819838             0.00566763515             0.00110919744           
       0.822479             0.00840028859             0.00158571129           
       0.825119             0.00714532521             0.00124474886           
       0.827760             0.00799809734             0.00133400334           
       0.830400             0.00727601522             0.00119752773           
       0.833040             0.00820647599              0.0013324496           
       0.835681             0.00757187766              0.0014550212           
       0.838321             0.00472575673             0.00096479918           
       0.840961             0.00606143822             0.00119051556           
       0.843602             0.00861056857              0.0013012233           
       0.846242             0.00802654561             0.00125613256           
       0.848883             0.00824186003             0.00130259836           
       0.851523             0.00501001767             0.00100297246           
       0.854163              0.0102014684             0.00152201838           
       0.856804             0.00642294159              0.0010858791           
       0.859444             0.00721003265             0.00112725858           
       0.862085             0.00537144304             0.00101408055           
       0.864725             0.00743253595             0.00122078596           
       0.867365             0.00620740535             0.00103452733           
       0.870006             0.00639839557             0.00100087615           
       0.872646              0.0091497407             0.00125509022           
       0.875286             0.00714079869             0.00106671145           
       0.877927             0.00830793391             0.00111026438           
       0.880567             0.00880662154             0.00118427573           
       0.883208             0.00670155262               0.001023352           
       0.885848             0.00723514249             0.00110403821           
       0.888488             0.00812573248             0.00109740284           
       0.891129             0.00667820888              0.0010215203           
       0.893769             0.00713896885              0.0010107843           
       0.896410             0.00694492752            0.000929509361           
       0.899050             0.00631106452            0.000974443254           
       0.901690             0.00676994866             0.00109936442           
       0.904331             0.00870148544             0.00110497232           
       0.906971             0.00634192484             0.00100355143           
       0.909611             0.00883934501             0.00107853252           
       0.912252             0.00614703092              0.0009289922           
       0.914892             0.00652282944             0.00104576194           
       0.917533             0.00639889316            0.000979843486           
       0.920173             0.00591956622            0.000874389995           
       0.922813             0.00655069411            0.000965249804           
       0.925454             0.00760567262            0.000936559351           
       0.928094             0.00627820492            0.000908419442           
       0.930734             0.00761383367             0.00107703302           
       0.933375             0.00759890641             0.00106539918           
       0.936015               0.008614665              0.0010302536           
       0.938656             0.00952583378             0.00116219905           
       0.941296             0.00512888948            0.000772860056           
       0.943936             0.00726574247            0.000902080801           
       0.946577             0.00773007416            0.000924307645           
       0.949217             0.00697999603            0.000807694027           
       0.951858              0.0101287629              0.0010185008           
       0.954498             0.00685361586            0.000969744724           
       0.957138              0.0077620487            0.000977692329           
       0.959779             0.00729867546            0.000934592795           
       0.962419             0.00636698714            0.000867099538           
       0.965059             0.00771489171             0.00100386334           
       0.967700             0.00780620461             0.00103422196           
       0.970340             0.00727986881            0.000883792409           
       0.972981             0.00764573081            0.000825205489           
       0.975621             0.00725520566            0.000855162719           
       0.978261             0.00864150596            0.000886793707           
       0.980902             0.00765296617            0.000998475423           
       0.983542             0.00826684109            0.000918994272           
       0.986182             0.00858999575            0.000919728819           
       0.988823             0.00734153154            0.000825613261           
       0.991463             0.00730037344            0.000878370646           
       0.994104             0.00883298594            0.000942525642           
       0.996744             0.00786207768            0.000906994884           
       0.999384             0.00828780275            0.000832829057           
       1.002025             0.00824711245            0.000927262567           
       1.004665             0.00835860926             0.00085311226           
       1.007306             0.00670749685             0.00076031007           
       1.009946             0.00625802329            0.000748979084           
       1.012586             0.00790089803            0.000819637892           
       1.015227             0.00676983609            0.000815086564           
       1.017867             0.00806621691             0.00085507507           
       1.020507             0.00773936787            0.000811302102           
       1.023148             0.00871439523            0.000928925601           
       1.025788             0.00723838039            0.000776273919           
       1.028429             0.00914471005            0.000914116349           
       1.031069             0.00637623748            0.000718300407           
       1.033709             0.00784852397            0.000847134046           
       1.036350             0.00714389461            0.000725885479           
       1.038990             0.00834121693            0.000798773441           
       1.041630             0.00689661195            0.000757557007           
       1.044271             0.00882349352            0.000805860256           
       1.046911             0.00757647927            0.000785479861           
       1.049552             0.00937899885            0.000918180539           
       1.052192             0.00846994129            0.000796748241           
       1.054832             0.00733187369            0.000748033853           
       1.057473             0.00861814275            0.000799474321           
       1.060113             0.00762847059             0.00073357097           
       1.062754              0.0101463454             0.00086376671           
       1.065394             0.00583551269            0.000692567863           
       1.068034              0.0089866605            0.000781984132           
       1.070675             0.00934535836            0.000831825473           
       1.073315             0.00678543216            0.000718958528           
       1.075955             0.00821244899            0.000746706136           
       1.078596             0.00849592423            0.000807180937           
       1.081236             0.00793988915            0.000747207433           
       1.083877             0.00710727764            0.000700603221           
       1.086517             0.00777599676            0.000785799688           
       1.089157             0.00967642173            0.000909549229           
       1.091798             0.00787325535            0.000719291876           
       1.094438             0.00948185842            0.000786811574           
       1.097078             0.00949405808            0.000755120172           
       1.099719             0.00816165429            0.000757298582           
       1.102359             0.00764794008             0.00068653647           
       1.105000             0.00724043843            0.000746949612           
       1.107640             0.00780044868            0.000741310963           
       1.110280             0.00902811237            0.000727672028           
       1.112921             0.00973791337            0.000811823958           
       1.115561             0.00813937908            0.000705404804           
       1.118202             0.00864295546            0.000727583668           
       1.120842             0.00926492839            0.000791732057           
       1.123482             0.00862483724            0.000760556814           
       1.126123             0.00819133134            0.000710931784           
       1.128763             0.00868016034            0.000736855038           
       1.131403             0.00930235978            0.000735030013           
       1.134044             0.00916760354            0.000750849371           
       1.136684             0.00874246772            0.000781753383           
       1.139325             0.00716518462            0.000651958335           
       1.141965             0.00869939876            0.000723123358           
       1.144605             0.00846787031            0.000680263101           
       1.147246             0.00897797698            0.000716853155           
       1.149886             0.00921381173            0.000723629327           
       1.152527             0.00952169579            0.000746317585           
       1.155167               0.008782816            0.000681763086           
       1.157807             0.00992606611            0.000777091451           
       1.160448              0.0094679986            0.000741133212           
       1.163088             0.00760324371            0.000633502041           
       1.165728              0.0105625855            0.000766628994           
       1.168369              0.0095583854            0.000736014272           
       1.171009             0.00911403237            0.000697481434           
       1.173650             0.00848070361            0.000690464868           
       1.176290             0.00875469681            0.000685552103           
       1.178930              0.0101051133            0.000721866567           
       1.181571             0.00943506613            0.000711355583           
       1.184211             0.00970090453            0.000723864847           
       1.186851             0.00930374169            0.000693073681           
       1.189492             0.00892461115            0.000674238642           
       1.192132              0.0100977062            0.000709136791           
       1.194773              0.0103525217            0.000721165828           
       1.197413             0.00972927694            0.000669856899           
       1.200053              0.0096039406            0.000682438291           
       1.202694              0.0095190699            0.000646085949           
       1.205334             0.00865803148             0.00066404157           
       1.207975             0.00897980563            0.000645517351           
       1.210615             0.00924768929            0.000722659097           
       1.213255             0.00928675726            0.000648490073           
       1.215896             0.00952745388            0.000668741464           
       1.218536             0.00886970441            0.000620430324           
       1.221176             0.00928447442            0.000690126356           
       1.223817             0.00943504638            0.000653065346           
       1.226457             0.00969257354            0.000675253157           
       1.229098             0.00827290168            0.000623813607           
       1.231738              0.0109379366             0.00072081831           
       1.234378              0.0100050263            0.000647788869           
       1.237019             0.00979274679            0.000660420634           
       1.239659             0.00883885691            0.000621966088           
       1.242299              0.0085460998            0.000603808905           
       1.244940             0.00825631046            0.000577199769           
       1.247580             0.00988866529            0.000651005167           
       1.250221              0.0107919533            0.000675892409           
       1.252861              0.0107351718            0.000641757838           
       1.255501             0.00972616553            0.000663270823           
       1.258142              0.0107691054            0.000655827451           
       1.260782              0.0105438119            0.000662972208           
       1.263423              0.0112441214            0.000657857049           
       1.266063             0.00965167017            0.000624714702           
       1.268703              0.0105885613            0.000648903525           
       1.271344              0.0103227306            0.000662420237           
       1.273984              0.0114999273            0.000675261938           
       1.276624              0.0100358178            0.000618962883           
       1.279265              0.0101251035            0.000632034622           
       1.281905              0.0100548143            0.000632632297           
       1.284546              0.0116783322            0.000659018112           
       1.287186              0.0120946014              0.0006579891           
       1.289826              0.0100936436            0.000633510439           
       1.292467               0.010913276            0.000644220808           
       1.295107              0.0106532702            0.000630177619           
       1.297747              0.0105063501            0.000598855003           
       1.300388             0.00997087465            0.000635973719           
       1.303028              0.0097549548            0.000600528892           
       1.305669             0.00940051315            0.000603554946           
       1.308309              0.0107167309            0.000638078657           
       1.310949              0.0104986551            0.000630918436           
       1.313590              0.0110953545            0.000628325536           
       1.316230             0.00975189956            0.000628607653           
       1.318871              0.0102719465            0.000631846268           
       1.321511              0.0119857857            0.000669873813           
       1.324151               0.011578985            0.000638888465           
       1.326792              0.0106717999            0.000617142357           
       1.329432              0.0114219447            0.000633958674           
       1.332072              0.0109762066            0.000612203813           
       1.334713              0.0107106323            0.000624164275           
       1.337353               0.011187465            0.000611765295           
       1.339994              0.0117236827            0.000657191952           
       1.342634              0.0106725543            0.000601290804           
       1.345274              0.0110875575             0.00063426279           
       1.347915              0.0108977839            0.000611446822           
       1.350555              0.0115778156            0.000641273417           
       1.353195              0.0112396335            0.000634941645           
       1.355836              0.0116754165            0.000637042738           
       1.358476              0.0115695947            0.000615855155           
       1.361117              0.0117944211            0.000622663682           
       1.363757              0.0108499198            0.000615447542           
       1.366397               0.011292526            0.000608874931           
       1.369038              0.0118215349            0.000629176451           
       1.371678              0.0115985158            0.000617719047           
       1.374319             0.00955482741             0.00055583433           
       1.376959               0.011778094            0.000610916481           
       1.379599              0.0113496531            0.000642699131           
       1.382240               0.010415676            0.000578653579           
       1.384880               0.011469987            0.000643199219           
       1.387520              0.0106049984            0.000587381004           
       1.390161               0.010549291            0.000556403691           
       1.392801              0.0110429477            0.000593127679           
       1.395442              0.0115598997            0.000615140107           
       1.398082               0.010875891            0.000558749321           
       1.400722              0.0102574149            0.000568392133           
       1.403363              0.0109942911            0.000619419608           
       1.406003              0.0107233348            0.000572505664           
       1.408644              0.0111282698            0.000610955624           
       1.411284              0.0102934072            0.000556396909           
       1.413924              0.0109998641            0.000573041081           
       1.416565              0.0109858422             0.00057042619           
       1.419205              0.0103742647            0.000578245402           
       1.421845              0.0106131951             0.00058452288           
       1.424486              0.0108395503             0.00056782084           
       1.427126              0.0115463556            0.000608783491           
       1.429767              0.0106962884            0.000551303147           
       1.432407              0.0106704068            0.000576253182           
       1.435047              0.0118691818            0.000570788994           
       1.437688              0.0109790485            0.000557176702           
       1.440328              0.0108438306            0.000565148705           
       1.442968              0.0107499652            0.000575304947           
       1.445609              0.0110162538            0.000563911957           
       1.448249              0.0111914892            0.000582770317           
       1.450890              0.0108284289            0.000569498116           
       1.453530              0.0104462406            0.000585200605           
       1.456170              0.0102354933            0.000562192669           
       1.458811              0.0107642515            0.000551291257           
       1.461451              0.0112852344            0.000565955455           
       1.464092              0.0104016173            0.000546899455           
       1.466732              0.0115076253            0.000570297914           
       1.469372              0.0108278255            0.000540250161           
       1.472013              0.0104727986            0.000573038569           
       1.474653              0.0110670592            0.000579985102           
       1.477293              0.0115624778            0.000605319311           
       1.479934              0.0122451784            0.000594408617           
       1.482574               0.010769577             0.00053924074           
       1.485215              0.0115367263            0.000568511295           
       1.487855               0.010696623            0.000554641995           
       1.490495               0.010698425            0.000552645841           
       1.493136              0.0119574609            0.000576252034           
       1.495776              0.0099831193             0.00052413615           
       1.498416             0.00956178355            0.000529738857           
       1.501057              0.0107751671            0.000549953706           
       1.503697              0.0104313446            0.000529019767           
       1.506338              0.0110551407            0.000554559736           
       1.508978              0.0105837952            0.000537272717           
       1.511618              0.0104796707            0.000569371219           
       1.514259              0.0101232514            0.000540272559           
       1.516899              0.0112404949            0.000554315138           
       1.519540             0.00988357937            0.000528163767           
       1.522180              0.0104428894            0.000547671588           
       1.524820              0.0105789189            0.000548134403           
       1.527461             0.00997651803            0.000534931901           
       1.530101              0.0107423871            0.000549533442           
       1.532741              0.0091492845             0.00050420782           
       1.535382              0.0101892809            0.000540659333           
       1.538022              0.0107576604             0.00052334269           
       1.540663              0.0095375383            0.000530005949           
       1.543303              0.0100526998            0.000505235075           
       1.545943              0.0112479785              0.0005656528           
       1.548584              0.0105803662            0.000558457031           
       1.551224               0.010492489            0.000514197527           
       1.553864              0.0103825393            0.000540491441           
       1.556505             0.00933894122            0.000495193135           
       1.559145              0.0107416655            0.000537587735           
       1.561786              0.0102126533            0.000524586582           
       1.564426              0.0104617598            0.000514431274           
       1.567066              0.0110050544            0.000552844249           
       1.569707              0.0105478594            0.000531516379           
       1.572347              0.0109142233            0.000558564405           
       1.574988              0.0107620721            0.000527940816           
       1.577628              0.0101069233            0.000533492604           
       1.580268             0.00931169426            0.000496145795           
       1.582909             0.00955738306            0.000532787502           
       1.585549             0.00976714427            0.000522965775           
       1.588189             0.00917920428             0.00049591629           
       1.590830             0.00985160311             0.00051311402           
       1.593470             0.00975739499            0.000530874571           
       1.596111              0.0094126897            0.000509061062           
       1.598751             0.00998144126             0.00050794699           
       1.601391             0.00953294514            0.000507356085           
       1.604032              0.0098239668            0.000525809188           
       1.606672             0.00821508103            0.000467171021           
       1.609312             0.00896068298            0.000509321925           
       1.611953             0.00853125938            0.000486314126           
       1.614593             0.00843273002            0.000474272949           
       1.617234               0.010082864            0.000537469554           
       1.619874             0.00866851878            0.000496381273           
       1.622514             0.00936475781            0.000508892465           
       1.625155             0.00828935537            0.000481610746           
       1.627795             0.00868749746            0.000480960722           
       1.630436             0.00934501438            0.000496224918           
       1.633076             0.00922217989            0.000499418118           
       1.635716             0.00941165177            0.000496672428           
       1.638357             0.00935424853             0.00049646062           
       1.640997             0.00932798925            0.000510780974           
       1.643637              0.0100032526            0.000514724046           
       1.646278              0.0093984235            0.000514596626           
       1.648918             0.00863542974            0.000494611856           
       1.651559             0.00871599298            0.000500770497           
       1.654199             0.00909615852            0.000497551619           
       1.656839             0.00870456356            0.000486893756           
       1.659480             0.00848224797            0.000498684654           
       1.662120             0.00869033545            0.000475404993           
       1.664761             0.00892844244            0.000500542506           
       1.667401             0.00907050939            0.000482202616           
       1.670041             0.00918743544             0.00049270039           
       1.672682             0.00855157938            0.000473391242           
       1.675322             0.00876255374            0.000476113679           
       1.677962             0.00824615523             0.00045677636           
       1.680603             0.00868701509            0.000470270282           
       1.683243             0.00869788492            0.000490946201           
       1.685884             0.00969365878            0.000522115112           
       1.688524             0.00912148155            0.000496681428           
       1.691164             0.00900700171            0.000493666791           
       1.693805              0.0093634489            0.000508869704           
       1.696445             0.00847067003            0.000486810005           
       1.699085             0.00838361223             0.00046807389           
       1.701726             0.00904457353            0.000468345011           
       1.704366             0.00811298775            0.000467288937           
       1.707007             0.00792139259            0.000451445612           
       1.709647             0.00928949999             0.00049439933           
       1.712287             0.00878422517            0.000484950356           
       1.714928             0.00825162451            0.000473808427           
       1.717568             0.00892814811             0.00046426557           
       1.720209             0.00823336456            0.000466981559           
       1.722849             0.00873315305            0.000478473712           
       1.725489             0.00892777428             0.00048418203           
       1.728130             0.00796982289            0.000486161052           
       1.730770             0.00903397124            0.000491581925           
       1.733410               0.008166092            0.000460026422           
       1.736051             0.00876945768            0.000480036683           
       1.738691             0.00983857768            0.000498149902           
       1.741332               0.008899351            0.000487629522           
       1.743972             0.00845926408            0.000490951509           
       1.746612             0.00793598456            0.000456624554           
       1.749253             0.00798815392            0.000467170159           
       1.751893             0.00828607284            0.000472309519           
       1.754533             0.00840665814            0.000475289532           
       1.757174             0.00930882139            0.000495459085           
       1.759814             0.00925609606            0.000486565049           
       1.762455             0.00826171226            0.000468127603           
       1.765095              0.0084900384            0.000453966931           
       1.767735             0.00865013677            0.000472363516           
       1.770376             0.00736586103            0.000437038837           
       1.773016             0.00909926638            0.000482494818           
       1.775657             0.00779652229            0.000440195531           
       1.778297             0.00895886055            0.000467805913           
       1.780937             0.00905863275            0.000496510839           
       1.783578             0.00904847952            0.000483824592           
       1.786218             0.00827387891            0.000482828282           
       1.788858             0.00859371412             0.00046734958           
       1.791499             0.00805910046            0.000447496419           
       1.794139             0.00865085655            0.000459873043           
       1.796780             0.00925090478            0.000473262122           
       1.799420             0.00823593322             0.00044407298           
       1.802060             0.00889940235            0.000465341941           
       1.804701             0.00970819359            0.000466414263           
       1.807341             0.00947761687             0.00048424485           
       1.809981             0.00951463312            0.000486807216           
       1.812622             0.00976429784            0.000484274439           
       1.815262             0.00885950132            0.000471090637           
       1.817903               0.009703953            0.000485725766           
       1.820543             0.00914998117            0.000479007158           
       1.823183             0.00843391014            0.000459629156           
       1.825824             0.00911458591            0.000456486963           
       1.828464             0.00884490679            0.000468814043           
       1.831105             0.00894006909            0.000458298031           
       1.833745             0.00880605632            0.000464564308           
       1.836385              0.0087822285            0.000477175356           
       1.839026             0.00893290347             0.00047973086           
       1.841666             0.00860826507            0.000469263135           
       1.844306             0.00863671833            0.000457212816           
       1.846947             0.00864052741            0.000461322317           
       1.849587             0.00837802355             0.00050161389           
       1.852228             0.00928435046            0.000477487486           
       1.854868             0.00898491733            0.000496194533           
       1.857508             0.00756464068            0.000450825573           
       1.860149             0.00986590982            0.000524206798           
       1.862789             0.00812905143            0.000459288312           
       1.865429             0.00944133352            0.000516676817           
       1.868070              0.0098852763            0.000521638224           
       1.870710              0.0101753661            0.000517035451           
       1.873351             0.00909059003            0.000494740306           
       1.875991             0.00846501321            0.000485205414           
       1.878631             0.00806772363            0.000464610417           
       1.881272             0.00944022779            0.000499211965           
       1.883912             0.00883139371            0.000502501942           
       1.886553             0.00908950975            0.000504092907           
       1.889193             0.00779863422            0.000466129871           
       1.891833             0.00848848104             0.00050505126           
       1.894474             0.00841475168            0.000498473742           
       1.897114              0.0081627473            0.000475084851           
       1.899754             0.00871806532            0.000493033465           
       1.902395             0.00873091714            0.000483750239           
       1.905035             0.00924691214            0.000527295802           
       1.907676             0.00959302595            0.000506193394           
       1.910316             0.00919847857            0.000508835606           
       1.912956             0.00952434249            0.000506379127           
       1.915597             0.00800201937            0.000466743789           
       1.918237             0.00794872091            0.000480424765           
       1.920878             0.00854126706             0.00049597115           
       1.923518             0.00885096065            0.000505096896           
       1.926158             0.00893170606            0.000500811401           
       1.928799             0.00852687351             0.00048366594           
       1.931439             0.00851891124            0.000496120207           
       1.934079             0.00840319661            0.000513668514           
       1.936720             0.00894691322            0.000491084623           
       1.939360             0.00849422358            0.000510492335           
       1.942001             0.00890957766            0.000479195452           
       1.944641             0.00808581817            0.000465497741           
       1.947281             0.00812738196            0.000462390876           
       1.949922              0.0082767609            0.000481978046           
       1.952562             0.00925940762            0.000525766467           
       1.955202             0.00823906369            0.000495348097           
       1.957843             0.00821516775            0.000481802081           
       1.960483             0.00854356334            0.000513692772           
       1.963124              0.0076651882            0.000476587828           
       1.965764             0.00945978934            0.000499283095           
       1.968404             0.00779496798            0.000448942175           
       1.971045             0.00865047778            0.000482184132           
       1.973685             0.00917634097            0.000520921424           
       1.976326             0.00810832116            0.000482939465           
       1.978966             0.00807240933            0.000486097614           
       1.981606             0.00926696908            0.000531685838           
       1.984247             0.00861602535            0.000509301573           
       1.986887              0.0079045485            0.000481977001           
       1.989527             0.00822235036            0.000486276541           
       1.992168             0.00844374339            0.000511300743           
       1.994808              0.0089416819            0.000523905405           
       1.997449             0.00777005004            0.000478347406           
       2.000089             0.00744503822            0.000466379791           
       2.002729             0.00766707394            0.000473566942           
       2.005370             0.00894687232            0.000506062289           
       2.008010             0.00913172761            0.000533576799           
       2.010650             0.00780654692            0.000497025365           
       2.013291             0.00835298174            0.000493275741           
       2.015931             0.00788905135            0.000475992926           
       2.018572             0.00796877363            0.000511685418           
       2.021212             0.00785693976            0.000498953657           
       2.023852             0.00739592233            0.000458172135           
       2.026493              0.0076452492            0.000486643289           
       2.029133             0.00754935507            0.000473850067           
       2.031774             0.00776289298            0.000504279214           
       2.034414              0.0076292878            0.000459996648           
       2.037054             0.00777696706            0.000476199069           
       2.039695             0.00827885165            0.000487613788           
       2.042335             0.00820195761             0.00050437899           
       2.044975             0.00820468345            0.000498345043           
       2.047616             0.00788677283            0.000487381159           
       2.050256             0.00704902877            0.000465130008           
       2.052897             0.00823701618            0.000512068712           
       2.055537             0.00689881085            0.000452913405           
       2.058177             0.00798515382            0.000477168751           
       2.060818             0.00731024218            0.000478280172           
       2.063458             0.00875929508            0.000545582198           
       2.066098             0.00823044467            0.000498888167           
       2.068739             0.00898416001            0.000529333076           
       2.071379             0.00786280084            0.000508112979           
       2.074020             0.00832473241            0.000511463084           
       2.076660             0.00663260775            0.000460222672           
       2.079300             0.00635183247            0.000461411256           
       2.081941             0.00766503515            0.000464096324           
       2.084581             0.00751250475            0.000484959741           
       2.087222             0.00850442076            0.000497616613           
       2.089862             0.00842377318            0.000539404494           
       2.092502             0.00844185785            0.000523436622           
       2.095143             0.00806274011            0.000528249851           
       2.097783             0.00720585429            0.000483494634           
       2.100423             0.00780310421            0.000484814757           
       2.103064             0.00781439677            0.000503424342           
       2.105704             0.00769956165            0.000497236458           
       2.108345             0.00734935127            0.000466720627           
       2.110985             0.00827908735            0.000529083725           
       2.113625             0.00680911779            0.000484007401           
       2.116266             0.00703617553             0.00049899159           
       2.118906             0.00756168615            0.000482085448           
       2.121546             0.00762154531            0.000474748953           
       2.124187             0.00807798982            0.000513045268           
       2.126827             0.00757142135            0.000502241903           
       2.129468             0.00723812219            0.000492317316           
       2.132108             0.00697067663            0.000470054805           
       2.134748             0.00734985375            0.000480797424           
       2.137389              0.0073896256            0.000502946424           
       2.140029             0.00732654146            0.000448342279           
       2.142670               0.008183346            0.000506395936           
       2.145310             0.00781086648            0.000481536352           
       2.147950             0.00789817557            0.000498394496           
       2.150591             0.00731847107            0.000474907131           
       2.153231             0.00678860852            0.000470814309           
       2.155871             0.00702869913            0.000462811105           
       2.158512               0.006955902            0.000480403278           
       2.161152             0.00712420119            0.000470944533           
       2.163793             0.00778703708            0.000490149123           
       2.166433             0.00689907556            0.000473765522           
       2.169073             0.00759457757            0.000486006062           
       2.171714             0.00683165559            0.000457503166           
       2.174354             0.00746278365            0.000499642585           
       2.176995             0.00746408106            0.000497583456           
       2.179635             0.00742442774            0.000524405452           
       2.182275             0.00787607254            0.000509959338           
       2.184916              0.0070936406            0.000467448763           
       2.187556             0.00712006096            0.000463624578           
       2.190196             0.00788840554            0.000509952707           
       2.192837             0.00759976495             0.00049781273           
       2.195477             0.00696215302            0.000454259791           
       2.198118             0.00719900502            0.000473758191           
       2.200758             0.00837197309            0.000524150582           
       2.203398             0.00778430506            0.000508652953           
       2.206039             0.00766082207            0.000477563477           
       2.208679             0.00651817801            0.000450762676           
       2.211319             0.00749657787            0.000486198164           
       2.213960             0.00752929446            0.000493786385           
       2.216600             0.00773751069            0.000517825859           
       2.219241             0.00785983215             0.00049879818           
       2.221881             0.00712305937            0.000475820911           
       2.224521             0.00755605866            0.000496074997           
       2.227162             0.00712589542            0.000472101716           
       2.229802             0.00742380646            0.000496953632           
       2.232443             0.00738099247            0.000487702796           
       2.235083             0.00721000795            0.000496239047           
       2.237723             0.00742050313            0.000483114894           
       2.240364             0.00754311531            0.000499089723           
       2.243004             0.00741541939            0.000490897073           
       2.245644             0.00681054744            0.000475159071           
       2.248285             0.00685233338            0.000467066505           
       2.250925             0.00713075965            0.000479355336           
       2.253566              0.0069542125            0.000506083816           
       2.256206             0.00636353221            0.000474434054           
       2.258846             0.00688509506            0.000469449112           
       2.261487             0.00744880988            0.000512504668           
       2.264127             0.00770829378            0.000503516369           
       2.266767             0.00721274048            0.000500039092           
       2.269408              0.0074924452            0.000511729444           
       2.272048             0.00728537406            0.000501596412           
       2.274689             0.00691844914            0.000495242496           
       2.277329             0.00800815932             0.00050168363           
       2.279969             0.00748871527             0.00051640393           
       2.282610             0.00696811419            0.000484276551           
       2.285250             0.00749885355             0.00048084693           
       2.287891             0.00730794682            0.000508935858           
       2.290531             0.00751102942            0.000522894757           
       2.293171             0.00677930833            0.000483901005           
       2.295812              0.0073404667            0.000501506345           
       2.298452             0.00757065964            0.000532601997           
       2.301092             0.00756878878             0.00049479155           
       2.303733             0.00640589257            0.000473563367           
       2.306373             0.00684141693            0.000497104272           
       2.309014             0.00717451727            0.000499131498           
       2.311654             0.00769279227            0.000539352681           
       2.314294             0.00803238263            0.000507756911           
       2.316935             0.00763888951            0.000497209389           
       2.319575              0.0083541904            0.000544805834           
       2.322215             0.00756670928            0.000540357475           
       2.324856             0.00736961564             0.00049028974           
       2.327496             0.00659880239            0.000493315188           
       2.330137             0.00836170804            0.000531394936           
       2.332777             0.00696088372            0.000499925942           
       2.335417             0.00726944871             0.00049563606           
       2.338058             0.00695811871            0.000499391797           
       2.340698             0.00626853748            0.000470275395           
       2.343339             0.00715099032            0.000513340649           
       2.345979             0.00785131518            0.000508887069           
       2.348619             0.00727111657            0.000507624435           
       2.351260             0.00738686968            0.000508668072           
       2.353900             0.00788136709            0.000523753695           
       2.356540             0.00757009797            0.000512578213           
       2.359181             0.00765519176            0.000508224686           
       2.361821             0.00717664339            0.000475339108           
       2.364462              0.0075844538            0.000511075133           
       2.367102             0.00727880071            0.000514519627           
       2.369742             0.00762691089             0.00055436649           
       2.372383             0.00690365613            0.000477583685           
       2.375023              0.0069512332            0.000503770908           
       2.377663             0.00617592181            0.000454022778           
       2.380304             0.00676448309            0.000483087374           
       2.382944             0.00757997824            0.000487071716           
       2.385585             0.00761597457            0.000520702367           
       2.388225             0.00716110889            0.000502540894           
       2.390865              0.0065377367            0.000475237538           
       2.393506             0.00811559886            0.000519500011           
       2.396146             0.00797256893            0.000556735067           
       2.398787              0.0070924342            0.000483926054           
       2.401427             0.00701693655            0.000464607459           
       2.404067             0.00724504793            0.000482629399           
       2.406708             0.00756518128            0.000487263001           
       2.409348             0.00755812984            0.000516596807           
       2.411988             0.00691008374            0.000483965306           
       2.414629             0.00674222805            0.000492939415           
       2.417269             0.00626598563             0.00048075926           
       2.419910             0.00648656953             0.00049028329           
       2.422550             0.00751400125            0.000504856978           
       2.425190             0.00724727188            0.000522641203           
       2.427831             0.00716869157            0.000516878071           
       2.430471             0.00633150828            0.000462780231           
       2.433112             0.00678940054            0.000466648187           
       2.435752             0.00758361266            0.000521946206           
       2.438392             0.00749493492            0.000500830623           
       2.441033             0.00646837067            0.000493091931           
       2.443673             0.00688107169             0.00050897006           
       2.446313             0.00710972671             0.00051781353           
       2.448954              0.0074101937            0.000503341145           
       2.451594             0.00762480108            0.000548990423           
       2.454235              0.0086742508            0.000549398578           
       2.456875             0.00742064405            0.000531707536           
       2.459515             0.00740698642            0.000544969831           
       2.462156             0.00736476197            0.000513058759           
       2.464796             0.00791329416            0.000524960744           
       2.467436             0.00841439915            0.000559795747           
       2.470077             0.00816670387            0.000522716997           
       2.472717             0.00789620971            0.000516213983           
       2.475358             0.00770158657            0.000515128405           
       2.477998             0.00682673217            0.000476812714           
       2.480638             0.00737939967            0.000504546456           
       2.483279             0.00750276845             0.00053172117           
       2.485919              0.0071297114            0.000499532695           
       2.488560             0.00747430007            0.000510032703           
       2.491200             0.00761210208            0.000530018269           
       2.493840             0.00681365623            0.000530601003           
       2.496481             0.00707419464            0.000531806455           
       2.499121             0.00615399604            0.000482452581           
       2.501761             0.00706354561            0.000523725601           
       2.504402             0.00753536733            0.000533031428           
       2.507042             0.00714168587            0.000515076549           
       2.509683             0.00709345654            0.000505488846           
       2.512323             0.00702849972            0.000528452529           
       2.514963              0.0070443391             0.00052251155           
       2.517604             0.00700934314            0.000540837635           
       2.520244             0.00670579679            0.000495935917           
       2.522884             0.00727525059            0.000523951607           
       2.525525             0.00706120501            0.000522045278           
       2.528165             0.00885740009            0.000575571032           
       2.530806             0.00804847012            0.000558222201           
       2.533446              0.0115636092            0.000654827718           
       2.536086             0.00950053479            0.000588233532           
       2.538727             0.00723954381            0.000492614879           
       2.541367             0.00707238007            0.000491690474           
       2.544008             0.00658799686            0.000490098499           
       2.546648             0.00724053954            0.000522610699           
       2.549288             0.00769041333            0.000549576099           
       2.551929             0.00756355122            0.000536336534           
       2.554569              0.0073803845             0.00051042036           
       2.557209             0.00697952524            0.000500923835           
       2.559850             0.00663928813            0.000490130683           
       2.562490             0.00730871359            0.000531501688           
       2.565131             0.00727606469            0.000549852623           
       2.567771             0.00748348119            0.000537643663           
       2.570411             0.00680116833            0.000507002199           
       2.573052             0.00530866974            0.000453571874           
       2.575692             0.00665810694            0.000504883039           
       2.578332             0.00652716617            0.000501960969           
       2.580973             0.00810532283            0.000554039616           
       2.583613             0.00749971419            0.000520249839           
       2.586254             0.00702403461            0.000502781089           
       2.588894             0.00660791487            0.000506412447           
       2.591534             0.00644504434            0.000517731021           
       2.594175             0.00768893385            0.000554818085           
       2.596815             0.00623342749             0.00050249783           
       2.599456             0.00662762652            0.000491352728           
       2.602096             0.00660731733            0.000494332937           
       2.604736             0.00771181931             0.00054671786           
       2.607377             0.00613508207            0.000474784397           
       2.610017             0.00698840851            0.000497861002           
       2.612657             0.00661696914            0.000515285104           
       2.615298             0.00723198203            0.000525940338           
       2.617938             0.00739293341            0.000568848015           
       2.620579             0.00693086413            0.000528747339           
       2.623219              0.0069495425            0.000528704605           
       2.625859             0.00711407887            0.000520098852           
       2.628500             0.00675028975            0.000503305603           
       2.631140             0.00731029453             0.00053183719           
       2.633780             0.00698672845            0.000519481987           
       2.636421             0.00741593504            0.000548362115           
       2.639061              0.0075021585            0.000519212218           
       2.641702             0.00728644564             0.00052353922           
       2.644342             0.00796563128            0.000549728233           
       2.646982             0.00684042826            0.000501808445           
       2.649623             0.00699327518            0.000531717888           
       2.652263             0.00699913943            0.000526602773           
       2.654904               0.007466165            0.000544435337           
       2.657544             0.00672560833             0.00048670564           
       2.660184             0.00642965486            0.000503616103           
       2.662825             0.00702049389            0.000538455817           
       2.665465             0.00644621891            0.000499021442           
       2.668105             0.00655936202            0.000530583681           
       2.670746             0.00746647361            0.000522940868           
       2.673386              0.0120100085            0.000683515321           
       2.676027              0.0124059668            0.000683542069           
       2.678667             0.00927217139            0.000576606101           
       2.681307              0.0116244698            0.000634355608           
       2.683948              0.0142013413            0.000720399046           
       2.686588              0.0108965496            0.000620569455           
       2.689229              0.0100389529             0.00058204315           
       2.691869             0.00989402593            0.000610705212           
       2.694509             0.00842095286            0.000563721107           
       2.697150             0.00800036935            0.000540548814           
       2.699790             0.00758047459            0.000551616216           
       2.702430             0.00818345701             0.00054784854           
       2.705071             0.00613665935            0.000490218032           
       2.707711             0.00672150337            0.000497949795           
       2.710352             0.00634384054            0.000511151246           
       2.712992             0.00636285649            0.000521382127           
       2.715632             0.00776514959            0.000534392195           
       2.718273             0.00702271411            0.000526684575           
       2.720913              0.0072194377            0.000532491061           
       2.723553             0.00672659751            0.000517443014           
       2.726194              0.0078741045            0.000585219313           
       2.728834             0.00797770181             0.00058933288           
       2.731475             0.00759578574            0.000530723803           
       2.734115             0.00692397796            0.000522436657           
       2.736755             0.00725514073            0.000539186096           
       2.739396             0.00687908618            0.000521984475           
       2.742036             0.00763756621             0.00057561922           
       2.744677             0.00750985608            0.000553820132           
       2.747317             0.00788462531            0.000563424241           
       2.749957             0.00778372928            0.000563736325           
       2.752598             0.00709067315            0.000543893294           
       2.755238              0.0071647703            0.000556597405           
       2.757878             0.00748517614            0.000563932618           
       2.760519             0.00889420989            0.000608205548           
       2.763159             0.00784879375            0.000565635044           
       2.765800             0.00749480538            0.000526745486           
       2.768440              0.0069434833            0.000510736635           
       2.771080             0.00862209161            0.000573884751           
       2.773721             0.00683164796            0.000524013167           
       2.776361             0.00639990137            0.000514181764           
       2.779001             0.00849425615            0.000613458661           
       2.781642             0.00737644208            0.000567457976           
       2.784282             0.00620426963            0.000528979693           
       2.786923             0.00781114275            0.000598767322           
       2.789563              0.0067061842            0.000534340134           
       2.792203              0.0067012781            0.000510260664           
       2.794844             0.00703028709             0.00057280115           
       2.797484               0.007188793            0.000546644618           
       2.800125             0.00744281044            0.000584864133           
       2.802765             0.00766341851            0.000583258982           
       2.805405             0.00642778059            0.000535979429           
       2.808046             0.00698590526            0.000568587496           
       2.810686             0.00718104549            0.000529712657           
       2.813326             0.00636294113            0.000517935449           
       2.815967             0.00686048044            0.000553095218           
       2.818607             0.00689570093            0.000529157556           
       2.821248             0.00628934452            0.000494865543           
       2.823888             0.00708856473            0.000545345376           
       2.826528             0.00682858466            0.000518364555           
       2.829169             0.00685614455            0.000544052391           
       2.831809             0.00652089678            0.000537801413           
       2.834449             0.00694883476            0.000558676296           
       2.837090              0.0066173987            0.000526567101           
       2.839730             0.00672625814            0.000528288585           
       2.842371             0.00745225149             0.00055687094           
       2.845011             0.00667110958            0.000531077465           
       2.847651             0.00789534227            0.000578465376           
       2.850292             0.00608898709            0.000512986411           
       2.852932             0.00721061265              0.0005704039           
       2.855573              0.0059010242            0.000500546535           
       2.858213             0.00820462297            0.000619797092           
       2.860853              0.0075634287            0.000553566496           
       2.863494             0.00667280961            0.000538339674           
       2.866134             0.00632085299            0.000544581104           
       2.868774             0.00615929479            0.000528327439           
       2.871415             0.00659084154             0.00055503546           
       2.874055             0.00678924602            0.000538471186           
       2.876696              0.0067043185            0.000549566191           
       2.879336             0.00808668566             0.00058172587           
       2.881976             0.00635778237            0.000532017762           
       2.884617             0.00845618366            0.000604553764           
       2.887257             0.00746010416            0.000570763304           
       2.889897             0.00687811844            0.000536768417           
       2.892538             0.00804737859            0.000636052807           
       2.895178             0.00636375633            0.000510997593           
       2.897819             0.00806138209            0.000586688661           
       2.900459             0.00648425678              0.0005159426           
       2.903099             0.00562396248            0.000475580554           
       2.905740             0.00707244374            0.000547117869           
       2.908380             0.00717086622            0.000557171287           
       2.911021             0.00662384544            0.000544204532           
       2.913661             0.00615378214            0.000524382254           
       2.916301             0.00788527488            0.000594154389           
       2.918942             0.00680143167            0.000527821651           
       2.921582             0.00668600241            0.000547547221           
       2.924222             0.00660820104            0.000527372535           
       2.926863             0.00713113649            0.000570640592           
       2.929503             0.00719055317            0.000579801682           
       2.932144             0.00775151492            0.000577876694           
       2.934784             0.00721226778            0.000548273926           
       2.937424              0.0069371808            0.000543236899           
       2.940065               0.007050765            0.000522421734           
       2.942705              0.0075742077            0.000540787344           
       2.945346             0.00784380529             0.00058403689           
       2.947986             0.00683670856            0.000555972373           
       2.950626               0.006249239            0.000528556116           
       2.953267             0.00679131894            0.000542101058           
       2.955907             0.00694022852            0.000568487147           
       2.958547             0.00630898152            0.000511692427           
       2.961188             0.00746449665            0.000580671055           
       2.963828             0.00747991686            0.000568590025           
       2.966469             0.00690597661            0.000535958147           
       2.969109             0.00805797414            0.000587514774           
       2.971749             0.00693350259            0.000541582266           
       2.974390             0.00674570639            0.000524946752           
       2.977030             0.00713211954            0.000551835566           
       2.979670             0.00867784998            0.000592082244           
       2.982311              0.0091154694            0.000628946508           
       2.984951              0.0066816841            0.000512139004           
       2.987592              0.0057562767            0.000484873342           
       2.990232             0.00705985029            0.000558449701           
       2.992872             0.00839787611            0.000573714592           
       2.995513             0.00786577424            0.000543208926           
       2.998153              0.0125955564            0.000698941646           
       3.000794              0.0122797593            0.000668456045           
       3.003434              0.0124305804            0.000673564003           
       3.006074              0.0543133336              0.0013882136           
       3.008715               0.131653195             0.00208635007           
       3.011355               0.174810348             0.00231834244           
       3.013995              0.0835387597             0.00160700797           
       3.016636              0.0586571374             0.00131862782           
       3.019276               0.133802916             0.00195766835           
       3.021917               0.525011998             0.00372874029           
       3.024557                1.75749639             0.00670740793           
       3.027197                1.08369107             0.00513501143           
       3.029838               0.509019983             0.00356921807           
       3.032478               0.253319071             0.00252046672           
       3.035118              0.0730539554             0.00137169223           
       3.037759               0.102758024             0.00162473294           
       3.040399               0.151129754             0.00203249206           
       3.043040               0.575744528              0.0040156858           
       3.045680               0.365834952             0.00301169903           
       3.048320              0.0785344601             0.00142575948           
       3.050961               0.111413694              0.0017281091           
       3.053601              0.0858774717             0.00146124304           
       3.056242              0.0576699049             0.00127314393           
       3.058882              0.0562144295             0.00134836141           
       3.061522              0.0435419405             0.00116428172           
       3.064163              0.0547803887             0.00128947585           
       3.066803               0.115560783             0.00197172094           
       3.069443               0.111055287             0.00202231062           
       3.072084              0.0410708756             0.00119752656           
       3.074724              0.0409085378             0.00133471804           
       3.077365              0.0821941718             0.00195846876           
       3.080005              0.0134398392            0.000796429159           
       3.082645              0.0125306863            0.000807873313           
       3.085286               0.013646965            0.000849741561           
       3.087926             0.00962877716            0.000708262498           
       3.090566              0.0112309442            0.000749475343           
       3.093207              0.0105120841            0.000754534154           
       3.095847             0.00884090223             0.00066323579           
       3.098488             0.00848952827            0.000720652596           
       3.101128              0.0103533119            0.000800954536           
       3.103768              0.0103166297            0.000784492294           
       3.106409             0.00863148262            0.000763684311           
       3.109049             0.00912674233            0.000753602181           
       3.111690             0.00882987936            0.000728519915           
       3.114330              0.0071184556            0.000668034526           
       3.116970             0.00693166767             0.00066427252           
       3.119611              0.0135533471            0.000988711203           
       3.122251              0.0212669595             0.00129552113           
       3.124891              0.0381398283             0.00175108718           
       3.127532              0.0207933771             0.00126487909           
       3.130172              0.0126722865             0.00100450994           
       3.132813             0.00884944347            0.000826390341           
       3.135453              0.0081825784            0.000788097877           
       3.138093             0.00631797654            0.000750355676           
       3.140734             0.00607739072            0.000678952456           
       3.143374             0.00660159637            0.000748348001           
       3.146014             0.00717140035            0.000839679467           
       3.148655             0.00566966074             0.00069403719           
       3.151295             0.00451664417            0.000660129752           
       3.153936             0.00540285045            0.000697423231           
       3.156576             0.00584844695            0.000715743446           
       3.159216             0.00663580469            0.000766215157           
       3.161857             0.00690466884            0.000778402601           
       3.164497             0.00842214602            0.000903291385           
       3.167138             0.00762387237            0.000887988232           
       3.169778             0.00697377895            0.000835279233           
       3.172418             0.00646200394            0.000795868116           
       3.175059             0.00616249904            0.000689025679           
       3.177699             0.00662735556             0.00075665562           
       3.180339             0.00555099639            0.000741949496           
       3.182980             0.00582036513            0.000785492142           
       3.185620             0.00725702575            0.000893245414           
       3.188261             0.00567964644            0.000804329357           
       3.190901             0.00703761547            0.000823449247           
       3.193541             0.00616287983             0.00080969036           
       3.196182             0.00530984694            0.000783241379           
       3.198822             0.00681709335            0.000887768606           
       3.201463             0.00556535663            0.000788313882           
       3.204103              0.0064003382              0.0008402408           
       3.206743              0.0051856019            0.000756242579           
       3.209384             0.00528051994            0.000824499381           
       3.212024             0.00492183103            0.000742125536           
       3.214664             0.00751398612             0.00104271135           
       3.217305             0.00470149838            0.000784026482           
       3.219945             0.00582441059            0.000898178957           
       3.222586             0.00388303599            0.000698521859           
       3.225226              0.0068155308             0.00102662176           
       3.227866             0.00672267157              0.0009319079           
       3.230507             0.00512694707            0.000843619335           
       3.233147             0.00622437237            0.000937039016           
       3.235787             0.00809980973             0.00109391134           
       3.238428             0.00533785926            0.000958298153           
       3.241068             0.00614985415             0.00096179871           
       3.243709             0.00691068123             0.00105336608           
       3.246349             0.00601313795            0.000895716505           
       3.248989             0.00706820472             0.00114668083           
       3.251630             0.00447499255            0.000878614038           
       3.254270              0.0066096802             0.00095432868           
       3.256911             0.00720604669             0.00108723948           
       3.259551             0.00493285776            0.000968447283           
       3.262191             0.00511846993             0.00100765973           
       3.264832             0.00561817481             0.00110305069           
       3.267472             0.00550773755             0.00102455926           
       3.270112             0.00509267446             0.00108876909           
       3.272753              0.0038897739            0.000870963169           
       3.275393             0.00630663805             0.00113157942           
       3.278034             0.00343538861            0.000835638543           
       3.280674              0.0062274733             0.00122087662           
       3.283314               0.004585313            0.000936936045           
       3.285955             0.00797290526             0.00127473832           
       3.288595             0.00634638617              0.0012652916           
       3.291235             0.00583846078             0.00124757327           
       3.293876             0.00576490607             0.00125750394           
       3.296516             0.00578862408             0.00120971284           
       3.299157             0.00789557507             0.00139506664           
       3.301797             0.00703292467              0.0015018851           
       3.304437             0.00433722524             0.00102184164           
       3.307078             0.00405439934             0.00108830258           
       3.309718             0.00717000745             0.00149383111           
       3.312359             0.00685279406              0.0014607594           
       3.314999             0.00542839609             0.00128006622           
       3.317639             0.00665233014             0.00135522919           
       3.320280             0.00279060546            0.000933238484           
       3.322920             0.00675982672             0.00147693018           
       3.325560             0.00641796998             0.00144007786           
       3.328201             0.00708630844             0.00136282158           
       3.330841             0.00772457908             0.00173172639           
       3.333482             0.00590715728             0.00143142445           
       3.336122              0.0037916106             0.00114733599           
       3.338762             0.00647372143             0.00173179298           
       3.341403             0.00635887497              0.0016400534           
       3.344043             0.00309677858             0.00109883242           
       3.346683             0.00485134381             0.00140410143           
       3.349324             0.00255921841              0.0011466069           
       3.351964             0.00573119598             0.00181446486           
       3.354605              0.0022429666             0.00129816994           
       3.357245             0.00547514906              0.0018296831           
       3.359885             0.00431076705             0.00129939369           
       3.362526             0.00298999159             0.00135330813           
       3.365166             0.00435746276             0.00154091748           
       3.367807             0.00807607997             0.00268474998           
       3.370447             0.00551066949             0.00183962519           
       3.373087             0.00833862511             0.00241992356           
       3.375728             0.00441268055             0.00198675766           
       3.378368             0.00776295339             0.00391090296           
       3.381008             0.00213677797             0.00152975326           
       3.383649             0.00838691375             0.00243123666           
       3.386289              0.0039672978              0.0019790378           
       3.388930             0.00249195883             0.00248096384           
       3.391570             0.00610172611             0.00274624226           
       3.394210             0.00797252305             0.00397265042           
       3.396851            -2.6465428e-05                         0           
       3.399491             0.00479700319             0.00344796898           
       3.402131             0.00482606761             0.00489295855           
       3.404772           -2.65152452e-05                         0           
       3.407412                       nan                       nan           
       3.410053           -2.65805524e-05                         0           
       3.412693                       nan                       nan           
       3.415333           -2.66313473e-05                         0           
