################################################################################
# EDF_DataBlockID                     0.Image.Psd
# EDF_BinarySize                      2105344
# EDF_HeaderSize                      2560
# ByteOrder                           LowByteFirst
# DataType                            FloatValue
# Dim_1                               512
# Dim_2                               1028
# Image                               0
# HeaderID                            EH:000000:000000:000000
# Size                                2105344
# Center_1                            304.9000
# Center_2                            588.7000
# Comment                             Xenocs_Cell_Window - 20251028_20perc_iodine_1.23mg
# DDummy                              0.6
# Date                                2025-11-03T09:02:01
# Delta                               21.910000
# Dummy                               -1.5
# ExposureTime                        360
# Gamma                               15.360000
# Intensity1                          8.8282e-10
# PSize_1                             7.5e-05
# PSize_2                             7.5e-05
# Pressure                            0.0330372
# SampleDistance                      0.115750
# SampleEnvKind                       large
# SampleEnvPN                         ElectroChemical cell
# SampleEnvSN                         1141
# Thickness                           0
# Wavelength                          1.541891e-10
# Wavelength                          1.54189e-10
# aux                                 0
# aux_dial                            0.002375
# beamx                               588.434
# beamx_dial                          588.434
# beamz                               657.808
# beamz_dial                          657.808
# det0x                               0
# det0x_dial                          6.36945
# det0xvd                             0
# det0xvd_dial                        0
# det0y                               450.002
# det0y_dial                          481.635
# det0z                               0
# det0z_dial                          1.23302
# det0zvd                             0
# det0zvd_dial                        0
# mag                                 1.818
# mag_dial                            1.818
# om                                  0.2499
# om_dial                             -0.610199
# phi                                 -0.0120535
# phi_dial                            0
# ry                                  0.599993
# ry_dial                             0.599993
# s1bot                               0.8
# s1bot_dial                          -1.66094
# s1hl                                0.8
# s1hl_dial                           -0.608437
# s1hr                                0.8
# s1hr_dial                           0.970938
# s1top                               0.8
# s1top_dial                          -0.461562
# s2bot                               0.45
# s2bot_dial                          1.36109
# s2hl                                0.45
# s2hl_dial                           -0.83375
# s2hr                                0.45
# s2hr_dial                           -0.118594
# s2top                               0.45
# s2top_dial                          1.44734
# w2theta                             32
# w2theta_dial                        32
# waxsch                              19.2605
# waxsch_dial                         -32.7355
# waxsh                               137.085
# waxsh_dial                          -43.5338
# waxsth                              26.0607
# waxsth_dial                         -19.4086
# waxsz                               67.0407
# waxsz_dial                          -23.7954
# wind                                65.9854
# wind_dial                           66.0041
# wpsi                                124
# wpsi_dial                           124
# wstod                               115
# wstod_dial                          115
# x                                   0
# x_dial                              1.00969
# z                                   0
# z_dial                              13.3172
# CountCutoff                         6807993
# DetectorModel                       Dectris EIGER2 Si 500K, S/N E-01-0554
# ThresholdSetting                    4023.88989258
# Saturation                          0
# FlatField                           Corrected
# BackgroundReductionExtra            0.02
# BackgroundCorrectionConstant        0.0026712
# Detector                            0
# Monitor                             0
# Pil_Roi0                            0
# SumForIntensity1                    3.17815e+08
# TransmittedFlux                     882820
# det                                 0
# mon                                 0
# pilai0                              3.17815e+08
# pilai1                              797532
# pilct0                              5.4983e+08
# pilct1                              797532
# pilroi0                             0
# pilroi1                             0
# sec                                 1
# title                               20251028_20perc_iodine_1.23mg_1_01260.edf
# usaxs0                              0
# Operation                           Azimuthal average I(q)
# Error_model                         ErrorModel.poisson
# Geometrical_correction              True
# Transmission_correction             True
# Thickness_correction                False
# Binning mode                        Uniform
# Binning factor                      1.0
# Psi                                 0.0
# Omega                               0.2499
# MaskInvalidPixels                   True
# DetectorEdge                        3
# MaskFiles                           ['WAXS_corrected.edf']
################################################################################
    q(A⁻¹)                Intensity(a.u.)            Sigma_I(a.u.)            
       0.693100           -2.29981228e-05                         0           
       0.695741             0.00544694581             0.00395150224           
       0.698381           -2.29791278e-05                         0           
       0.701021           -2.29619049e-05                         0           
       0.703662             0.00555099626              0.0039872703           
       0.706302             0.00834966618             0.00378601143           
       0.708942             0.00278022993             0.00281973813           
       0.711583               0.017092271             0.00605416285           
       0.714223             0.00560237749             0.00400166121           
       0.716864             0.00735395843             0.00299975304           
       0.719504              0.0100049834             0.00377573024           
       0.722144               0.008486463             0.00322034909           
       0.724785             0.00607807227             0.00217397189           
       0.727425             0.00425803577             0.00246158986           
       0.730065             0.00842574339             0.00244938116           
       0.732706             0.00547782218             0.00165845987           
       0.735346             0.00756756485             0.00254099137           
       0.737987             0.00804389315             0.00185120849           
       0.740627             0.00564995051             0.00231489337           
       0.743267             0.00425211989             0.00134509692           
       0.745908             0.00954947989             0.00218700317           
       0.748548             0.00422198149             0.00134039299           
       0.751189               0.010861038             0.00289685116           
       0.753829             0.00389836606              0.0015953535           
       0.756469             0.00549160558             0.00152685796           
       0.759110             0.00709434446             0.00182883969           
       0.761750              0.0081258619             0.00173067247           
       0.764390              0.0096509645             0.00197410838           
       0.767031             0.00753806296             0.00151082678           
       0.769671             0.00756509216              0.0018880198           
       0.772312             0.00896444131             0.00156463269           
       0.774952             0.00897132647             0.00211367802           
       0.777592             0.00581439734             0.00123942441           
       0.780233             0.00647755975             0.00157832769           
       0.782873             0.00768508113             0.00164421392           
       0.785513             0.00602309325              0.0015561364           
       0.788154             0.00617854968             0.00131845408           
       0.790794             0.00763900951             0.00175266656           
       0.793435             0.00940104577             0.00174670304           
       0.796075             0.00844596984             0.00159485762           
       0.798715             0.00877987096             0.00192156007           
       0.801356             0.00804150288             0.00158275766           
       0.803996             0.00810056372             0.00161955668           
       0.806637               0.008597105             0.00132778227           
       0.809277             0.00648531256              0.0012482384           
       0.811917             0.00737249708              0.0012441623           
       0.814558             0.00633227647             0.00119839372           
       0.817198              0.0073686695             0.00122817193           
       0.819838             0.00831659735             0.00132053428           
       0.822479             0.00869956081             0.00158596867           
       0.825119              0.0081795612             0.00130889457           
       0.827760             0.00712421543              0.0012373741           
       0.830400             0.00606183502             0.00107426088           
       0.833040             0.00561110602             0.00108284327           
       0.835681             0.00728165904             0.00140233451           
       0.838321             0.00722176095             0.00117217303           
       0.840961             0.00811000917             0.00135340206           
       0.843602             0.00736870215             0.00118304249           
       0.846242             0.00547492784             0.00101959867           
       0.848883             0.00615032117             0.00110589968           
       0.851523              0.0102547865             0.00141026789           
       0.854163             0.00612092646              0.0011586868           
       0.856804             0.00619391978             0.00104801187           
       0.859444             0.00697005391             0.00108928601           
       0.862085             0.00833500377             0.00124150591           
       0.864725              0.0063901101             0.00111248487           
       0.867365             0.00565277955            0.000970257182           
       0.870006             0.00771404531             0.00108007725           
       0.872646             0.00799307749             0.00115291288           
       0.875286              0.0073689344             0.00106498829           
       0.877927             0.00729619286             0.00102257923           
       0.880567             0.00539079053            0.000910632858           
       0.883208             0.00888287313              0.0011579318           
       0.885848             0.00697825259             0.00106562114           
       0.888488             0.00754124083             0.00103902298           
       0.891129             0.00812486094             0.00110737292           
       0.893769             0.00787798911             0.00104355984           
       0.896410             0.00824611688            0.000995436537           
       0.899050             0.00799895578             0.00107817887           
       0.901690             0.00812490169                0.00118366           
       0.904331             0.00786768789             0.00103263582           
       0.906971             0.00628584617            0.000981928551           
       0.909611             0.00785858564            0.000999457483           
       0.912252             0.00920288195             0.00111714673           
       0.914892             0.00858487987              0.0011791006           
       0.917533             0.00849922609             0.00110984645           
       0.920173             0.00808841295             0.00100452517           
       0.922813              0.0098617926             0.00116397304           
       0.925454             0.00747078467            0.000912259775           
       0.928094             0.00822786498             0.00102207127           
       0.930734             0.00647220757            0.000975938539           
       0.933375             0.00834602206             0.00109735084           
       0.936015             0.00880736022             0.00102380383           
       0.938656             0.00822327124             0.00106125623           
       0.941296             0.00855089236            0.000980762465           
       0.943936             0.00907787346            0.000990983509           
       0.946577             0.00863937662            0.000960361728           
       0.949217             0.00740332824             0.00081752626           
       0.951858             0.00779292066            0.000878015586           
       0.954498             0.00901327271             0.00109296871           
       0.957138             0.00843639025             0.00100175445           
       0.959779             0.00798019055            0.000960452648           
       0.962419             0.00888472976             0.00100668363           
       0.965059              0.0084649997             0.00103345621           
       0.967700             0.00647304087            0.000925586239           
       0.970340             0.00808074943            0.000915130934           
       0.972981             0.00737456742            0.000796507386           
       0.975621              0.0079044525            0.000877260789           
       0.978261             0.00746508133            0.000810054209           
       0.980902             0.00902961659             0.00106592356           
       0.983542             0.00808008692            0.000892935216           
       0.986182             0.00847282393            0.000897731237           
       0.988823             0.00771603821            0.000831858456           
       0.991463              0.0081462015            0.000911909574           
       0.994104             0.00747159348            0.000851951649           
       0.996744             0.00717869403            0.000851780746           
       0.999384             0.00736703477            0.000771705244           
       1.002025             0.00898169073            0.000951042103           
       1.004665             0.00750083433            0.000794260351           
       1.007306             0.00765072169            0.000798050972           
       1.009946              0.0081523988            0.000840161422           
       1.012586             0.00696789935            0.000756490815           
       1.015227             0.00872034867            0.000909181327           
       1.017867             0.00789513665            0.000831415367           
       1.020507             0.00831973005            0.000826710396           
       1.023148             0.00754653627            0.000849581531           
       1.025788             0.00794236559             0.00079916813           
       1.028429             0.00783308025            0.000831479833           
       1.031069             0.00782646207            0.000782123867           
       1.033709             0.00996476151            0.000938124594           
       1.036350             0.00848029612            0.000777275579           
       1.038990             0.00768432715            0.000753495663           
       1.041630             0.00779707983            0.000791648404           
       1.044271             0.00816299046            0.000761786061           
       1.046911             0.00771262071            0.000778881247           
       1.049552             0.00755216171            0.000809756435           
       1.052192             0.00803332116            0.000762601059           
       1.054832             0.00818623069            0.000776827659           
       1.057473             0.00869061864            0.000789027154           
       1.060113             0.00756672994            0.000718036367           
       1.062754             0.00817574092             0.00076203361           
       1.065394             0.00784292797            0.000789097859           
       1.068034             0.00802864137            0.000726421564           
       1.070675             0.00881686805            0.000794072822           
       1.073315             0.00861893907            0.000796362706           
       1.075955             0.00917374419            0.000775631817           
       1.078596             0.00823286633            0.000780926281           
       1.081236             0.00843004106            0.000756689547           
       1.083877             0.00860860265            0.000757801997           
       1.086517              0.0081180155            0.000789092073           
       1.089157             0.00825775406            0.000825788277           
       1.091798             0.00936140546            0.000770845675           
       1.094438             0.00782117359            0.000702310068           
       1.097078              0.0086920022            0.000710099111           
       1.099719             0.00738058873            0.000707770528           
       1.102359             0.00869555603            0.000719463852           
       1.105000             0.00804789582            0.000773960813           
       1.107640             0.00896973674            0.000781266863           
       1.110280             0.00757247058            0.000654975305           
       1.112921             0.00908892813            0.000770822123           
       1.115561             0.00852111506            0.000709348926           
       1.118202              0.0102395811            0.000778326514           
       1.120842             0.00842791509            0.000742140611           
       1.123482             0.00866982256            0.000749428557           
       1.126123             0.00868935947            0.000719637013           
       1.128763             0.00918675822            0.000745020551           
       1.131403             0.00907807329            0.000713631931           
       1.134044             0.00807847345            0.000692721211           
       1.136684             0.00817237522             0.00074284093           
       1.139325             0.00871033106            0.000706467855           
       1.141965             0.00922900439            0.000732005127           
       1.144605             0.00865788433            0.000676027917           
       1.147246             0.00834008772             0.00067903974           
       1.149886             0.00976780008             0.00073225745           
       1.152527             0.00807608689            0.000675516467           
       1.155167              0.0101847172            0.000721539322           
       1.157807             0.00980598032            0.000759098238           
       1.160448             0.00875113786            0.000700274595           
       1.163088             0.00897518603            0.000676455477           
       1.165728             0.00944979931            0.000712656645           
       1.168369             0.00890778752            0.000698309286           
       1.171009             0.00812871393            0.000647376923           
       1.173650             0.00888739634            0.000694675277           
       1.176290              0.0098026403            0.000712952131           
       1.178930             0.00972576365            0.000696012621           
       1.181571             0.00869943831            0.000671318788           
       1.184211             0.00989368956            0.000718454777           
       1.186851             0.00922030233            0.000678097419           
       1.189492             0.00872587068            0.000655227776           
       1.192132              0.0101823844            0.000699861855           
       1.194773             0.00883281911            0.000654682389           
       1.197413             0.00958226687            0.000653348365           
       1.200053             0.00960858189            0.000670868233           
       1.202694              0.0103237267             0.00066127212           
       1.205334             0.00983218697            0.000695472044           
       1.207975              0.0105982809             0.00068922511           
       1.210615             0.00992093066            0.000735634335           
       1.213255             0.00851469475            0.000610273838           
       1.215896              0.0091468009            0.000643981457           
       1.218536             0.00920351075            0.000621132323           
       1.221176             0.00945980615            0.000684636415           
       1.223817             0.00990139133            0.000657508933           
       1.226457             0.00953938634            0.000658379371           
       1.229098             0.00971631347            0.000664424436           
       1.231738              0.0099108483            0.000674345478           
       1.234378              0.0105095343            0.000652506778           
       1.237019             0.00932770174            0.000633467914           
       1.239659             0.00929668592            0.000626904893           
       1.242299             0.00986394453            0.000637543423           
       1.244940              0.0104115965            0.000637031239           
       1.247580              0.0104314135            0.000657137276           
       1.250221             0.00931415169            0.000617117866           
       1.252861              0.0101857814            0.000614373937           
       1.255501             0.00926381863             0.00063618586           
       1.258142              0.0104048211            0.000633557464           
       1.260782              0.0114389927            0.000678671039           
       1.263423              0.0109684569            0.000638572867           
       1.266063             0.00956400524             0.00061118026           
       1.268703              0.0107709693            0.000643217683           
       1.271344              0.0103308111            0.000651287032           
       1.273984              0.0109863027            0.000648663452           
       1.276624              0.0104097225            0.000619550518           
       1.279265              0.0108859521            0.000644085124           
       1.281905              0.0108620596            0.000646233325           
       1.284546             0.00908129756            0.000571149522           
       1.287186              0.0108834472            0.000613444225           
       1.289826              0.0100233056            0.000620446305           
       1.292467              0.0113068636            0.000644461803           
       1.295107              0.0100454531              0.0006014163           
       1.297747              0.0109064657            0.000599662226           
       1.300388             0.00993368129            0.000623873556           
       1.303028              0.0107136123            0.000618526291           
       1.305669              0.0106214831            0.000630525331           
       1.308309              0.0100878473            0.000608430853           
       1.310949              0.0103895413            0.000616841374           
       1.313590              0.0102977383            0.000594913702           
       1.316230              0.0105234911             0.00064177663           
       1.318871             0.00939387557            0.000593849477           
       1.321511             0.00972552445            0.000593041637           
       1.324151              0.0104390411            0.000596195962           
       1.326792              0.0103595976            0.000597594906           
       1.329432              0.0116421114            0.000629036323           
       1.332072              0.0109758716            0.000601669957           
       1.334713              0.0125934111             0.00066516895           
       1.337353              0.0109771181            0.000595569003           
       1.339994              0.0109713115            0.000624825014           
       1.342634              0.0106129809            0.000589302104           
       1.345274               0.010985398            0.000620480465           
       1.347915              0.0123466369            0.000639635942           
       1.350555                0.01172496            0.000634241322           
       1.353195              0.0111308055            0.000620997655           
       1.355836              0.0110458452            0.000608976843           
       1.358476              0.0119052687            0.000613985387           
       1.361117              0.0107598027            0.000584502401           
       1.363757              0.0113189438            0.000617802491           
       1.366397              0.0105526113            0.000578470798           
       1.369038              0.0117358122            0.000616113928           
       1.371678              0.0107037948            0.000583213539           
       1.374319              0.0111741441             0.00059075853           
       1.376959              0.0123344257            0.000614430444           
       1.379599              0.0111960981            0.000627362697           
       1.382240               0.010529327            0.000571799991           
       1.384880              0.0106917769            0.000610320441           
       1.387520              0.0116974841            0.000606289085           
       1.390161              0.0114711096            0.000570229926           
       1.392801              0.0117399414            0.000601045808           
       1.395442              0.0118950049            0.000613265098           
       1.398082              0.0111180991            0.000555224702           
       1.400722              0.0102693612            0.000558945852           
       1.403363              0.0110889938             0.00061138718           
       1.406003              0.0105616979             0.00055840674           
       1.408644              0.0110449886            0.000598201374           
       1.411284              0.0112121343            0.000570713577           
       1.413924               0.011019635            0.000563695578           
       1.416565              0.0114163593            0.000571499057           
       1.419205              0.0106772165            0.000576542697           
       1.421845               0.011387088            0.000595050337           
       1.424486                0.01073025             0.00055523846           
       1.427126               0.011088088            0.000586323983           
       1.429767              0.0115710219            0.000563545133           
       1.432407              0.0112609722            0.000581808038           
       1.435047              0.0116913428            0.000556757815           
       1.437688              0.0104905367            0.000535276746           
       1.440328              0.0111036777            0.000562048409           
       1.442968              0.0103620784            0.000555120086           
       1.445609              0.0118173993            0.000574016292           
       1.448249              0.0106083623            0.000557630578           
       1.450890              0.0100608111            0.000539504399           
       1.453530              0.0110399365            0.000591257914           
       1.456170              0.0101571885            0.000550410198           
       1.458811              0.0103081794            0.000530211443           
       1.461451              0.0110030114             0.00054922673           
       1.464092              0.0110532495            0.000554078078           
       1.466732              0.0108443096              0.0005441001           
       1.469372              0.0103824396            0.000519927649           
       1.472013              0.0107092247            0.000569508773           
       1.474653              0.0101693299            0.000546406449           
       1.477293              0.0109715545            0.000579511531           
       1.479934              0.0104653594            0.000540068115           
       1.482574              0.0105499327            0.000524538228           
       1.485215              0.0121602198            0.000573637376           
       1.487855              0.0118053433            0.000572661043           
       1.490495              0.0115976552            0.000565510931           
       1.493136              0.0104594165             0.00052968252           
       1.495776              0.0105716847            0.000530092928           
       1.498416              0.0109708589            0.000557675566           
       1.501057             0.00993753822            0.000519065851           
       1.503697              0.0111086953            0.000536540126           
       1.506338             0.00970432463            0.000510643467           
       1.508978               0.010761064            0.000532439917           
       1.511618              0.0105320778            0.000560980347           
       1.514259             0.00955158685            0.000515774171           
       1.516899              0.0107789021            0.000533482542           
       1.519540              0.0114965271            0.000559839757           
       1.522180               0.011423208            0.000562953912           
       1.524820              0.0112107639            0.000554565623           
       1.527461              0.0107583383            0.000545947054           
       1.530101              0.0110978491            0.000548949078           
       1.532741               0.010550486            0.000532134196           
       1.535382              0.0120604093             0.00057809856           
       1.538022              0.0101888773            0.000500563683           
       1.540663              0.0086948154            0.000497349522           
       1.543303              0.0101686084            0.000499403778           
       1.545943              0.0102294529            0.000530161068           
       1.548584              0.0106761591            0.000551335375           
       1.551224              0.0101203973            0.000496316174           
       1.553864              0.0106392079            0.000537725463           
       1.556505              0.0105230722            0.000516613791           
       1.559145             0.00979608042             0.00050455514           
       1.561786              0.0100678036            0.000511898878           
       1.564426              0.0109485636            0.000517216641           
       1.567066             0.00976397843            0.000511786741           
       1.569707              0.0102911507            0.000515982985           
       1.572347              0.0112671197            0.000557766231           
       1.574988              0.0107274615            0.000518029747           
       1.577628              0.0112732995            0.000553749526           
       1.580268              0.0101670542            0.000509520258           
       1.582909              0.0107265101            0.000554731314           
       1.585549             0.00986872548            0.000516641069           
       1.588189              0.0104236221            0.000519378671           
       1.590830             0.00916644534            0.000486440616           
       1.593470             0.00958870678             0.00051721835           
       1.596111             0.00911017807            0.000492204258           
       1.598751             0.00941082322            0.000484735131           
       1.601391              0.0103809479            0.000520339455           
       1.604032             0.00866036886            0.000485201179           
       1.606672             0.00926094776            0.000487491012           
       1.609312             0.00991441551            0.000526531428           
       1.611953             0.00869376218            0.000482484221           
       1.614593              0.0103369039            0.000516069771           
       1.617234              0.0093353837            0.000508272865           
       1.619874             0.00973061837            0.000516870906           
       1.622514             0.00971750356            0.000509476345           
       1.625155             0.00843244183            0.000477398876           
       1.627795             0.00919168084            0.000486215342           
       1.630436             0.00972354184            0.000497473271           
       1.633076             0.00968904836            0.000503103092           
       1.635716             0.00940062721            0.000487847931           
       1.638357              0.0081214907            0.000454639489           
       1.640997             0.00793538363            0.000463013424           
       1.643637             0.00956785929            0.000494743566           
       1.646278             0.00917782049             0.00049977915           
       1.648918             0.00955658294            0.000511378879           
       1.651559             0.00941579831            0.000511537878           
       1.654199             0.00981922886            0.000508062043           
       1.656839             0.00991565626            0.000510728815           
       1.659480             0.00912549211            0.000508355579           
       1.662120             0.00879859091            0.000470133238           
       1.664761             0.00949419894            0.000507284042           
       1.667401             0.00839386809            0.000455893835           
       1.670041             0.00883256659            0.000474786259           
       1.672682             0.00903480616            0.000478217427           
       1.675322             0.00940235095            0.000484710543           
       1.677962             0.00916651784            0.000473313603           
       1.680603             0.00902268959            0.000471030664           
       1.683243             0.00937152805            0.000500842535           
       1.685884             0.00841409146            0.000478073795           
       1.688524             0.00907211654            0.000486820059           
       1.691164             0.00935657748            0.000494505613           
       1.693805             0.00957629408            0.000505773808           
       1.696445             0.00921090924             0.00049890837           
       1.699085              0.0100092823            0.000502654089           
       1.701726             0.00845861527            0.000445133636           
       1.704366               0.008354593            0.000466043723           
       1.707007             0.00894586595            0.000471503353           
       1.709647             0.00927357576            0.000485483241           
       1.712287             0.00890112702            0.000479774297           
       1.714928             0.00772637624            0.000450598668           
       1.717568             0.00863057259            0.000448615748           
       1.720209             0.00828562135            0.000460407643           
       1.722849             0.00919652194            0.000482562175           
       1.725489             0.00872894303            0.000470529462           
       1.728130             0.00922683956            0.000514104302           
       1.730770             0.00875304556            0.000475559732           
       1.733410             0.00767764563            0.000438387941           
       1.736051             0.00872710144            0.000470643424           
       1.738691             0.00891643501            0.000466077824           
       1.741332             0.00903182302            0.000482800218           
       1.743972             0.00893354739            0.000495853298           
       1.746612             0.00806996321            0.000452546861           
       1.749253             0.00921256909            0.000493072959           
       1.751893             0.00811898677            0.000459485877           
       1.754533             0.00895879793            0.000482214596           
       1.757174              0.0084928988             0.00046511179           
       1.759814             0.00844177272            0.000456680782           
       1.762455             0.00834182013             0.00046230496           
       1.765095             0.00857609201            0.000448417994           
       1.767735             0.00839915974            0.000457458504           
       1.770376             0.00765862782            0.000437978387           
       1.773016             0.00867250549            0.000462946368           
       1.775657               0.007651334            0.000428580761           
       1.778297              0.0082052403            0.000440001236           
       1.780937             0.00749114235            0.000443752035           
       1.783578             0.00837305325            0.000457415616           
       1.786218             0.00826932377            0.000474397121           
       1.788858             0.00862112005            0.000460046973           
       1.791499             0.00818635799            0.000443262071           
       1.794139             0.00865969016            0.000452197856           
       1.796780             0.00876948944            0.000452861834           
       1.799420              0.0090617098            0.000457795945           
       1.802060             0.00833962455            0.000442724902           
       1.804701             0.00902746871            0.000442032835           
       1.807341             0.00898615364            0.000463416275           
       1.809981             0.00900164455            0.000465361916           
       1.812622             0.00831348201            0.000439168764           
       1.815262             0.00926243584            0.000473403392           
       1.817903              0.0090979033            0.000462228142           
       1.820543             0.00881207388            0.000461997785           
       1.823183             0.00930953358            0.000474598074           
       1.825824             0.00935879599            0.000454609831           
       1.828464             0.00941742391            0.000475432611           
       1.831105             0.00847524715            0.000438553585           
       1.833745             0.00847577374            0.000447933675           
       1.836385             0.00800028392            0.000447607408           
       1.839026             0.00813501888            0.000449934758           
       1.841666             0.00906452452            0.000473260286           
       1.844306             0.00769412193            0.000424123635           
       1.846947             0.00813427916            0.000439908953           
       1.849587             0.00835733564            0.000492381371           
       1.852228             0.00828162157            0.000443213364           
       1.854868             0.00857500762             0.00047641027           
       1.857508             0.00840089665            0.000466923936           
       1.860149             0.00893287007            0.000490228451           
       1.862789             0.00814241828            0.000451763446           
       1.865429             0.00820812956            0.000473470944           
       1.868070             0.00820832132            0.000467165864           
       1.870710             0.00889309556            0.000475051513           
       1.873351             0.00801208087            0.000456481146           
       1.875991             0.00891335493            0.000489329438           
       1.878631             0.00786992919            0.000450990895           
       1.881272             0.00746167241            0.000436195081           
       1.883912             0.00811726541            0.000473474855           
       1.886553             0.00764422015            0.000454334666           
       1.889193             0.00756167091            0.000451102746           
       1.891833             0.00774115882            0.000474015324           
       1.894474             0.00774928148            0.000470133585           
       1.897114             0.00849834084            0.000476418925           
       1.899754             0.00731838686            0.000443959083           
       1.902395             0.00750046432            0.000440660638           
       1.905035             0.00832925602            0.000491844681           
       1.907676             0.00731953436            0.000434559567           
       1.910316             0.00761051414            0.000454878507           
       1.912956             0.00771945318            0.000448043816           
       1.915597             0.00872648813            0.000479035198           
       1.918237             0.00756717843            0.000460694126           
       1.920878             0.00691531013            0.000438601407           
       1.923518             0.00737542633                0.00045315           
       1.926158             0.00837340299            0.000476570239           
       1.928799             0.00752479896             0.00044654679           
       1.931439             0.00774803024            0.000465006955           
       1.934079             0.00839745676            0.000504665361           
       1.936720             0.00842484106            0.000468348903           
       1.939360             0.00773021759            0.000478621459           
       1.942001             0.00826649265            0.000453642459           
       1.944641             0.00830144771            0.000463555178           
       1.947281             0.00831367819            0.000459620564           
       1.949922             0.00758260029             0.00045339326           
       1.952562             0.00732314366            0.000459535412           
       1.955202             0.00790381101            0.000476824726           
       1.957843             0.00840481878            0.000478953725           
       1.960483             0.00825905639            0.000496384343           
       1.963124             0.00795016998            0.000477022284           
       1.965764             0.00759955667            0.000439814135           
       1.968404             0.00778354142            0.000440900695           
       1.971045             0.00750159063            0.000441304619           
       1.973685             0.00840229627            0.000489897664           
       1.976326             0.00783072106            0.000466441333           
       1.978966             0.00743922987            0.000458621929           
       1.981606             0.00818982391            0.000491238553           
       1.984247             0.00796544645            0.000481277457           
       1.986887             0.00705990226            0.000447667999           
       1.989527             0.00778784538            0.000465117752           
       1.992168             0.00797763376            0.000488444117           
       1.994808             0.00732435436            0.000466011754           
       1.997449             0.00670436912            0.000436696186           
       2.000089             0.00745056952            0.000458532285           
       2.002729             0.00717703427            0.000450306264           
       2.005370             0.00734958022            0.000450784058           
       2.008010             0.00758671928            0.000477987342           
       2.010650             0.00803147272            0.000495467972           
       2.013291             0.00745466111            0.000457985649           
       2.015931             0.00714046282            0.000445061691           
       2.018572              0.0072634247            0.000480116841           
       2.021212             0.00749922914            0.000479082973           
       2.023852             0.00843118741            0.000480779343           
       2.026493             0.00644696443            0.000439199137           
       2.029133              0.0073492422            0.000459490171           
       2.031774             0.00782448682            0.000497572219           
       2.034414             0.00776148704             0.00045598868           
       2.037054             0.00709588952            0.000447049651           
       2.039695              0.0077717023            0.000464320577           
       2.042335             0.00709788327            0.000461138709           
       2.044975             0.00690234115             0.00044922753           
       2.047616             0.00706661327            0.000453412677           
       2.050256             0.00791376628            0.000484362211           
       2.052897             0.00709966705            0.000467230514           
       2.055537             0.00763078393            0.000468146262           
       2.058177              0.0074023664            0.000451527874           
       2.060818               0.007657232            0.000481084453           
       2.063458               0.007375961            0.000492043891           
       2.066098             0.00797227367            0.000482560287           
       2.068739             0.00755457888            0.000477050492           
       2.071379             0.00685045454            0.000466122719           
       2.074020             0.00767841062             0.00048276274           
       2.076660             0.00795224014            0.000495267148           
       2.079300             0.00614511519            0.000446038767           
       2.081941             0.00748932491            0.000450859593           
       2.084581             0.00782442265            0.000486416595           
       2.087222              0.0081826068            0.000479719385           
       2.089862             0.00770483933            0.000507004655           
       2.092502             0.00743858008            0.000482902033           
       2.095143             0.00829192647            0.000526495543           
       2.097783             0.00673199892             0.00045929304           
       2.100423             0.00872750587            0.000503913656           
       2.103064             0.00732398276            0.000478992887           
       2.105704             0.00740660219             0.00047930107           
       2.108345             0.00678595573            0.000440764825           
       2.110985             0.00771420386            0.000501935198           
       2.113625             0.00728006093            0.000491861706           
       2.116266               0.007351995            0.000501298518           
       2.118906             0.00777921841            0.000480564412           
       2.121546             0.00775454684            0.000470640867           
       2.124187             0.00710961098            0.000473037837           
       2.126827             0.00739548797             0.00048783907           
       2.129468             0.00764490908            0.000497264258           
       2.132108             0.00720144475            0.000469558569           
       2.134748             0.00697865354            0.000460444752           
       2.137389             0.00677132891            0.000473169113           
       2.140029             0.00743771436            0.000443965131           
       2.142670             0.00766008673            0.000481515779           
       2.145310             0.00722925625            0.000455297438           
       2.147950             0.00747590484            0.000476552392           
       2.150591             0.00804101403            0.000489241001           
       2.153231             0.00748100453            0.000485744794           
       2.155871             0.00709042381            0.000456847568           
       2.158512              0.0085699742            0.000524068332           
       2.161152             0.00730907736            0.000468815408           
       2.163793             0.00802150204            0.000488921216           
       2.166433             0.00704190645            0.000470415965           
       2.169073             0.00697644604            0.000457800139           
       2.171714             0.00737225515             0.00046708963           
       2.174354              0.0070132163            0.000476032455           
       2.176995             0.00782976794            0.000500865513           
       2.179635             0.00695492934            0.000498828194           
       2.182275             0.00803546494            0.000506238447           
       2.184916             0.00775335155            0.000480300554           
       2.187556             0.00828981884            0.000491661318           
       2.190196             0.00649474159            0.000454763029           
       2.192837              0.0073386294            0.000480775493           
       2.195477             0.00698684144            0.000447241282           
       2.198118             0.00702229273             0.00045986344           
       2.200758             0.00824941508            0.000511355185           
       2.203398             0.00693968658             0.00047200924           
       2.206039             0.00786879914            0.000475681841           
       2.208679             0.00710559704            0.000462545066           
       2.211319             0.00687926944            0.000457743168           
       2.213960             0.00688657744             0.00046412249           
       2.216600             0.00699220737            0.000483792552           
       2.219241             0.00673402764            0.000453758315           
       2.221881             0.00792276875            0.000493193856           
       2.224521             0.00682124523            0.000463234008           
       2.227162             0.00753901661            0.000477245819           
       2.229802             0.00775485914            0.000499181441           
       2.232443              0.0069398782            0.000464774951           
       2.235083             0.00700142717             0.00048060167           
       2.237723             0.00708117921            0.000463826405           
       2.240364             0.00718356215            0.000478676498           
       2.243004             0.00691333052            0.000465838275           
       2.245644             0.00679880772            0.000466587734           
       2.248285             0.00757371724            0.000482595147           
       2.250925             0.00725910472             0.00047533536           
       2.253566             0.00725298864            0.000507955767           
       2.256206             0.00714200916             0.00049397601           
       2.258846             0.00749175295            0.000481275996           
       2.261487             0.00716015656            0.000493838068           
       2.264127             0.00712071445            0.000475625548           
       2.266767             0.00750776649            0.000501392817           
       2.269408             0.00740979521             0.00050015043           
       2.272048             0.00774145633            0.000508169684           
       2.274689             0.00783523984            0.000517974763           
       2.277329             0.00771614711            0.000483985949           
       2.279969             0.00643431811             0.00047044198           
       2.282610             0.00695774304            0.000475596806           
       2.285250              0.0070296418            0.000457556717           
       2.287891              0.0069598657            0.000488129121           
       2.290531             0.00721396875            0.000503640457           
       2.293171             0.00724703929            0.000491714555           
       2.295812             0.00747811084            0.000497484404           
       2.298452             0.00734866908            0.000515714331           
       2.301092             0.00671822887            0.000458147588           
       2.303733             0.00703045013            0.000487583236           
       2.306373             0.00705412983            0.000496095304           
       2.309014             0.00683331856            0.000478744055           
       2.311654             0.00800213934            0.000540633334           
       2.314294             0.00642318635            0.000446249596           
       2.316935             0.00785753302             0.00049560564           
       2.319575              0.0070759804            0.000492778556           
       2.322215             0.00655269781            0.000494204431           
       2.324856             0.00648477271            0.000452008593           
       2.327496              0.0070511547            0.000501176815           
       2.330137             0.00761278039             0.00049832249           
       2.332777             0.00703193135             0.00049383256           
       2.335417             0.00691578825            0.000475118484           
       2.338058             0.00674126021            0.000483097687           
       2.340698             0.00766389379            0.000511049311           
       2.343339             0.00748386319            0.000516124417           
       2.345979             0.00720462036            0.000479098362           
       2.348619             0.00715507526            0.000494900616           
       2.351260             0.00648354638            0.000468359676           
       2.353900             0.00703597637            0.000486359533           
       2.356540             0.00771225445            0.000508474283           
       2.359181             0.00765673583            0.000499537937           
       2.361821             0.00702559883            0.000462225034           
       2.364462             0.00720504597            0.000489564478           
       2.367102             0.00818789639             0.00053632387           
       2.369742             0.00825487548            0.000566822163           
       2.372383             0.00693176525            0.000470327915           
       2.375023             0.00737073302            0.000509831214           
       2.377663             0.00765027529            0.000496631433           
       2.380304             0.00657393137            0.000468047454           
       2.382944             0.00744117006            0.000474294919           
       2.385585             0.00701284356            0.000491069329           
       2.388225             0.00705425454            0.000490202767           
       2.390865             0.00737207351            0.000495976134           
       2.393506             0.00689934455            0.000470758443           
       2.396146             0.00706043983            0.000514913454           
       2.398787             0.00730543548            0.000482695586           
       2.401427              0.0067146668            0.000446676971           
       2.404067             0.00702132088             0.00046695118           
       2.406708              0.0063651081            0.000439263971           
       2.409348             0.00733163808            0.000500050629           
       2.411988             0.00716860059            0.000484460855           
       2.414629             0.00623135432            0.000465749047           
       2.417269             0.00723489517            0.000507712677           
       2.419910             0.00688040234            0.000496266999           
       2.422550             0.00723835694            0.000486991807           
       2.425190             0.00751111978            0.000522922871           
       2.427831             0.00701787065            0.000502619998           
       2.430471             0.00640778681            0.000457555901           
       2.433112             0.00650622389            0.000448959634           
       2.435752             0.00757022193            0.000512520103           
       2.438392             0.00713554169            0.000480274293           
       2.441033             0.00665116645            0.000491414854           
       2.443673             0.00669214079            0.000493305156           
       2.446313             0.00665645291             0.00049242183           
       2.448954             0.00732901305            0.000491970799           
       2.451594             0.00747601865            0.000534262415           
       2.454235             0.00773685016            0.000509944089           
       2.456875             0.00656875398            0.000491657241           
       2.459515               0.007106646            0.000524629798           
       2.462156             0.00787509645            0.000521416314           
       2.464796             0.00736762699            0.000497829828           
       2.467436             0.00838634223            0.000549254034           
       2.470077             0.00742741393             0.00048992653           
       2.472717             0.00730221991            0.000487884259           
       2.475358             0.00761555891            0.000503437096           
       2.477998             0.00620133499            0.000446635167           
       2.480638             0.00681711941            0.000476606565           
       2.483279             0.00768738775            0.000528970557           
       2.485919             0.00763531704            0.000508054622           
       2.488560             0.00823470761            0.000526145398           
       2.491200             0.00656288973            0.000483676533           
       2.493840             0.00686437291            0.000523416389           
       2.496481             0.00683439936            0.000513729144           
       2.499121             0.00730198372            0.000516494122           
       2.501761             0.00712070082            0.000516800258           
       2.504402             0.00704834172            0.000506655783           
       2.507042             0.00760090173            0.000522243316           
       2.509683             0.00744532151            0.000508971277           
       2.512323             0.00777120741            0.000546119697           
       2.514963             0.00646713549            0.000492040299           
       2.517604              0.0064423783            0.000509589278           
       2.520244             0.00786809425            0.000527963708           
       2.522884             0.00790153901            0.000536651031           
       2.525525              0.0120969062            0.000671544572           
       2.528165             0.00795162502            0.000535972698           
       2.530806             0.00732796006            0.000523493037           
       2.533446             0.00746899397            0.000517225981           
       2.536086             0.00703719323            0.000497558804           
       2.538727              0.0065145072            0.000459263186           
       2.541367             0.00692469584             0.00047816554           
       2.544008             0.00587230092            0.000454757381           
       2.546648             0.00753772889            0.000524061208           
       2.549288             0.00724443918            0.000524232941           
       2.551929             0.00716144813            0.000512913177           
       2.554569             0.00715364002            0.000493879457           
       2.557209             0.00715260907             0.00049837922           
       2.559850             0.00653360801            0.000477855507           
       2.562490             0.00683155702            0.000505025085           
       2.565131             0.00690285359            0.000526358066           
       2.567771             0.00689272477            0.000507115739           
       2.570411             0.00770819188            0.000530472977           
       2.573052             0.00661708147            0.000497686005           
       2.575692             0.00697510639            0.000507878399           
       2.578332             0.00797932377            0.000545455825           
       2.580973             0.00670026965            0.000495074693           
       2.583613             0.00606067636            0.000459641327           
       2.586254             0.00800688673            0.000527577639           
       2.588894             0.00617396179            0.000481086362           
       2.591534             0.00720382809            0.000537949897           
       2.594175             0.00750146212            0.000538591422           
       2.596815             0.00771836151             0.00054954368           
       2.599456             0.00753898969            0.000515038694           
       2.602096             0.00745514841            0.000516064562           
       2.604736             0.00598185524            0.000473229396           
       2.607377             0.00719754704             0.00050541419           
       2.610017             0.00660645187            0.000475742588           
       2.612657             0.00607719651            0.000485331633           
       2.615298             0.00831543183            0.000554267152           
       2.617938             0.00706047032            0.000546353326           
       2.620579             0.00739544846            0.000536791568           
       2.623219             0.00738130463            0.000535513564           
       2.625859             0.00690163229            0.000503467442           
       2.628500             0.00674430362            0.000494433673           
       2.631140             0.00712898834            0.000516171645           
       2.633780              0.0071617049            0.000516904957           
       2.636421             0.00684753156            0.000517869616           
       2.639061             0.00787532056            0.000522823177           
       2.641702             0.00707597995            0.000507053259           
       2.644342             0.00688367686            0.000502246715           
       2.646982              0.0069394608            0.000496738828           
       2.649623             0.00796381045            0.000557661092           
       2.652263             0.00707884387            0.000520488228           
       2.654904             0.00793250309            0.000551533078           
       2.657544              0.0071676534            0.000493807881           
       2.660184             0.00647615868            0.000496744931           
       2.662825              0.0072565243            0.000538021329           
       2.665465             0.00686696288            0.000506195123           
       2.668105             0.00705353664            0.000540748691           
       2.670746             0.00773964277            0.000523268028           
       2.673386             0.00829002002            0.000558114508           
       2.676027             0.00832971491            0.000550470356           
       2.678667              0.0106455065            0.000607212354           
       2.681307              0.0114427287            0.000618557295           
       2.683948              0.0137592724            0.000696907449           
       2.686588              0.0108476767            0.000608531671           
       2.689229             0.00978565973            0.000564774338           
       2.691869             0.00934464806            0.000583304738           
       2.694509             0.00850980765            0.000556945213           
       2.697150             0.00798388144            0.000530708282           
       2.699790             0.00771162915            0.000546802914           
       2.702430             0.00790265933            0.000529112062           
       2.705071             0.00711411782            0.000518743569           
       2.707711             0.00677834456            0.000491454248           
       2.710352             0.00623399339            0.000497995467           
       2.712992             0.00614281831             0.00050348071           
       2.715632             0.00696880175            0.000497545925           
       2.718273             0.00720614827            0.000524346807           
       2.720913             0.00655850219            0.000498806259           
       2.723553               0.006612303            0.000504208433           
       2.726194             0.00730469068            0.000553972114           
       2.728834             0.00810938133            0.000583961963           
       2.731475             0.00754342307            0.000519798919           
       2.734115             0.00692138416            0.000513359031           
       2.736755             0.00673504056            0.000510569417           
       2.739396             0.00649335017            0.000498420101           
       2.742036             0.00683369347            0.000535124044           
       2.744677             0.00725983537            0.000535161969           
       2.747317             0.00715135053            0.000527360937           
       2.749957             0.00708520131            0.000528600027           
       2.752598             0.00833133627            0.000579423664           
       2.755238             0.00725979792            0.000550644408           
       2.757878             0.00771186076            0.000562567603           
       2.760519             0.00894952568            0.000599605524           
       2.763159              0.0107657755            0.000651068128           
       2.765800             0.00826228164            0.000543550081           
       2.768440             0.00925760006            0.000579597424           
       2.771080              0.0100139004            0.000607839513           
       2.773721             0.00681907547            0.000514530512           
       2.776361             0.00643103469              0.0005065699           
       2.779001             0.00644344617             0.00052511044           
       2.781642             0.00695277707            0.000541449946           
       2.784282             0.00704631159            0.000554043056           
       2.786923             0.00648046449            0.000536009882           
       2.789563             0.00656269908            0.000519505593           
       2.792203             0.00719620396            0.000519677515           
       2.794844             0.00666227661            0.000548021512           
       2.797484             0.00749941553            0.000548731285           
       2.800125             0.00643471148            0.000534465867           
       2.802765             0.00667482932            0.000534982002           
       2.805405               0.006339682            0.000523142812           
       2.808046             0.00607217001            0.000520986951           
       2.810686             0.00694746167            0.000512069037           
       2.813326             0.00676297647            0.000524788787           
       2.815967             0.00705834602            0.000551369878           
       2.818607             0.00768391406            0.000548979299           
       2.821248             0.00682646307            0.000506700485           
       2.823888             0.00663931996            0.000518708309           
       2.826528             0.00625619727            0.000487634126           
       2.829169             0.00666408019            0.000527156752           
       2.831809             0.00712123568            0.000552350665           
       2.834449             0.00632542135            0.000523863221           
       2.837090             0.00732683686            0.000544549366           
       2.839730             0.00612613244             0.00049550333           
       2.842371              0.0074356456            0.000546687408           
       2.845011             0.00693672571            0.000532236951           
       2.847651             0.00815546092            0.000577810021           
       2.850292             0.00670698007            0.000529134121           
       2.852932             0.00675389391            0.000542553346           
       2.855573             0.00758967822            0.000557906433           
       2.858213             0.00637468117            0.000536930877           
       2.860853             0.00734725883            0.000536218796           
       2.863494             0.00666514726            0.000528780974           
       2.866134             0.00652205193            0.000543670508           
       2.868774              0.0076551846            0.000578874516           
       2.871415             0.00708987704             0.00056576825           
       2.874055             0.00661205685            0.000522262581           
       2.876696             0.00740530021            0.000567653014           
       2.879336             0.00790115623            0.000565128679           
       2.881976             0.00670550409            0.000536979794           
       2.884617             0.00721155512            0.000548695142           
       2.887257              0.0075877328            0.000565729125           
       2.889897              0.0065018853            0.000512909457           
       2.892538             0.00767120738            0.000610332848           
       2.895178             0.00662423441            0.000512387888           
       2.897819             0.00633917712            0.000511314737           
       2.900459             0.00662658364            0.000512607614           
       2.903099             0.00687280324            0.000516700358           
       2.905740              0.0067403719            0.000524936781           
       2.908380             0.00698348043            0.000540390621           
       2.911021             0.00687300328            0.000544815256           
       2.913661             0.00620050386             0.00051732009           
       2.916301              0.0064907865             0.00052979576           
       2.918942             0.00628555585            0.000498686718           
       2.921582             0.00679642015            0.000542559472           
       2.924222             0.00727360144            0.000543775405           
       2.926863             0.00742076518            0.000572106072           
       2.929503             0.00659601877             0.00054576815           
       2.932144             0.00711660254            0.000544185753           
       2.934784             0.00708451215            0.000534054491           
       2.937424             0.00649646356            0.000516660409           
       2.940065             0.00737676613            0.000525176216           
       2.942705              0.0064511499            0.000490507222           
       2.945346             0.00761184376            0.000565445478           
       2.947986             0.00602656471            0.000513019078           
       2.950626             0.00726532368            0.000560110798           
       2.953267              0.0059259274            0.000497680106           
       2.955907             0.00674238407            0.000550692846           
       2.958547             0.00572921081            0.000479231866           
       2.961188             0.00782488762            0.000584302702           
       2.963828             0.00730831581            0.000552367897           
       2.966469             0.00756924652            0.000551459441           
       2.969109             0.00649817658            0.000518525999           
       2.971749             0.00729583615            0.000546002404           
       2.974390             0.00777976083              0.0005540559           
       2.977030             0.00718506512            0.000544358064           
       2.979670             0.00861732917            0.000579870793           
       2.982311             0.00838145525            0.000592724436           
       2.984951             0.00755066386            0.000535064795           
       2.987592             0.00611232014             0.00049105422           
       2.990232             0.00679892029            0.000538610998           
       2.992872             0.00733290874            0.000526887906           
       2.995513             0.00703108463            0.000504749906           
       2.998153              0.0101827204            0.000617636672           
       3.000794              0.0121028718            0.000652215433           
       3.003434              0.0130396647            0.000678008756           
       3.006074              0.0447334275             0.00123819224           
       3.008715               0.117506254              0.0019371841           
       3.011355               0.187568991             0.00236017097           
       3.013995              0.0981787019             0.00171218855           
       3.016636              0.0615870914              0.0013279312           
       3.019276               0.125860957             0.00186603923           
       3.021917               0.463206927             0.00344218311           
       3.024557                1.60861385             0.00630670223           
       3.027197                 1.1798696             0.00526592416           
       3.029838               0.517830158               0.003538085           
       3.032478               0.272155114             0.00256758128           
       3.035118              0.0734425906             0.00135169196           
       3.037759               0.093426048             0.00152256916           
       3.040399               0.128273493             0.00184031114           
       3.043040               0.513220529             0.00372619647           
       3.045680               0.411381579             0.00313877595           
       3.048320              0.0891378275              0.0014928497           
       3.050961               0.104398715             0.00164406269           
       3.053601                0.08593374             0.00143659256           
       3.056242              0.0558300349             0.00123113524           
       3.058882              0.0459601065             0.00119823458           
       3.061522              0.0356694076             0.00103566921           
       3.064163              0.0412307885             0.00109946245           
       3.066803              0.0979652813             0.00178420697           
       3.069443                0.10261362             0.00191051157           
       3.072084              0.0580144883             0.00139879906           
       3.074724              0.0404336743              0.0013041366           
       3.077365              0.0830862563             0.00193521695           
       3.080005              0.0180754592            0.000907744678           
       3.082645               0.011063796            0.000746065297           
       3.085286              0.0133538643            0.000826116365           
       3.087926              0.0102647265            0.000718706041           
       3.090566              0.0107531392            0.000720751865           
       3.093207              0.0114541768            0.000774079127           
       3.095847             0.00888417084             0.00065342694           
       3.098488             0.00757732233            0.000669130741           
       3.101128              0.0101862416            0.000780807775           
       3.103768               0.009738294            0.000749083322           
       3.106409             0.00901125258            0.000766889295           
       3.109049             0.00930671764            0.000747913628           
       3.111690             0.00789414254            0.000676994984           
       3.114330             0.00742742209            0.000670647015           
       3.116970             0.00837680674             0.00071768785           
       3.119611              0.0126203593            0.000937672026           
       3.122251              0.0206979993               0.001256102           
       3.124891              0.0359487028             0.00167081721           
       3.127532              0.0262030088             0.00139550375           
       3.130172              0.0131813635             0.00100687565           
       3.132813              0.0097980837              0.0008546076           
       3.135453             0.00783291294            0.000757819271           
       3.138093             0.00586083605            0.000710275573           
       3.140734             0.00748252329            0.000740412511           
       3.143374             0.00703236557            0.000759099602           
       3.146014              0.0056886678             0.00073499733           
       3.148655             0.00729730131            0.000773845517           
       3.151295             0.00540670275            0.000709833579           
       3.153936             0.00658410604            0.000756662603           
       3.156576             0.00593199767            0.000708445611           
       3.159216             0.00716326673            0.000782399255           
       3.161857             0.00598917131            0.000712500453           
       3.164497             0.00804025125            0.000867401603           
       3.167138             0.00868761775            0.000931619733           
       3.169778             0.00810213509            0.000884843084           
       3.172418             0.00671553896            0.000797382792           
       3.175059             0.00722005338            0.000732986718           
       3.177699             0.00709055484            0.000769196257           
       3.180339             0.00755137063            0.000850492896           
       3.182980             0.00633768234            0.000805565557           
       3.185620             0.00700014341            0.000862211591           
       3.188261             0.00682285478            0.000866413596           
       3.190901              0.0063990214            0.000771702268           
       3.193541             0.00574653517            0.000768420741           
       3.196182             0.00592612144            0.000813221442           
       3.198822             0.00588656454            0.000810774429           
       3.201463             0.00635231322             0.00082772782           
       3.204103             0.00542687869            0.000760407317           
       3.206743             0.00628969035            0.000818549783           
       3.209384             0.00606725459            0.000868594401           
       3.212024             0.00626223753            0.000822711787           
       3.214664             0.00473152593            0.000813202015           
       3.217305             0.00516457591            0.000807604713           
       3.219945             0.00627115782            0.000915966679           
       3.222586             0.00485025248            0.000767265009           
       3.225226             0.00447461949            0.000817537354           
       3.227866             0.00599011226            0.000864546689           
       3.230507             0.00536329487            0.000848011752           
       3.233147             0.00628354952             0.00092529739           
       3.235787             0.00525760838            0.000866179215           
       3.238428             0.00496596727            0.000908422628           
       3.241068             0.00594941661            0.000929732256           
       3.243709             0.00636397245            0.000993463624           
       3.246349             0.00503042212            0.000805176579           
       3.248989             0.00467736607            0.000916764104           
       3.251630             0.00532961011            0.000942363865           
       3.254270             0.00505659925            0.000820362775           
       3.256911             0.00585380016            0.000963084843           
       3.259551             0.00588161246             0.00103930692           
       3.262191             0.00534114739             0.00101164941           
       3.264832             0.00750964446             0.00125336182           
       3.267472             0.00661785508             0.00110376856           
       3.270112             0.00670634434             0.00122793301           
       3.272753             0.00716663523             0.00116188779           
       3.275393             0.00469952652            0.000960023943           
       3.278034             0.00566920951             0.00105502003           
       3.280674             0.00740108241             0.00130807421           
       3.283314             0.00369884662            0.000827041953           
       3.285955             0.00394028158            0.000880735077           
       3.288595             0.00585662989             0.00119459362           
       3.291235              0.0035970154            0.000962402963           
       3.293876             0.00369261354            0.000989120248           
       3.296516             0.00290851248             0.00084275048           
       3.299157             0.00762715752             0.00134757627           
       3.301797             0.00649673208             0.00141868224           
       3.304437             0.00581288078             0.00116263192           
       3.307078             0.00392347907              0.0010521823           
       3.309718             0.00390916437             0.00108405817           
       3.312359             0.00512188795             0.00124116297           
       3.314999             0.00614103816             0.00133809361           
       3.317639             0.00643818836             0.00131031772           
       3.320280             0.00417937205             0.00112245222           
       3.322920             0.00688762961             0.00146519694           
       3.325560             0.00370719749             0.00107566966           
       3.328201             0.00479384077             0.00110164002           
       3.330841             0.00712500199              0.0016345691           
       3.333482             0.00635464111             0.00145912871           
       3.336122             0.00568423286             0.00138065004           
       3.338762             0.00573709657             0.00160226363           
       3.341403             0.00529380255             0.00147068831           
       3.344043             0.00486315337             0.00135333183           
       3.346683             0.00545240818             0.00146295362           
       3.349324             0.00548199341              0.0016492977           
       3.351964             0.00387353505             0.00146604939           
       3.354605             0.00582457213              0.0020559904           
       3.357245              0.0052759181             0.00176520785           
       3.359885             0.00491661046              0.0013638459           
       3.362526             0.00940741449              0.0023592055           
       3.365166              0.0078947955             0.00203845866           
       3.367807              0.0059963653             0.00227361282           
       3.370447             0.00533724325             0.00177932217           
       3.373087             0.00265978911             0.00134321938           
       3.375728             0.00426659396             0.00192000887           
       3.378368             0.00966563259             0.00428891676           
       3.381008             0.00104068569             0.00104922929           
       3.383649             0.00546289522             0.00192844167           
       3.386289             0.00666368656              0.0025207681           
       3.388930             0.00239398534             0.00238989969           
       3.391570             0.00354733993             0.00205794053           
       3.394210             0.00191080694             0.00191143613           
       3.396851             0.00234549114             0.00236887464           
       3.399491           -2.55776685e-05                         0           
       3.402131              0.0188638266             0.00950733198           
       3.404772           -2.56114105e-05                         0           
       3.407412                       nan                       nan           
       3.410053             0.00897152666             0.00928604732           
       3.412693                       nan                       nan           
       3.415333           -2.57235551e-05                         0           
