################################################################################
# EDF_DataBlockID                     0.Image.Psd
# EDF_BinarySize                      2105344
# EDF_HeaderSize                      2560
# ByteOrder                           LowByteFirst
# DataType                            FloatValue
# Dim_1                               512
# Dim_2                               1028
# Image                               0
# HeaderID                            EH:000000:000000:000000
# Size                                2105344
# Center_1                            304.9000
# Center_2                            588.7000
# Comment                             Xenocs_Cell_Window - 20251028_20perc_iodine_1.23mg
# DDummy                              0.6
# Date                                2025-10-31T07:55:25
# Delta                               21.910000
# Dummy                               -1.5
# ExposureTime                        360
# Gamma                               15.360000
# Intensity1                          8.50043e-10
# PSize_1                             7.5e-05
# PSize_2                             7.5e-05
# Pressure                            0.0329285
# SampleDistance                      0.115750
# SampleEnvKind                       large
# SampleEnvPN                         ElectroChemical cell
# SampleEnvSN                         1141
# Thickness                           0
# Wavelength                          1.541891e-10
# Wavelength                          1.54189e-10
# aux                                 0
# aux_dial                            0.002375
# beamx                               588.434
# beamx_dial                          588.434
# beamz                               657.808
# beamz_dial                          657.808
# det0x                               0
# det0x_dial                          6.36945
# det0xvd                             0
# det0xvd_dial                        0
# det0y                               450.002
# det0y_dial                          481.635
# det0z                               0
# det0z_dial                          1.23302
# det0zvd                             0
# det0zvd_dial                        0
# mag                                 1.818
# mag_dial                            1.818
# om                                  0.2499
# om_dial                             -0.610199
# phi                                 -0.0120535
# phi_dial                            0
# ry                                  0.599993
# ry_dial                             0.599993
# s1bot                               0.8
# s1bot_dial                          -1.66094
# s1hl                                0.8
# s1hl_dial                           -0.608437
# s1hr                                0.8
# s1hr_dial                           0.970938
# s1top                               0.8
# s1top_dial                          -0.461562
# s2bot                               0.45
# s2bot_dial                          1.36109
# s2hl                                0.45
# s2hl_dial                           -0.83375
# s2hr                                0.45
# s2hr_dial                           -0.118594
# s2top                               0.45
# s2top_dial                          1.44734
# w2theta                             32
# w2theta_dial                        32
# waxsch                              19.2605
# waxsch_dial                         -32.7355
# waxsh                               137.085
# waxsh_dial                          -43.5338
# waxsth                              26.0607
# waxsth_dial                         -19.4086
# waxsz                               67.0407
# waxsz_dial                          -23.7954
# wind                                65.9854
# wind_dial                           66.0041
# wpsi                                124
# wpsi_dial                           124
# wstod                               115
# wstod_dial                          115
# x                                   0
# x_dial                              1.00969
# z                                   0
# z_dial                              13.3172
# CountCutoff                         6807993
# DetectorModel                       Dectris EIGER2 Si 500K, S/N E-01-0554
# ThresholdSetting                    4023.88989258
# Saturation                          0
# FlatField                           Corrected
# BackgroundReductionExtra            0.02
# BackgroundCorrectionConstant        0.0026712
# Detector                            0
# Monitor                             0
# Pil_Roi0                            0
# SumForIntensity1                    3.06015e+08
# TransmittedFlux                     850043
# det                                 0
# mon                                 0
# pilai0                              3.06015e+08
# pilai1                              780352
# pilct0                              5.30045e+08
# pilct1                              780352
# pilroi0                             0
# pilroi1                             0
# sec                                 1
# title                               20251028_20perc_iodine_1.23mg_1_00596.edf
# usaxs0                              0
# Operation                           Azimuthal average I(q)
# Error_model                         ErrorModel.poisson
# Geometrical_correction              True
# Transmission_correction             True
# Thickness_correction                False
# Binning mode                        Uniform
# Binning factor                      1.0
# Psi                                 0.0
# Omega                               0.2499
# MaskInvalidPixels                   True
# DetectorEdge                        3
# MaskFiles                           ['WAXS_corrected.edf']
################################################################################
    q(A⁻¹)                Intensity(a.u.)            Sigma_I(a.u.)            
       0.693100             0.00832477358             0.00610070234           
       0.695741             0.00568492085             0.00411399303           
       0.698381             0.00851677537              0.0061681055           
       0.701021           -2.38472982e-05                         0           
       0.703662              0.0114592034             0.00583825497           
       0.706302             0.00167015995             0.00172560755           
       0.708942             0.00288743345             0.00292846505           
       0.711583           -2.37961176e-05                         0           
       0.714223             0.00586755586             0.00417348045           
       0.716864             0.00368457531             0.00216388547           
       0.719504             0.00293636504             0.00208455534           
       0.722144             0.00501007929             0.00252160771           
       0.724785             0.00477092312             0.00196285328           
       0.727425             0.00146474569             0.00147132221           
       0.730065             0.00509875485             0.00194177971           
       0.732706              0.0119516114             0.00249649022           
       0.735346             0.00887486131             0.00280428105           
       0.737987             0.00393868472             0.00132012006           
       0.740627             0.00683054443             0.00259389244           
       0.743267             0.00970150777             0.00207055171           
       0.745908             0.00576767668             0.00173211069           
       0.748548             0.00705155693             0.00176535531           
       0.751189             0.00808701127             0.00254741777           
       0.753829             0.00813891099             0.00234916977           
       0.756469              0.0100814723             0.00210827172           
       0.759110              0.0048943901             0.00154804802           
       0.761750             0.00806987898             0.00175763751           
       0.764390              0.0104118093             0.00208960582           
       0.767031             0.00564500933             0.00133239428           
       0.769671              0.0103278973             0.00224812793           
       0.772312             0.00848570328             0.00155135196           
       0.774952             0.00514571439             0.00163135686           
       0.777592             0.00820976261             0.00150088917           
       0.780233             0.00715766211             0.00169080177           
       0.782873              0.0051273673             0.00136866431           
       0.785513             0.00620169706             0.00160919538           
       0.788154             0.00551412544             0.00126933336           
       0.790794             0.00874849169             0.00191145025           
       0.793435             0.00976616793             0.00181429841           
       0.796075             0.00876705622             0.00165592127           
       0.798715              0.0082576144             0.00189912186           
       0.801356             0.00765638669             0.00157388638           
       0.803996             0.00806317968             0.00164667288           
       0.806637             0.00746510645             0.00126091086           
       0.809277             0.00800179905             0.00141299797           
       0.811917             0.00960132913             0.00144694174           
       0.814558             0.00609074305             0.00119776154           
       0.817198             0.00789782915             0.00129578852           
       0.819838              0.0085168278             0.00136185669           
       0.822479             0.00509628816             0.00123705373           
       0.825119             0.00610003986             0.00115191818           
       0.827760             0.00761230306             0.00130348539           
       0.830400             0.00866718222             0.00130906828           
       0.833040             0.00866331594             0.00137119454           
       0.835681             0.00813026498             0.00151009558           
       0.838321             0.00689257613             0.00116701541           
       0.840961             0.00821414355             0.00138807502           
       0.843602             0.00923056897             0.00134938138           
       0.846242             0.00782386076             0.00124212771           
       0.848883             0.00847387244             0.00132288908           
       0.851523             0.00806618783             0.00127464165           
       0.854163             0.00748834355             0.00130606861           
       0.856804             0.00661076247             0.00110337928           
       0.859444             0.00951575152              0.0012970629           
       0.862085             0.00651634247             0.00111869958           
       0.864725             0.00664157872             0.00115582275           
       0.867365             0.00710797668             0.00110877767           
       0.870006              0.0070389014             0.00105143348           
       0.872646             0.00778609465             0.00115961801           
       0.875286             0.00543065757            0.000931717664           
       0.877927             0.00710059171             0.00102804404           
       0.880567             0.00657162998              0.0010246352           
       0.883208             0.00732489751             0.00107157522           
       0.885848              0.0060640885             0.00101234347           
       0.888488             0.00624318544            0.000963435173           
       0.891129             0.00623548265            0.000988636411           
       0.893769             0.00776037097             0.00105552019           
       0.896410             0.00622601351            0.000881473982           
       0.899050             0.00739378175             0.00105638716           
       0.901690             0.00571312292             0.00101151035           
       0.904331             0.00562662488            0.000889945149           
       0.906971             0.00637240929             0.00100754738           
       0.909611             0.00740332342            0.000988601179           
       0.912252             0.00899172041             0.00112534407           
       0.914892             0.00840871256             0.00118922529           
       0.917533             0.00795568662             0.00109427801           
       0.920173             0.00724476576            0.000968850956           
       0.922813             0.00697547602            0.000997625512           
       0.925454             0.00704848642            0.000903023358           
       0.928094             0.00695995537            0.000957980048           
       0.930734              0.0100935762             0.00124203667           
       0.933375             0.00717054457             0.00103656715           
       0.936015             0.00826278891             0.00101058496           
       0.938656             0.00611557163            0.000932678803           
       0.941296             0.00806493451            0.000970675736           
       0.943936             0.00685784357             0.00087777617           
       0.946577             0.00786109127            0.000933578183           
       0.949217              0.0102177343            0.000978771119           
       0.951858             0.00657460407            0.000821868876           
       0.954498             0.00893605395             0.00110905988           
       0.957138             0.00853073715             0.00102657779           
       0.959779             0.00876887669             0.00102602264           
       0.962419              0.0078114664            0.000961950694           
       0.965059             0.00732427738             0.00097966283           
       0.967700             0.00961508951             0.00114962186           
       0.970340             0.00753335412            0.000900465839           
       0.972981             0.00721194543            0.000802718703           
       0.975621             0.00839820623            0.000921513544           
       0.978261             0.00692568917            0.000795140626           
       0.980902             0.00846847059             0.00105198497           
       0.983542             0.00644622257            0.000812793491           
       0.986182             0.00769592338            0.000871923228           
       0.988823             0.00801780706            0.000864163035           
       0.991463             0.00816342667            0.000930306559           
       0.994104             0.00744730581            0.000866809292           
       0.996744             0.00650974828            0.000826614139           
       0.999384              0.0079914869            0.000819095465           
       1.002025             0.00816067324            0.000923845449           
       1.004665              0.0083090063            0.000851918943           
       1.007306             0.00813749449            0.000838765225           
       1.009946             0.00827315876            0.000862524303           
       1.012586             0.00750267885            0.000799975225           
       1.015227             0.00934548703            0.000959180158           
       1.017867             0.00855335964            0.000881905847           
       1.020507             0.00785456833            0.000818607231           
       1.023148             0.00744675375            0.000860063192           
       1.025788             0.00742706331             0.00078756683           
       1.028429             0.00732510711            0.000819422822           
       1.031069             0.00804849879            0.000808287517           
       1.033709             0.00851973881             0.00088400728           
       1.036350             0.00888027418            0.000810584576           
       1.038990             0.00706233361            0.000736152145           
       1.041630              0.0086167712            0.000848114063           
       1.044271             0.00715035619            0.000726587379           
       1.046911              0.0089232918            0.000853784846           
       1.049552             0.00848902124            0.000874909661           
       1.052192             0.00829088882             0.00078952524           
       1.054832              0.0082617324            0.000795305318           
       1.057473             0.00744844554            0.000744414905           
       1.060113             0.00813241942             0.00075860874           
       1.062754             0.00810253523            0.000773101764           
       1.065394             0.00791564137            0.000807886667           
       1.068034             0.00894383289            0.000781349198           
       1.070675             0.00698395915            0.000720227402           
       1.073315             0.00802507005            0.000783112324           
       1.075955             0.00905018388            0.000785103003           
       1.078596              0.0079158387            0.000780366484           
       1.081236             0.00958183468            0.000822134475           
       1.083877             0.00823963197            0.000755542598           
       1.086517             0.00850435323            0.000823074263           
       1.089157             0.00953751904             0.00090442193           
       1.091798             0.00842930514            0.000745432689           
       1.094438             0.00923398145            0.000777683822           
       1.097078             0.00891445421            0.000732861773           
       1.099719             0.00775402083             0.00073930916           
       1.102359             0.00859690891            0.000729032847           
       1.105000             0.00794749115            0.000783805776           
       1.107640             0.00861061492            0.000780085623           
       1.110280             0.00750415187            0.000664465704           
       1.112921             0.00868314326            0.000767806798           
       1.115561             0.00903859746            0.000744522552           
       1.118202              0.0091034924            0.000747894572           
       1.120842             0.00958498474            0.000806561465           
       1.123482             0.00892374907            0.000774844299           
       1.126123             0.00840942899            0.000721470367           
       1.128763             0.00904326353            0.000753295436           
       1.131403             0.00943814582            0.000741543116           
       1.134044             0.00784585927            0.000695712371           
       1.136684             0.00947275652            0.000815033571           
       1.139325             0.00939546259            0.000747738586           
       1.141965             0.00830525301            0.000707666707           
       1.144605             0.00996008736            0.000738934508           
       1.147246             0.00779001495            0.000668797532           
       1.149886             0.00873912707            0.000705854323           
       1.152527             0.00931993451            0.000739532924           
       1.155167             0.00880352483            0.000683643119           
       1.157807              0.0077479391            0.000687640121           
       1.160448             0.00874358451             0.00071333987           
       1.163088             0.00921163015            0.000698395397           
       1.165728             0.00876527248            0.000699467259           
       1.168369             0.00873262595            0.000704613494           
       1.171009             0.00928411828            0.000705070039           
       1.173650             0.00900598207            0.000712649101           
       1.176290             0.00893654385             0.00069372807           
       1.178930             0.00815754698            0.000649606983           
       1.181571             0.00875946056            0.000686495208           
       1.184211             0.00963616535             0.00072258352           
       1.186851             0.00843924147            0.000661129979           
       1.189492              0.0094098682            0.000693418329           
       1.192132             0.00928455171            0.000681057347           
       1.194773              0.0085033275            0.000654622725           
       1.197413              0.0100971953            0.000683481383           
       1.200053             0.00889222963             0.00065770107           
       1.202694              0.0106484255            0.000684416223           
       1.205334             0.00949089982            0.000696344166           
       1.207975              0.0107789565            0.000708349139           
       1.210615             0.00876600737            0.000704696856           
       1.213255             0.00994964512            0.000672294627           
       1.215896             0.00987738841            0.000681985984           
       1.218536             0.00937583627            0.000638892823           
       1.221176             0.00961221039            0.000703308951           
       1.223817             0.00987522397            0.000669179543           
       1.226457             0.00902074791            0.000652458515           
       1.229098              0.0100880521            0.000689944458           
       1.231738             0.00937940564            0.000668544512           
       1.234378              0.0104187835            0.000662090613           
       1.237019              0.0106305648            0.000689177515           
       1.239659             0.00912632954            0.000632996468           
       1.242299              0.0103350467             0.00066505309           
       1.244940              0.0103978166            0.000648767038           
       1.247580             0.00987196617            0.000651481347           
       1.250221              0.0104283429            0.000665456623           
       1.252861             0.00996631537            0.000619324919           
       1.255501              0.0113984126            0.000719162131           
       1.258142              0.0109733579            0.000663061955           
       1.260782              0.0108243866            0.000672794926           
       1.263423              0.0107285315            0.000643611017           
       1.266063              0.0111530463             0.00067260765           
       1.268703              0.0105944519            0.000650107928           
       1.271344             0.00954778536             0.00063807566           
       1.273984              0.0102568974            0.000638729963           
       1.276624              0.0103632655            0.000629971778           
       1.279265              0.0100728306            0.000631395463           
       1.281905              0.0102808089            0.000640711527           
       1.284546              0.0103688659             0.00062195237           
       1.287186              0.0103805965            0.000610546344           
       1.289826              0.0109308356            0.000660299598           
       1.292467              0.0109591455             0.00064659164           
       1.295107              0.0110634864            0.000643208929           
       1.297747              0.0103460173            0.000595205462           
       1.300388             0.00910165117            0.000608579325           
       1.303028              0.0106377978            0.000628104204           
       1.305669              0.0115301723             0.00066948907           
       1.308309              0.0103586996             0.00062831906           
       1.310949              0.0101717018             0.00062199623           
       1.313590              0.0102347186            0.000604416947           
       1.316230               0.011208911            0.000674996193           
       1.318871              0.0110020106             0.00065494622           
       1.321511              0.0109803702            0.000642174116           
       1.324151              0.0110555117             0.00062526452           
       1.326792             0.00969673485            0.000589201492           
       1.329432              0.0112740521            0.000630834594           
       1.332072              0.0113000051            0.000622148089           
       1.334713              0.0105922956            0.000621685814           
       1.337353              0.0109195942            0.000605350354           
       1.339994              0.0112871647            0.000645858234           
       1.342634              0.0112725937            0.000618937592           
       1.345274              0.0120723082            0.000662874033           
       1.347915              0.0112012008            0.000620878252           
       1.350555              0.0114800018            0.000639566136           
       1.353195              0.0107568598            0.000622135596           
       1.355836               0.011824128            0.000642098269           
       1.358476              0.0114769376            0.000614351718           
       1.361117               0.011735574            0.000622088177           
       1.363757              0.0105606155            0.000608144736           
       1.366397              0.0112878199            0.000609708345           
       1.369038              0.0101381627            0.000583579078           
       1.371678              0.0116064961            0.000618906307           
       1.374319              0.0119836952            0.000623467586           
       1.376959              0.0117704349            0.000611681221           
       1.379599              0.0118159162            0.000656802324           
       1.382240              0.0106988743             0.00058739266           
       1.384880              0.0117180742            0.000651143527           
       1.387520              0.0106405123            0.000589291832           
       1.390161              0.0105899854            0.000558355251           
       1.392801              0.0113640948              0.0006026396           
       1.395442              0.0105813645            0.000589457378           
       1.398082              0.0111117898            0.000565667401           
       1.400722              0.0113999492            0.000600157329           
       1.403363              0.0113593926            0.000630613764           
       1.406003              0.0106689597            0.000571953145           
       1.408644              0.0123407476            0.000644393482           
       1.411284              0.0105914789            0.000565285694           
       1.413924              0.0109745107            0.000573283232           
       1.416565              0.0103623933            0.000554877833           
       1.419205               0.011936165            0.000621227242           
       1.421845             0.00971431956             0.00056010467           
       1.424486              0.0101940276            0.000551522403           
       1.427126              0.0109048667            0.000592563836           
       1.429767              0.0118365323            0.000580859002           
       1.432407              0.0107361148            0.000578936565           
       1.435047              0.0109733532            0.000549692026           
       1.437688               0.011067931            0.000560310006           
       1.440328               0.012170876            0.000599676254           
       1.442968              0.0112250052            0.000588806253           
       1.445609              0.0122712137            0.000596104852           
       1.448249              0.0112611103            0.000585502359           
       1.450890              0.0115587225            0.000589317104           
       1.453530              0.0100805238            0.000575772427           
       1.456170              0.0109899789            0.000583463616           
       1.458811              0.0101130474            0.000535198353           
       1.461451              0.0111721258            0.000564000417           
       1.464092              0.0107059481            0.000555717639           
       1.466732               0.010036777            0.000533446197           
       1.469372              0.0117328894            0.000563263136           
       1.472013              0.0109068763            0.000585716193           
       1.474653              0.0114925265            0.000591960923           
       1.477293              0.0097879068            0.000557812889           
       1.479934              0.0108252448            0.000559765286           
       1.482574              0.0112106997            0.000551041482           
       1.485215              0.0112455536            0.000562176623           
       1.487855              0.0111747367            0.000567796373           
       1.490495              0.0109732617            0.000560582338           
       1.493136              0.0111597115            0.000557575945           
       1.495776              0.0105559452            0.000539813953           
       1.498416              0.0106159147            0.000559056429           
       1.501057              0.0108867299            0.000553665433           
       1.503697              0.0104397618            0.000530068026           
       1.506338              0.0108134388             0.00054932918           
       1.508978              0.0103042128            0.000530965182           
       1.511618              0.0103224314             0.00056597501           
       1.514259              0.0109330834            0.000562352705           
       1.516899               0.010177673            0.000528290533           
       1.519540              0.0103018416            0.000540074249           
       1.522180                0.01059229            0.000552445404           
       1.524820              0.0109271662            0.000557962165           
       1.527461               0.010069013            0.000538253686           
       1.530101              0.0104331605            0.000542420669           
       1.532741              0.0101238532            0.000531218866           
       1.535382              0.0111736868            0.000567067482           
       1.538022              0.0102225386            0.000510965038           
       1.540663               0.010625305            0.000560296435           
       1.543303              0.0103343736            0.000513072544           
       1.545943               0.011198927             0.00056530844           
       1.548584              0.0101149289            0.000546896811           
       1.551224             0.00996082533            0.000501791087           
       1.553864              0.0103986499            0.000541763906           
       1.556505             0.00986786515            0.000509825973           
       1.559145              0.0104839991            0.000531938698           
       1.561786             0.00914759294            0.000497262672           
       1.564426             0.00976453918            0.000497777687           
       1.567066              0.0104561416            0.000539730532           
       1.569707             0.00987178962            0.000515011577           
       1.572347               0.010613883             0.00055169436           
       1.574988              0.0106292802             0.00052550128           
       1.577628             0.00959424515            0.000520605658           
       1.580268             0.00986731504            0.000511539315           
       1.582909             0.00973664006            0.000538609054           
       1.585549              0.0098300167            0.000525473905           
       1.588189             0.00972191041            0.000511171019           
       1.590830             0.00962561828            0.000507994845           
       1.593470             0.00881928626            0.000505505935           
       1.596111             0.00952300895            0.000512843274           
       1.598751             0.00948450749            0.000495922388           
       1.601391             0.00932438746            0.000502567085           
       1.604032             0.00931331932            0.000512768731           
       1.606672               0.008771929             0.00048350624           
       1.609312             0.00912522626             0.00051478774           
       1.611953              0.0103500152            0.000536494611           
       1.614593             0.00921981607            0.000496695179           
       1.617234             0.00955668796            0.000524083124           
       1.619874             0.00951443048            0.000520857473           
       1.622514             0.00919835099            0.000505146436           
       1.625155             0.00883352782            0.000497951952           
       1.627795             0.00928014846            0.000497879548           
       1.630436             0.00930019626            0.000495814471           
       1.633076             0.00935554768            0.000503809864           
       1.635716             0.00945052872            0.000498482297           
       1.638357             0.00852554921            0.000474707502           
       1.640997             0.00875138824            0.000495522899           
       1.643637             0.00852162408            0.000475827551           
       1.646278             0.00978572314            0.000525920926           
       1.648918             0.00851667124             0.00049197388           
       1.651559             0.00934979524            0.000519476503           
       1.654199             0.00937336423            0.000505872929           
       1.656839             0.00915239973            0.000500049219           
       1.659480             0.00844512486            0.000498377146           
       1.662120             0.00876673214            0.000478243302           
       1.664761             0.00864298587            0.000493252815           
       1.667401             0.00979283493            0.000501825239           
       1.670041             0.00930692554            0.000496676298           
       1.672682             0.00878080485            0.000480450639           
       1.675322             0.00828132824            0.000463585529           
       1.677962             0.00814097045            0.000454569733           
       1.680603             0.00836071643             0.00046208147           
       1.683243             0.00870501776            0.000491922249           
       1.685884             0.00848572157             0.00048927311           
       1.688524              0.0089299386            0.000492214071           
       1.691164             0.00876885378            0.000487865115           
       1.693805             0.00829067839            0.000479587954           
       1.696445             0.00891427206            0.000500182065           
       1.699085              0.0093109108            0.000494059742           
       1.701726             0.00902677069            0.000468621938           
       1.704366             0.00835522089            0.000474961729           
       1.707007             0.00857026825            0.000470312405           
       1.709647             0.00823350117            0.000466185262           
       1.712287             0.00892180941            0.000489504381           
       1.714928              0.0083279067            0.000476744331           
       1.717568             0.00869378857             0.00045885438           
       1.720209              0.0079878415            0.000460691646           
       1.722849              0.0086798493            0.000477763754           
       1.725489             0.00877519593            0.000480784034           
       1.728130             0.00802376569            0.000488573049           
       1.730770             0.00817318464            0.000468313598           
       1.733410              0.0092550865            0.000490512911           
       1.736051             0.00885323792            0.000483085147           
       1.738691             0.00880447743            0.000471987223           
       1.741332              0.0085542859            0.000478836517           
       1.743972              0.0089745398             0.00050648077           
       1.746612              0.0088953424            0.000484199959           
       1.749253             0.00846821199            0.000481761734           
       1.751893             0.00767255681            0.000455204913           
       1.754533             0.00851010756            0.000478959333           
       1.757174             0.00874539729            0.000480988596           
       1.759814             0.00876437101            0.000474211322           
       1.762455             0.00879028061            0.000483632131           
       1.765095             0.00853596925            0.000455911315           
       1.767735             0.00875248326            0.000475899297           
       1.770376              0.0087369012             0.00047672897           
       1.773016             0.00827292029            0.000460790422           
       1.775657             0.00878890235            0.000468109058           
       1.778297             0.00849619233            0.000456284847           
       1.780937             0.00912393487            0.000499083319           
       1.783578              0.0091925842            0.000488431318           
       1.786218             0.00810798557            0.000478717346           
       1.788858             0.00828991399            0.000459738609           
       1.791499             0.00828497141            0.000454439786           
       1.794139             0.00850240956            0.000456629502           
       1.796780             0.00829960111            0.000448975674           
       1.799420             0.00820031231            0.000443810627           
       1.802060             0.00878114053            0.000462968879           
       1.804701             0.00949516095            0.000461996126           
       1.807341             0.00918437867             0.00047744669           
       1.809981             0.00932415282             0.00048266992           
       1.812622             0.00989311473            0.000488227367           
       1.815262             0.00967149444            0.000492982141           
       1.817903             0.00951122845            0.000481636803           
       1.820543             0.00992512382            0.000499671328           
       1.823183             0.00906620168            0.000477298789           
       1.825824             0.00911359799            0.000457182292           
       1.828464             0.00917224122            0.000478163339           
       1.831105             0.00896423444            0.000459640953           
       1.833745             0.00966934801            0.000487571448           
       1.836385             0.00817500728            0.000461109716           
       1.839026             0.00894597707            0.000480839112           
       1.841666              0.0101121833            0.000509407868           
       1.844306             0.00869148668            0.000459383731           
       1.846947             0.00952686483            0.000485169957           
       1.849587             0.00909751029            0.000523533652           
       1.852228             0.00851053899            0.000457877522           
       1.854868              0.0087160467            0.000489484863           
       1.857508             0.00845493728            0.000477368926           
       1.860149             0.00857396401            0.000489451277           
       1.862789             0.00864527842            0.000474394352           
       1.865429             0.00978124466            0.000526724993           
       1.868070             0.00905690372            0.000500091458           
       1.870710             0.00881679384            0.000482042359           
       1.873351             0.00852820094            0.000479948379           
       1.875991             0.00911635162            0.000504320836           
       1.878631             0.00857745564            0.000479818774           
       1.881272             0.00912127011            0.000491480133           
       1.883912             0.00846646635            0.000492786469           
       1.886553             0.00911067557            0.000505475612           
       1.889193             0.00860855446            0.000490509399           
       1.891833             0.00868082023            0.000511546843           
       1.894474             0.00959362694            0.000533086404           
       1.897114             0.00832116393            0.000480429432           
       1.899754              0.0083868151            0.000484338991           
       1.902395             0.00827674652            0.000471743197           
       1.905035             0.00928458881            0.000529202448           
       1.907676             0.00878592936            0.000485195849           
       1.910316              0.0089426175            0.000502500363           
       1.912956             0.00911808034             0.00049624319           
       1.915597             0.00830965555            0.000476381425           
       1.918237             0.00876454837            0.000505273001           
       1.920878             0.00883145654            0.000505121661           
       1.923518             0.00786645807            0.000476928933           
       1.926158             0.00868723856              0.0004946892           
       1.928799             0.00827646424            0.000477262791           
       1.931439             0.00918465904            0.000515953958           
       1.934079             0.00928975968             0.00054093799           
       1.936720             0.00854724611            0.000480747891           
       1.939360             0.00929209967             0.00053477226           
       1.942001             0.00926228753            0.000489359268           
       1.944641             0.00835662715             0.00047397525           
       1.947281             0.00839173893            0.000470591916           
       1.949922             0.00930523345            0.000511852995           
       1.952562             0.00799342305            0.000489274116           
       1.955202             0.00760763787            0.000476739399           
       1.957843             0.00879968393            0.000499434512           
       1.960483             0.00788305475            0.000494214819           
       1.963124             0.00836228241            0.000498572717           
       1.965764             0.00811508791            0.000463166673           
       1.968404             0.00906503872            0.000484900497           
       1.971045             0.00900476911            0.000492735346           
       1.973685             0.00759671867            0.000474717267           
       1.976326             0.00775853427            0.000473153031           
       1.978966             0.00837102494            0.000495787736           
       1.981606             0.00826516161            0.000502917178           
       1.984247             0.00845417388            0.000505291137           
       1.986887             0.00883704248            0.000510417801           
       1.989527             0.00781209015            0.000474737471           
       1.992168              0.0079785424            0.000497800409           
       1.994808             0.00784458102             0.00049148776           
       1.997449             0.00815129025             0.00049071491           
       2.000089             0.00695426934            0.000451457187           
       2.002729             0.00918755454            0.000519219598           
       2.005370             0.00777841821             0.00047260527           
       2.008010             0.00809664881            0.000503219745           
       2.010650             0.00732443029             0.00048219261           
       2.013291             0.00811480909            0.000486959345           
       2.015931             0.00747608869            0.000464098206           
       2.018572             0.00787312726            0.000509407683           
       2.021212             0.00746413389             0.00048708838           
       2.023852             0.00810785005            0.000480474027           
       2.026493             0.00777211904            0.000491438523           
       2.029133             0.00810804713            0.000491845512           
       2.031774              0.0078918829            0.000509253642           
       2.034414             0.00741025635            0.000454060626           
       2.037054             0.00757023126            0.000470568167           
       2.039695             0.00807026454            0.000482191302           
       2.042335             0.00707760357            0.000469273364           
       2.044975             0.00856910819            0.000510095627           
       2.047616             0.00839839103            0.000503734477           
       2.050256             0.00857390224            0.000513787508           
       2.052897             0.00797167652            0.000504548215           
       2.055537             0.00718083348            0.000462807133           
       2.058177             0.00789421792            0.000475192378           
       2.060818             0.00764683162            0.000489938781           
       2.063458             0.00754972386            0.000507312666           
       2.066098             0.00751185647            0.000477364099           
       2.068739             0.00785724895            0.000495804095           
       2.071379             0.00718420033            0.000486458087           
       2.074020             0.00765780751            0.000491321686           
       2.076660             0.00783147585            0.000500878302           
       2.079300             0.00891529765            0.000547508858           
       2.081941             0.00758561143            0.000462413931           
       2.084581             0.00787893547            0.000497429616           
       2.087222             0.00770550038            0.000474413986           
       2.089862             0.00726718237            0.000501797874           
       2.092502             0.00666488325            0.000465828354           
       2.095143             0.00712766641            0.000497457858           
       2.097783             0.00800417839            0.000510377898           
       2.100423             0.00770443092            0.000482499613           
       2.103064             0.00800546494            0.000510345537           
       2.105704              0.0075619034            0.000493548783           
       2.108345             0.00833004515             0.00049766916           
       2.110985             0.00743223725            0.000502085306           
       2.113625             0.00738002541            0.000504684617           
       2.116266              0.0075675289            0.000518306311           
       2.118906             0.00882659371            0.000521669956           
       2.121546              0.0078879991             0.00048373831           
       2.124187             0.00829739779              0.0005207863           
       2.126827             0.00772037553            0.000507958239           
       2.129468             0.00871401801            0.000541035724           
       2.132108             0.00738678604            0.000484644567           
       2.134748             0.00702196289            0.000470691773           
       2.137389              0.0077929317            0.000517303601           
       2.140029              0.0082676447            0.000477018971           
       2.142670              0.0081144779            0.000505056081           
       2.145310             0.00705650391            0.000458415005           
       2.147950             0.00631151297            0.000446232446           
       2.150591             0.00774453658            0.000489306278           
       2.153231             0.00836438422             0.00052343266           
       2.155871             0.00723749872            0.000470375945           
       2.158512             0.00762402489            0.000503739431           
       2.161152             0.00803718352            0.000501000517           
       2.163793              0.0082322608            0.000504761508           
       2.166433             0.00724676503            0.000486322822           
       2.169073              0.0078645449            0.000495348934           
       2.171714             0.00737840577            0.000476208287           
       2.174354              0.0075597221            0.000503670478           
       2.176995             0.00858954158            0.000534622598           
       2.179635             0.00700479347            0.000510173543           
       2.182275             0.00817710634              0.0005204333           
       2.184916             0.00761284946            0.000485017719           
       2.187556              0.0072376383            0.000468174325           
       2.190196             0.00836317339            0.000525902696           
       2.192837             0.00743009693            0.000493000906           
       2.195477              0.0078515392            0.000483163897           
       2.198118             0.00754882708            0.000485897642           
       2.200758             0.00764397567            0.000501633311           
       2.203398             0.00743183489            0.000497787781           
       2.206039             0.00748617161            0.000472833095           
       2.208679             0.00638664335            0.000446895242           
       2.211319             0.00689592434            0.000467049154           
       2.213960             0.00785717534             0.00050521909           
       2.216600             0.00646288922            0.000474002922           
       2.219241             0.00790732819            0.000501092227           
       2.221881             0.00730168814            0.000482510137           
       2.224521             0.00800535294            0.000511416199           
       2.227162             0.00826122655            0.000509122959           
       2.229802             0.00734755326            0.000495174736           
       2.232443             0.00759873851            0.000495624964           
       2.235083              0.0079583599            0.000522179009           
       2.237723             0.00779335984            0.000495884661           
       2.240364             0.00692196025            0.000478853166           
       2.243004              0.0069710208            0.000476711174           
       2.245644             0.00773294967             0.00050711349           
       2.248285             0.00805189714            0.000507099463           
       2.250925             0.00744137269            0.000490456793           
       2.253566             0.00811796957              0.0005476546           
       2.256206             0.00775188284            0.000524463043           
       2.258846             0.00780738308            0.000500692235           
       2.261487             0.00747338745            0.000514159292           
       2.264127             0.00729305816            0.000490539362           
       2.266767             0.00790028542            0.000524155026           
       2.269408             0.00738259855            0.000508765677           
       2.272048             0.00714285966            0.000497449629           
       2.274689             0.00772391933            0.000524103369           
       2.277329             0.00762376385            0.000490267218           
       2.279969             0.00727165222            0.000509667556           
       2.282610             0.00787741134            0.000515717813           
       2.285250             0.00722887827            0.000472856569           
       2.287891             0.00686973426            0.000494219516           
       2.290531             0.00815755128            0.000545794332           
       2.293171             0.00762943432            0.000514155587           
       2.295812             0.00732305989            0.000501701557           
       2.298452             0.00759309035            0.000534231846           
       2.301092             0.00749342213            0.000493098567           
       2.303733             0.00733741581            0.000507626633           
       2.306373             0.00806351016            0.000540531608           
       2.309014             0.00738372985            0.000507155446           
       2.311654             0.00797915344            0.000550166075           
       2.314294             0.00638006578            0.000453242668           
       2.316935             0.00743672994            0.000491359969           
       2.319575             0.00736184464            0.000512232876           
       2.322215             0.00657937882            0.000504666695           
       2.324856             0.00744306795            0.000493504296           
       2.327496             0.00658576132            0.000493604917           
       2.330137             0.00776937882            0.000513035739           
       2.332777             0.00810551258             0.00054031657           
       2.335417             0.00736398951            0.000499635511           
       2.338058             0.00711462199            0.000505773373           
       2.340698             0.00640176869            0.000475996426           
       2.343339             0.00750820436            0.000526835659           
       2.345979             0.00713899201            0.000486018966           
       2.348619             0.00678850931            0.000491262636           
       2.351260             0.00624124668            0.000468300362           
       2.353900             0.00713834511            0.000499240318           
       2.356540             0.00801567849            0.000528279912           
       2.359181             0.00747851604             0.00050311816           
       2.361821             0.00774042873            0.000494435826           
       2.364462             0.00668183434            0.000480457533           
       2.367102             0.00707465215            0.000508053137           
       2.369742             0.00712042309            0.000536488101           
       2.372383             0.00652622932            0.000465077824           
       2.375023             0.00780705568            0.000534724833           
       2.377663             0.00691706569            0.000481251678           
       2.380304             0.00657502043            0.000477025386           
       2.382944             0.00766226918            0.000490481006           
       2.385585             0.00799537648             0.00053435617           
       2.388225             0.00758426556            0.000517991454           
       2.390865             0.00658437418            0.000477681956           
       2.393506             0.00673594539            0.000474033586           
       2.396146             0.00750099773            0.000540870771           
       2.398787             0.00762994008            0.000502720356           
       2.401427             0.00725068767            0.000473027687           
       2.404067             0.00688009565            0.000471058602           
       2.406708             0.00643229944            0.000450009262           
       2.409348             0.00679238676            0.000490501462           
       2.411988             0.00717162828             0.00049381698           
       2.414629             0.00737426481            0.000516339976           
       2.417269             0.00617421872             0.00047797868           
       2.419910             0.00810738896            0.000548990232           
       2.422550             0.00684604384            0.000482655355           
       2.425190             0.00670226697            0.000503398351           
       2.427831             0.00730063816            0.000522436042           
       2.430471             0.00741602888            0.000501639209           
       2.433112             0.00694335171            0.000472653643           
       2.435752             0.00691452416            0.000499175639           
       2.438392             0.00733908116            0.000496377796           
       2.441033             0.00659908971             0.00049883512           
       2.443673             0.00759369211            0.000535519447           
       2.446313             0.00691316674            0.000511410942           
       2.448954             0.00729442548            0.000500181654           
       2.451594             0.00689192663            0.000522763662           
       2.454235             0.00754626959            0.000513242086           
       2.456875             0.00725500518            0.000526569183           
       2.459515             0.00755332127            0.000551194944           
       2.462156             0.00817722829            0.000541471209           
       2.464796             0.00692187061            0.000491750117           
       2.467436             0.00757924084            0.000532127193           
       2.470077               0.007848014            0.000513224834           
       2.472717             0.00778791645            0.000513470655           
       2.475358             0.00742295861             0.00050652219           
       2.477998             0.00744146499            0.000498603331           
       2.480638             0.00680044214            0.000485113966           
       2.483279             0.00759348818             0.00053577001           
       2.485919             0.00701475974            0.000496271007           
       2.488560             0.00732990427            0.000505878788           
       2.491200             0.00699560533            0.000508903862           
       2.493840             0.00762829029            0.000562310409           
       2.496481             0.00782032379             0.00056003095           
       2.499121             0.00735337671            0.000528206809           
       2.501761             0.00595718899            0.000481723325           
       2.504402             0.00676215057            0.000505740322           
       2.507042             0.00681548907             0.00050396976           
       2.509683             0.00650051509            0.000484664338           
       2.512323             0.00717345037            0.000534716115           
       2.514963             0.00730233505            0.000532833112           
       2.517604             0.00664809249             0.00052754721           
       2.520244             0.00673241118            0.000497702983           
       2.522884             0.00748876238            0.000532422969           
       2.525525             0.00700510665            0.000520787674           
       2.528165             0.00818151924            0.000554047927           
       2.530806             0.00749028762            0.000539366841           
       2.533446              0.0105526027            0.000626534089           
       2.536086              0.0086164418            0.000561079356           
       2.538727             0.00770979001            0.000509164081           
       2.541367             0.00750374015            0.000507262142           
       2.544008             0.00661515712            0.000491882443           
       2.546648             0.00772464241            0.000540650468           
       2.549288             0.00708741264            0.000528422638           
       2.551929             0.00759398396            0.000538262225           
       2.554569             0.00757633587            0.000517967684           
       2.557209             0.00670805929             0.00049186029           
       2.559850             0.00740546901            0.000518456085           
       2.562490             0.00696503449            0.000519673261           
       2.565131             0.00725575176            0.000549950743           
       2.567771             0.00818029188            0.000563004226           
       2.570411             0.00637050634             0.00049146163           
       2.573052              0.0086689937            0.000580526655           
       2.575692              0.0072616927            0.000528103312           
       2.578332             0.00700072081            0.000520671197           
       2.580973             0.00696001064             0.00051421551           
       2.583613             0.00615219852             0.00047194276           
       2.586254             0.00747902952              0.0005196283           
       2.588894             0.00726928033            0.000531988715           
       2.591534             0.00693831767            0.000538025528           
       2.594175             0.00778736565            0.000559238922           
       2.596815             0.00662867228            0.000519001446           
       2.599456             0.00731816147            0.000517130212           
       2.602096             0.00715393242            0.000515185868           
       2.604736             0.00703718342            0.000523080866           
       2.607377             0.00722363967            0.000515998984           
       2.610017             0.00729340865            0.000509411565           
       2.612657               0.006965661            0.000529521697           
       2.615298             0.00597956884            0.000478990948           
       2.617938             0.00681673807            0.000547092439           
       2.620579             0.00609502945            0.000496623157           
       2.623219             0.00626497752            0.000502781516           
       2.625859             0.00690360508            0.000513155616           
       2.628500             0.00691753626            0.000510306194           
       2.631140             0.00679174392             0.00051343619           
       2.633780             0.00782954087            0.000550790281           
       2.636421             0.00650533018            0.000514403265           
       2.639061             0.00713432551            0.000507122414           
       2.641702              0.0082188046             0.00055690388           
       2.644342             0.00783960472            0.000546222498           
       2.646982             0.00872407588            0.000567597659           
       2.649623             0.00803101707            0.000570703841           
       2.652263             0.00734666057            0.000540368925           
       2.654904             0.00721440912            0.000536021805           
       2.657544             0.00719543782            0.000504212682           
       2.660184             0.00696925237            0.000525150077           
       2.662825             0.00716203151            0.000544714472           
       2.665465             0.00782932236            0.000550824601           
       2.668105              0.0068899634            0.000544648241           
       2.670746             0.00807331524            0.000544634729           
       2.673386              0.0112771744            0.000663378368           
       2.676027              0.0135638412            0.000715856296           
       2.678667             0.00972596637            0.000591479163           
       2.681307              0.0120590322            0.000647123235           
       2.683948               0.014321583            0.000724583629           
       2.686588              0.0110685699            0.000626435282           
       2.689229              0.0104077692            0.000593573303           
       2.691869             0.00855978159            0.000568932843           
       2.694509             0.00889652569            0.000580334589           
       2.697150             0.00799081248            0.000541078066           
       2.699790             0.00711287729            0.000535175279           
       2.702430             0.00846049719            0.000557923441           
       2.705071             0.00654165225            0.000506934163           
       2.707711             0.00781502838            0.000537776954           
       2.710352             0.00738280768            0.000552291847           
       2.712992             0.00625564042            0.000517786261           
       2.715632             0.00697005328            0.000507093218           
       2.718273             0.00827780325            0.000572717185           
       2.720913             0.00727755472             0.00053547344           
       2.723553             0.00743216103            0.000544762145           
       2.726194             0.00706697232            0.000555289316           
       2.728834              0.0076849144            0.000579329774           
       2.731475             0.00716853513            0.000516394945           
       2.734115             0.00651546039            0.000507589836           
       2.736755             0.00736476729            0.000544101393           
       2.739396             0.00658608569            0.000511552792           
       2.742036             0.00722740777            0.000560833091           
       2.744677             0.00584927989            0.000489540574           
       2.747317             0.00831960475            0.000579670108           
       2.749957             0.00707837896            0.000538435422           
       2.752598             0.00690403688            0.000537534175           
       2.755238             0.00823072525            0.000597507902           
       2.757878             0.00721035815            0.000554356547           
       2.760519             0.00804720841            0.000579433866           
       2.763159             0.00869538769            0.000596298731           
       2.765800             0.00787150135            0.000540672136           
       2.768440             0.00799747512            0.000548996179           
       2.771080             0.00819482458            0.000560367267           
       2.773721             0.00696749955            0.000530032493           
       2.776361             0.00620935098            0.000507268265           
       2.779001             0.00723894473            0.000567211223           
       2.781642             0.00590525323             0.00050852705           
       2.784282             0.00572237825            0.000508822736           
       2.786923              0.0068666644              0.0005622873           
       2.789563             0.00643407474            0.000524212855           
       2.792203             0.00743707233            0.000538392289           
       2.794844             0.00687084391            0.000567161773           
       2.797484             0.00640691201            0.000516875595           
       2.800125             0.00770266411            0.000595924924           
       2.802765             0.00693382464            0.000555675374           
       2.805405             0.00645155797             0.00053781692           
       2.808046             0.00713691302            0.000575606541           
       2.810686             0.00653935954            0.000506289218           
       2.813326             0.00676231407            0.000534784623           
       2.815967              0.0071946658            0.000567299643           
       2.818607             0.00813929032            0.000575802601           
       2.821248             0.00655549991            0.000506025019           
       2.823888              0.0071947743            0.000550282405           
       2.826528             0.00739610612             0.00054032626           
       2.829169             0.00734007825            0.000563813727           
       2.831809             0.00717195362            0.000564899996           
       2.834449              0.0054500113            0.000495550038           
       2.837090              0.0063308899            0.000515854248           
       2.839730             0.00699817106            0.000539711035           
       2.842371             0.00705614833            0.000542724234           
       2.845011             0.00643887106            0.000522574556           
       2.847651             0.00718411555            0.000552666452           
       2.850292             0.00689035076            0.000546560899           
       2.852932             0.00719764242            0.000570789658           
       2.855573             0.00596353657            0.000503984598           
       2.858213             0.00742982302            0.000590736783           
       2.860853             0.00767657173            0.000558571347           
       2.863494              0.0075248467             0.00057257899           
       2.866134             0.00775526618            0.000604167886           
       2.868774             0.00705047578             0.00056614991           
       2.871415             0.00617992485            0.000538302568           
       2.874055             0.00672851817            0.000536903172           
       2.876696             0.00619333392            0.000529041201           
       2.879336              0.0070651043            0.000544599133           
       2.881976             0.00718405246            0.000566425256           
       2.884617             0.00823690144            0.000597604997           
       2.887257             0.00819018614            0.000598983755           
       2.889897             0.00655240437            0.000524731377           
       2.892538             0.00625876023            0.000561816738           
       2.895178             0.00629932194            0.000509206038           
       2.897819             0.00752948779            0.000567897841           
       2.900459             0.00650834651            0.000517715513           
       2.903099             0.00661071721            0.000516430318           
       2.905740             0.00559914538            0.000487575169           
       2.908380             0.00637996508            0.000526376664           
       2.911021             0.00691085682            0.000556746591           
       2.913661             0.00756409952            0.000582291036           
       2.916301             0.00691849461             0.00055741834           
       2.918942             0.00694373395            0.000534156019           
       2.921582             0.00593511923            0.000516698973           
       2.924222             0.00692664965            0.000540781786           
       2.926863             0.00752698811            0.000587189744           
       2.929503              0.0068847661            0.000568234339           
       2.932144               0.006824287            0.000543069093           
       2.934784             0.00682128991            0.000534047006           
       2.937424             0.00601330364            0.000506569317           
       2.940065              0.0073400364            0.000533871556           
       2.942705             0.00721273998            0.000528557953           
       2.945346             0.00668368142            0.000539969597           
       2.947986             0.00680761259            0.000555663224           
       2.950626             0.00763861471              0.0005852877           
       2.953267             0.00796570167            0.000588030388           
       2.955907             0.00653538791            0.000552527642           
       2.958547             0.00748144325             0.00055809305           
       2.961188             0.00596830497            0.000520043865           
       2.963828             0.00754057391             0.00057179139           
       2.966469             0.00701980281            0.000541209413           
       2.969109             0.00648360073            0.000527835443           
       2.971749             0.00652872965             0.00052636499           
       2.974390             0.00729559861            0.000546784961           
       2.977030             0.00798263167            0.000584733514           
       2.979670             0.00874172647            0.000595194809           
       2.982311              0.0081841124             0.00059689033           
       2.984951             0.00800352134            0.000561396882           
       2.987592             0.00738249709            0.000549975924           
       2.990232             0.00708704468            0.000560406885           
       2.992872             0.00905728252            0.000596753096           
       2.995513             0.00839717557            0.000562143683           
       2.998153              0.0103761903            0.000635383254           
       3.000794              0.0135928078            0.000704396316           
       3.003434              0.0116686561            0.000653624232           
       3.006074              0.0537089301              0.0013826456           
       3.008715               0.129591836             0.00207321747           
       3.011355                0.16655608             0.00226651617           
       3.013995               0.079725997             0.00157238379           
       3.016636              0.0582189656             0.00131576583           
       3.019276               0.125293852             0.00189738634           
       3.021917               0.497278503             0.00363464437           
       3.024557                1.76534668             0.00673297592           
       3.027197                 1.1119848             0.00520981923           
       3.029838               0.500934576             0.00354634294           
       3.032478               0.265383759             0.00258385867           
       3.035118              0.0718288673             0.00136228784           
       3.037759               0.104715117             0.00164271932           
       3.040399               0.149191316             0.00202260093           
       3.043040               0.568250058             0.00399575745           
       3.045680               0.383596758             0.00308880858           
       3.048320              0.0792480654             0.00143448176           
       3.050961               0.111985142              0.0017352683           
       3.053601              0.0879700557             0.00148127204           
       3.056242              0.0597054282             0.00129746113           
       3.058882              0.0554444398             0.00134120749           
       3.061522              0.0423971094             0.00115068612           
       3.064163              0.0521749451              0.0012604227           
       3.066803               0.114442867             0.00196525602           
       3.069443               0.114689388             0.00205837463           
       3.072084              0.0444298783             0.00124749926           
       3.074724              0.0394402507             0.00131261374           
       3.077365              0.0840235943             0.00198326764           
       3.080005              0.0142820394            0.000822299049           
       3.082645               0.013610419            0.000843288427           
       3.085286              0.0138909534            0.000858656393           
       3.087926             0.00919964804            0.000693392029           
       3.090566              0.0116623708            0.000764939692           
       3.093207             0.00971759603            0.000726605147           
       3.095847             0.00858179839            0.000654475469           
       3.098488             0.00851951548            0.000723063075           
       3.101128             0.00907553289            0.000751084577           
       3.103768             0.00939583685            0.000749845957           
       3.106409             0.00825550683            0.000748044783           
       3.109049             0.00904917901            0.000751576862           
       3.111690             0.00770213061            0.000681481456           
       3.114330             0.00865890547            0.000737941741           
       3.116970             0.00772890287            0.000702539755           
       3.119611              0.0137536809            0.000997562709           
       3.122251              0.0199979857             0.00125825737           
       3.124891              0.0357700105             0.00169848805           
       3.127532              0.0208418378             0.00126834986           
       3.130172              0.0146998085             0.00108359538           
       3.132813             0.00915609982             0.00084191272           
       3.135453             0.00743185439            0.000752260443           
       3.138093             0.00661589145            0.000769054137           
       3.140734             0.00709080224            0.000734535907           
       3.143374             0.00730434134            0.000788413784           
       3.146014             0.00639443503            0.000794140233           
       3.148655             0.00637393622            0.000737042654           
       3.151295             0.00510793816            0.000703118853           
       3.153936             0.00486966278            0.000663160942           
       3.156576             0.00656881532            0.000759740342           
       3.159216             0.00637719605            0.000752321347           
       3.161857             0.00481598456            0.000651118379           
       3.164497             0.00783964056            0.000872869101           
       3.167138             0.00784137109            0.000901986349           
       3.169778             0.00720492438             0.00085034834           
       3.172418             0.00697857751            0.000828372189           
       3.175059             0.00750805693             0.00076173746           
       3.177699             0.00759827696            0.000811465847           
       3.180339              0.0060531086            0.000776001685           
       3.182980             0.00647949644            0.000830083759           
       3.185620              0.0060659944            0.000817950505           
       3.188261             0.00743284155            0.000921584722           
       3.190901             0.00676413393            0.000808564609           
       3.193541             0.00565984227            0.000777166089           
       3.196182             0.00660508839            0.000874940457           
       3.198822             0.00613398975            0.000843443984           
       3.201463             0.00637796921             0.00084523689           
       3.204103             0.00608609668            0.000820646814           
       3.206743             0.00718764619            0.000891742457           
       3.209384             0.00671055508            0.000930927314           
       3.212024             0.00562658514            0.000794732609           
       3.214664             0.00609212295            0.000940367904           
       3.217305             0.00574154482            0.000867783775           
       3.219945             0.00624945526            0.000931842525           
       3.222586             0.00679697887            0.000925628703           
       3.225226             0.00588928331            0.000955820646           
       3.227866             0.00478031699             0.00078707289           
       3.230507             0.00541524084            0.000868381486           
       3.233147             0.00694717632            0.000991513453           
       3.235787             0.00562316212             0.00091289237           
       3.238428             0.00689774197              0.0010910763           
       3.241068             0.00480843524            0.000851801161           
       3.243709             0.00612300301            0.000993083337           
       3.246349             0.00576225714            0.000878215039           
       3.248989             0.00709545292             0.00115070133           
       3.251630             0.00728785796             0.00112301741           
       3.254270             0.00455647794            0.000793609664           
       3.256911             0.00510957504            0.000916966832           
       3.259551             0.00688023583               0.001145547           
       3.262191             0.00356549724            0.000842341965           
       3.264832             0.00583613134             0.00112601697           
       3.267472             0.00398125457            0.000872458945           
       3.270112             0.00465904354             0.00104302753           
       3.272753             0.00606952223             0.00108968111           
       3.275393             0.00466861884            0.000975135248           
       3.278034             0.00651745048             0.00115279997           
       3.280674             0.00577375107             0.00117741463           
       3.283314             0.00497701791            0.000977675235           
       3.285955             0.00862671306             0.00132806697           
       3.288595             0.00457959001             0.00107652776           
       3.291235             0.00448678068             0.00109539021           
       3.293876             0.00576865555             0.00125989717           
       3.296516             0.00556584452             0.00118807734           
       3.299157             0.00594974283             0.00121293276           
       3.301797             0.00612139716             0.00140339061           
       3.304437             0.00649379534              0.0012523089           
       3.307078             0.00641150377             0.00137072681           
       3.309718             0.00747979479             0.00152816798           
       3.312359             0.00532801406             0.00129006648           
       3.314999             0.00239684692            0.000851925036           
       3.317639              0.0064047842             0.00133187252           
       3.320280             0.00372082627             0.00107931366           
       3.322920             0.00777274607             0.00158622205           
       3.325560             0.00483481919             0.00125187744           
       3.328201             0.00498400716             0.00114472947           
       3.330841             0.00622404201             0.00155690703           
       3.333482             0.00485491154             0.00129973371           
       3.336122             0.00345540711             0.00109701591           
       3.338762             0.00504139372             0.00153066037           
       3.341403             0.00468916069             0.00141058728           
       3.344043             0.00702370886             0.00165746436           
       3.346683             0.00364369743             0.00121877396           
       3.349324             0.00309548173             0.00126301805           
       3.351964             0.00572756906             0.00181675205           
       3.354605             0.00378614557             0.00168928668           
       3.357245             0.00426403411             0.00161723375           
       3.359885             0.00708242482             0.00166816506           
       3.362526             0.00487976553             0.00173159269           
       3.365166             0.00651519043              0.0018871684           
       3.367807             0.00529349379              0.0021770044           
       3.370447              0.0080053233             0.00222075764           
       3.373087              0.0091284172             0.00253592686           
       3.375728              0.0053326935             0.00218751744           
       3.378368             0.00599569688             0.00344245241           
       3.381008             0.00326296757             0.00189335751           
       3.383649             0.00280838081             0.00140908991           
       3.386289             0.00693408008             0.00262050911           
       3.388930             0.00750587069             0.00431255951           
       3.391570             0.00486271915             0.00245548138           
       3.394210             0.00799367759             0.00398419267           
       3.396851              0.0074656384             0.00430699424           
       3.399491             0.00241981273             0.00245275283           
       3.402131             0.00970919747             0.00695106039           
       3.404772           -2.65989667e-05                         0           
       3.407412                       nan                       nan           
       3.410053             0.00931746178             0.00964411012           
       3.412693                       nan                       nan           
       3.415333           -2.67154354e-05                         0           
