################################################################################
# EDF_DataBlockID                     0.Image.Psd
# EDF_BinarySize                      2105344
# EDF_HeaderSize                      2560
# ByteOrder                           LowByteFirst
# DataType                            FloatValue
# Dim_1                               512
# Dim_2                               1028
# Image                               0
# HeaderID                            EH:000000:000000:000000
# Size                                2105344
# Center_1                            304.9000
# Center_2                            588.7000
# Comment                             Xenocs_Cell_Window - 20251028_20perc_iodine_1.23mg
# DDummy                              0.6
# Date                                2025-11-01T20:01:41
# Delta                               21.910000
# Dummy                               -1.5
# ExposureTime                        360
# Gamma                               15.360000
# Intensity1                          8.76219e-10
# PSize_1                             7.5e-05
# PSize_2                             7.5e-05
# Pressure                            0.0326681
# SampleDistance                      0.115750
# SampleEnvKind                       large
# SampleEnvPN                         ElectroChemical cell
# SampleEnvSN                         1141
# Thickness                           0
# Wavelength                          1.541891e-10
# Wavelength                          1.54189e-10
# aux                                 0
# aux_dial                            0.002375
# beamx                               588.434
# beamx_dial                          588.434
# beamz                               657.808
# beamz_dial                          657.808
# det0x                               0
# det0x_dial                          6.36945
# det0xvd                             0
# det0xvd_dial                        0
# det0y                               450.002
# det0y_dial                          481.635
# det0z                               0
# det0z_dial                          1.23302
# det0zvd                             0
# det0zvd_dial                        0
# mag                                 1.818
# mag_dial                            1.818
# om                                  0.2499
# om_dial                             -0.610199
# phi                                 -0.0120535
# phi_dial                            0
# ry                                  0.599993
# ry_dial                             0.599993
# s1bot                               0.8
# s1bot_dial                          -1.66094
# s1hl                                0.8
# s1hl_dial                           -0.608437
# s1hr                                0.8
# s1hr_dial                           0.970938
# s1top                               0.8
# s1top_dial                          -0.461562
# s2bot                               0.45
# s2bot_dial                          1.36109
# s2hl                                0.45
# s2hl_dial                           -0.83375
# s2hr                                0.45
# s2hr_dial                           -0.118594
# s2top                               0.45
# s2top_dial                          1.44734
# w2theta                             32
# w2theta_dial                        32
# waxsch                              19.2605
# waxsch_dial                         -32.7355
# waxsh                               137.085
# waxsh_dial                          -43.5338
# waxsth                              26.0607
# waxsth_dial                         -19.4086
# waxsz                               67.0407
# waxsz_dial                          -23.7954
# wind                                65.9854
# wind_dial                           66.0041
# wpsi                                124
# wpsi_dial                           124
# wstod                               115
# wstod_dial                          115
# x                                   0
# x_dial                              1.00969
# z                                   0
# z_dial                              13.3172
# CountCutoff                         6807993
# DetectorModel                       Dectris EIGER2 Si 500K, S/N E-01-0554
# ThresholdSetting                    4023.88989258
# Saturation                          0
# FlatField                           Corrected
# BackgroundReductionExtra            0.02
# BackgroundCorrectionConstant        0.0026712
# Detector                            0
# Monitor                             0
# Pil_Roi0                            0
# SumForIntensity1                    3.15439e+08
# TransmittedFlux                     876219
# det                                 0
# mon                                 0
# pilai0                              3.15439e+08
# pilai1                              792825
# pilct0                              5.44684e+08
# pilct1                              792825
# pilroi0                             0
# pilroi1                             0
# sec                                 1
# title                               20251028_20perc_iodine_1.23mg_1_00924.edf
# usaxs0                              0
# Operation                           Azimuthal average I(q)
# Error_model                         ErrorModel.poisson
# Geometrical_correction              True
# Transmission_correction             True
# Thickness_correction                False
# Binning mode                        Uniform
# Binning factor                      1.0
# Psi                                 0.0
# Omega                               0.2499
# MaskInvalidPixels                   True
# DetectorEdge                        3
# MaskFiles                           ['WAXS_corrected.edf']
################################################################################
    q(A⁻¹)                Intensity(a.u.)            Sigma_I(a.u.)            
       0.693100           -2.31713793e-05                         0           
       0.695741              0.0082299877             0.00487545382           
       0.698381             0.00816558664             0.00594869917           
       0.701021             0.00860271161             0.00863173658           
       0.703662             0.00547992849             0.00397655876           
       0.706302             0.00672004101             0.00340928317           
       0.708942               0.013916636             0.00633235571           
       0.711583             0.00210379636             0.00213199318           
       0.714223              0.0172111449             0.00704026104           
       0.716864              0.0121893133             0.00387654015           
       0.719504             0.00429467363             0.00248306223           
       0.722144              0.0109747755             0.00367592941           
       0.724785             0.00615281822             0.00219552196           
       0.727425             0.00575019387              0.0028713229           
       0.730065             0.00787068784             0.00237622933           
       0.732706               0.010497136             0.00230444402           
       0.735346              0.0111041765             0.00308957002           
       0.737987             0.00850705178             0.00191091545           
       0.740627             0.00569251444             0.00233233263           
       0.743267             0.00729172529             0.00176805482           
       0.745908             0.00759627605             0.00195789624           
       0.748548              0.0102483138             0.00209618661           
       0.751189             0.00778805084             0.00246226421           
       0.753829             0.00860069209             0.00237854882           
       0.756469             0.00510433773              0.0014775712           
       0.759110             0.00616433838             0.00171116736           
       0.761750             0.00552089847             0.00143190695           
       0.764390             0.00857209837             0.00186749288           
       0.767031             0.00700374297             0.00146177201           
       0.769671             0.00572505654             0.00164861434           
       0.772312             0.00790651273             0.00147493547           
       0.774952             0.00500279021             0.00158433273           
       0.777592             0.00584379666             0.00124722552           
       0.780233             0.00696785156              0.0016431252           
       0.782873             0.00672474733             0.00154383836           
       0.785513             0.00648982815             0.00162137777           
       0.788154             0.00818257946             0.00152298842           
       0.790794             0.00526638042             0.00146071886           
       0.793435             0.00785446835             0.00160257785           
       0.796075             0.00819470059             0.00157686113           
       0.798715             0.00587340045              0.0015775548           
       0.801356             0.00839801996             0.00162354381           
       0.803996             0.00651555705             0.00145795478           
       0.806637             0.00742243592             0.00123837942           
       0.809277             0.00726887294              0.0013264637           
       0.811917             0.00824830326             0.00132093604           
       0.814558             0.00523972551             0.00109421737           
       0.817198             0.00726218101             0.00122384921           
       0.819838              0.0080211228             0.00130173977           
       0.822479              0.0070044928             0.00142844668           
       0.825119             0.00887591649             0.00136859836           
       0.827760             0.00887509638             0.00138627307           
       0.830400             0.00706277839             0.00116392566           
       0.833040               0.010301658             0.00147273523           
       0.835681             0.00625119114             0.00130421019           
       0.838321             0.00632947591             0.00110149821           
       0.840961             0.00770569219             0.00132419437           
       0.843602             0.00759744185             0.00120578057           
       0.846242              0.0068467425             0.00114448948           
       0.848883             0.00903623972             0.00134552092           
       0.851523             0.00704537455             0.00117332979           
       0.854163             0.00815773668              0.0013426786           
       0.856804             0.00661264725             0.00108692816           
       0.859444             0.00753113581              0.0011365377           
       0.862085             0.00746657865             0.00117946882           
       0.864725             0.00821256662              0.0012659284           
       0.867365             0.00553494156            0.000963700557           
       0.870006             0.00667417749             0.00100842209           
       0.872646             0.00620175092             0.00101935718           
       0.875286             0.00740978902             0.00107195155           
       0.877927             0.00706096979             0.00100974274           
       0.880567             0.00761099219             0.00108609415           
       0.883208             0.00837553413             0.00112860574           
       0.885848             0.00686683724              0.0010610543           
       0.888488             0.00473955935            0.000826803826           
       0.891129             0.00832132095             0.00112489456           
       0.893769             0.00627785713            0.000935072172           
       0.896410             0.00458108191            0.000744736452           
       0.899050             0.00907810478             0.00115292621           
       0.901690              0.0072811545             0.00112472872           
       0.904331              0.0086338028              0.0010858115           
       0.906971             0.00788299946              0.0011037571           
       0.909611             0.00833599716             0.00103323868           
       0.912252             0.00833330642             0.00106705479           
       0.914892             0.00700717231             0.00106926388           
       0.917533             0.00810781458             0.00108806504           
       0.920173              0.0064129761            0.000897818858           
       0.922813             0.00674866044            0.000966503708           
       0.925454             0.00795240434            0.000944744542           
       0.928094             0.00789591357             0.00100500574           
       0.930734             0.00831881348              0.0011105975           
       0.933375             0.00522946105            0.000871894529           
       0.936015             0.00716962723            0.000927196762           
       0.938656             0.00733412924             0.00100600924           
       0.941296             0.00850834267            0.000981997431           
       0.943936              0.0082622626            0.000948972464           
       0.946577             0.00849201047            0.000955715544           
       0.949217             0.00772258319            0.000838106589           
       0.951858             0.00737720011            0.000857487165           
       0.954498             0.00708460015            0.000972643956           
       0.957138             0.00753675645            0.000950396747           
       0.959779             0.00711380127            0.000910227476           
       0.962419             0.00642302024            0.000859152559           
       0.965059             0.00736044474            0.000967298204           
       0.967700             0.00772556175             0.00101498003           
       0.970340             0.00750673697            0.000885345459           
       0.972981             0.00718553377            0.000789188591           
       0.975621             0.00725763436            0.000843762291           
       0.978261              0.0071540394            0.000795980124           
       0.980902             0.00820374974               0.001019829           
       0.983542             0.00824965959            0.000905648553           
       0.986182              0.0103768741            0.000997229846           
       0.988823              0.0073152075            0.000813008946           
       0.991463             0.00677703153            0.000834879319           
       0.994104             0.00762972525            0.000864156754           
       0.996744             0.00836682771            0.000923028815           
       0.999384             0.00815859993            0.000815159621           
       1.002025             0.00779501483            0.000889321756           
       1.004665             0.00849000101            0.000848187204           
       1.007306             0.00928117701            0.000882288676           
       1.009946             0.00828089286            0.000849940177           
       1.012586              0.0073635546            0.000780595834           
       1.015227             0.00867464274            0.000910204818           
       1.017867             0.00803046758            0.000841663292           
       1.020507             0.00753217977            0.000789566782           
       1.023148              0.0081829685            0.000888007062           
       1.025788             0.00824117709            0.000817123294           
       1.028429             0.00783229961            0.000834564345           
       1.031069             0.00836258463            0.000811508004           
       1.033709             0.00693104679            0.000785337311           
       1.036350             0.00912422011            0.000809276892           
       1.038990             0.00773606155            0.000758870273           
       1.041630             0.00737555008            0.000772846611           
       1.044271              0.0088797184            0.000797512911           
       1.046911               0.008252205            0.000808695475           
       1.049552              0.0090353869            0.000889041212           
       1.052192             0.00787458523            0.000757867759           
       1.054832             0.00638723243            0.000688761399           
       1.057473             0.00824338946            0.000771346051           
       1.060113             0.00693344306            0.000689916527           
       1.062754             0.00907388762             0.00080581809           
       1.065394             0.00712050643            0.000754704504           
       1.068034             0.00807306472            0.000731167138           
       1.070675              0.0101838688            0.000856622164           
       1.073315             0.00823222898            0.000781218426           
       1.075955              0.0093169222            0.000784599968           
       1.078596             0.00945744924            0.000840139231           
       1.081236             0.00820312154            0.000749242166           
       1.083877             0.00785582216            0.000726632778           
       1.086517             0.00750123282            0.000761375352           
       1.089157             0.00799199258            0.000815445661           
       1.091798              0.0093827292            0.000774624541           
       1.094438               0.007809655            0.000704431236           
       1.097078             0.00894668981            0.000723136019           
       1.099719              0.0075147744            0.000716860571           
       1.102359             0.00768067513            0.000678718593           
       1.105000              0.0086309498            0.000804519997           
       1.107640             0.00788123951            0.000735083319           
       1.110280             0.00883127625            0.000709982448           
       1.112921             0.00948076044              0.0007902221           
       1.115561             0.00971636278            0.000760314565           
       1.118202             0.00900944954             0.00073282387           
       1.120842             0.00782381573            0.000717736739           
       1.123482             0.00889236741            0.000761839666           
       1.126123             0.00826798618            0.000704610693           
       1.128763             0.00784731567            0.000691158127           
       1.131403             0.00814055413            0.000678319286           
       1.134044             0.00969679337            0.000761794187           
       1.136684             0.00953449563            0.000805378973           
       1.139325              0.0100006363            0.000759833853           
       1.141965             0.00945967426            0.000743882833           
       1.144605             0.00882187873            0.000684966026           
       1.147246             0.00979369166            0.000738606022           
       1.149886             0.00913195862            0.000710684975           
       1.152527             0.00853020967            0.000696859221           
       1.155167             0.00885568648            0.000675346076           
       1.157807             0.00793293655            0.000685329164           
       1.160448             0.00791054909            0.000668296477           
       1.163088             0.00852147512            0.000661613909           
       1.165728             0.00964466551            0.000722673916           
       1.168369             0.00931720414            0.000716861814           
       1.171009             0.00849550436            0.000664309749           
       1.173650             0.00951002377            0.000721298649           
       1.176290             0.00820556289            0.000654745882           
       1.178930             0.00907940773            0.000675015534           
       1.181571              0.0103714808            0.000735755178           
       1.184211              0.0083446386            0.000662298561           
       1.186851             0.00818151967            0.000641159746           
       1.189492              0.0102227055            0.000711869829           
       1.192132             0.00923866013            0.000669147443           
       1.194773              0.0102188212            0.000706823758           
       1.197413               0.009874116            0.000665716833           
       1.200053             0.00939708778            0.000665938264           
       1.202694             0.00904113907            0.000621159722           
       1.205334             0.00960584357            0.000690004807           
       1.207975              0.0101534423            0.000677142042           
       1.210615             0.00928348567            0.000714284241           
       1.213255              0.0105197769            0.000680884149           
       1.215896             0.00895770585            0.000639686074           
       1.218536              0.0106194988            0.000669713612           
       1.221176             0.00933128922            0.000682526394           
       1.223817              0.0108609151            0.000691220332           
       1.226457              0.0100680188            0.000678918673           
       1.229098              0.0089232162            0.000639124246           
       1.231738             0.00873293377            0.000635384867           
       1.234378              0.0108415774            0.000665226095           
       1.237019             0.00852636857            0.000607923731           
       1.239659              0.0108947845            0.000681203153           
       1.242299               0.010049757            0.000645939715           
       1.244940             0.00936852517            0.000606551148           
       1.247580              0.0107608687            0.000669943129           
       1.250221              0.0103603629            0.000653301567           
       1.252861             0.00985979807            0.000606735445           
       1.255501               0.010527639            0.000680744641           
       1.258142             0.00993775697            0.000621502153           
       1.260782              0.0101758173              0.0006425099           
       1.263423             0.00973988113            0.000604010199           
       1.266063              0.0104116289             0.00064008626           
       1.268703               0.010588464             0.00064014272           
       1.271344              0.0112433349            0.000681997124           
       1.273984              0.0116131559            0.000669419755           
       1.276624              0.0105067428            0.000624771122           
       1.279265             0.00931718583            0.000598111546           
       1.281905             0.00990553934            0.000619444029           
       1.284546              0.0109315693             0.00062899453           
       1.287186              0.0102638618            0.000597966688           
       1.289826              0.0101414337            0.000626438073           
       1.292467              0.0104027902            0.000620484268           
       1.295107              0.0110871077            0.000634204488           
       1.297747              0.0111654125            0.000609020353           
       1.300388              0.0104370534            0.000641889347           
       1.303028              0.0108106881            0.000623658175           
       1.305669             0.00968924115            0.000604483692           
       1.308309              0.0113957819            0.000649103264           
       1.310949              0.0112644098            0.000644702386           
       1.313590              0.0112119459            0.000623093601           
       1.316230              0.0108222912            0.000653270935           
       1.318871              0.0103930391            0.000626981904           
       1.321511              0.0111249414            0.000636659591           
       1.324151              0.0112739869            0.000621909568           
       1.326792              0.0104609241            0.000602768042           
       1.329432              0.0106308346            0.000603355502           
       1.332072              0.0107599698            0.000597962697           
       1.334713              0.0101677267            0.000599931904           
       1.337353               0.010101644             0.00057347395           
       1.339994              0.0115914519            0.000644655662           
       1.342634              0.0114303121            0.000613872381           
       1.345274              0.0112053557            0.000629017586           
       1.347915              0.0105757006             0.00059421395           
       1.350555              0.0106776566            0.000607528382           
       1.353195              0.0112113885            0.000625584692           
       1.355836              0.0119014786            0.000634499831           
       1.358476              0.0110828682            0.000594626508           
       1.361117              0.0111197777            0.000596433389           
       1.363757              0.0114933137            0.000624883534           
       1.366397              0.0127021698            0.000637045094           
       1.369038              0.0126264031            0.000641466566           
       1.371678              0.0122453203            0.000626143004           
       1.374319              0.0110692266            0.000590189198           
       1.376959              0.0109975375            0.000582358921           
       1.379599              0.0110005524            0.000624197953           
       1.382240              0.0104466703            0.000571692548           
       1.384880              0.0115081235            0.000635572323           
       1.387520               0.012007899            0.000616590432           
       1.390161              0.0120849089            0.000587487634           
       1.392801              0.0102470041            0.000563641305           
       1.395442              0.0099176545            0.000562082639           
       1.398082              0.0113957478            0.000564228051           
       1.400722              0.0115084927            0.000593932367           
       1.403363              0.0108939372            0.000608264456           
       1.406003               0.010793832            0.000566632338           
       1.408644              0.0115423404            0.000613820598           
       1.411284              0.0115325649            0.000580987464           
       1.413924              0.0110239365            0.000565925318           
       1.416565              0.0114913026            0.000575527504           
       1.419205              0.0107549862            0.000580814069           
       1.421845              0.0114870798            0.000599904243           
       1.424486              0.0106179892            0.000554402922           
       1.427126              0.0113316153            0.000594956188           
       1.429767              0.0106033524            0.000541494677           
       1.432407              0.0118613698            0.000599361641           
       1.435047               0.011370253             0.00055112351           
       1.437688               0.011341328            0.000558651831           
       1.440328              0.0106703395            0.000553043341           
       1.442968              0.0107391197            0.000567254036           
       1.445609              0.0107728436            0.000550120955           
       1.448249               0.011872673             0.00059214274           
       1.450890              0.0110803808            0.000568310376           
       1.453530              0.0117549675            0.000612398536           
       1.456170              0.0109954799            0.000574826207           
       1.458811              0.0107458728             0.00054338633           
       1.461451              0.0109207706            0.000549227498           
       1.464092              0.0110308512            0.000555597449           
       1.466732              0.0106227218            0.000540537097           
       1.469372              0.0116457358             0.00055272158           
       1.472013             0.00948307117            0.000537929866           
       1.474653              0.0106171446            0.000560406627           
       1.477293                0.01078505            0.000576725067           
       1.479934              0.0114006947            0.000565805117           
       1.482574              0.0105524588            0.000526573356           
       1.485215              0.0105717002            0.000536869703           
       1.487855              0.0111642938            0.000558989573           
       1.490495              0.0115894981            0.000567437418           
       1.493136              0.0106914951            0.000537540116           
       1.495776              0.0108409317            0.000538819076           
       1.498416              0.0116228415            0.000576165444           
       1.501057              0.0117145406            0.000565686002           
       1.503697              0.0115936954            0.000550188325           
       1.506338              0.0111655818            0.000549801031           
       1.508978              0.0115103198            0.000552734335           
       1.511618              0.0102570141            0.000555687776           
       1.514259              0.0106723262            0.000547244138           
       1.516899              0.0104968523             0.00052843581           
       1.519540              0.0111219907             0.00055271521           
       1.522180              0.0106684915            0.000546084757           
       1.524820              0.0111623559            0.000555447508           
       1.527461              0.0112952527            0.000561507617           
       1.530101              0.0105112476            0.000536252752           
       1.532741              0.0103948674            0.000530181001           
       1.535382               0.011737331            0.000572447007           
       1.538022              0.0116538833            0.000537354949           
       1.540663              0.0101997798            0.000540700373           
       1.543303              0.0113691168            0.000530046747           
       1.545943              0.0100407669            0.000527223573           
       1.548584              0.0104953057            0.000548700853           
       1.551224              0.0105976569            0.000509793535           
       1.553864              0.0104136218            0.000533994278           
       1.556505              0.0109591676             0.00052919198           
       1.559145              0.0110322156            0.000537456826           
       1.561786              0.0100872435            0.000514319287           
       1.564426             0.00968989321            0.000488408439           
       1.567066              0.0101987114            0.000525022632           
       1.569707              0.0105472479            0.000524327623           
       1.572347              0.0105787846            0.000542492075           
       1.574988             0.00958267173            0.000491449923           
       1.577628              0.0103843055            0.000533465478           
       1.580268              0.0103256812             0.00051541018           
       1.582909              0.0104893069            0.000550625857           
       1.585549              0.0101655421            0.000526324288           
       1.588189             0.00997501211            0.000509989514           
       1.590830             0.00924634709            0.000490392927           
       1.593470              0.0105878033            0.000545539984           
       1.596111             0.00969545901            0.000509677979           
       1.598751              0.0097594045            0.000495486808           
       1.601391             0.00919290512            0.000491500981           
       1.604032             0.00970481988            0.000515557538           
       1.606672              0.0101380794            0.000511972328           
       1.609312              0.0100140475             0.00053115994           
       1.611953             0.00965994801            0.000510500745           
       1.614593             0.00916793492            0.000487841442           
       1.617234             0.00908944759            0.000503418686           
       1.619874              0.0100047929            0.000526072582           
       1.622514             0.00954535536            0.000506841853           
       1.625155             0.00982880784            0.000517350515           
       1.627795             0.00877096127            0.000476743231           
       1.630436             0.00879450189            0.000474889841           
       1.633076             0.00971037963             0.00050555019           
       1.635716             0.00840389865            0.000462994896           
       1.638357             0.00883614085            0.000476003715           
       1.640997              0.0107780154            0.000541637552           
       1.643637             0.00886368981             0.00047798007           
       1.646278             0.00900063546             0.00049679211           
       1.648918             0.00946466433             0.00051082698           
       1.651559              0.0087074978            0.000493771091           
       1.654199             0.00861687316            0.000477730157           
       1.656839              0.0091432772             0.00049227788           
       1.659480             0.00908862016            0.000509234915           
       1.662120             0.00893044518            0.000475423557           
       1.664761             0.00948398442            0.000508917285           
       1.667401             0.00917799389            0.000478504779           
       1.670041             0.00946041182            0.000493218606           
       1.672682             0.00961531583            0.000495196429           
       1.675322             0.00846523821            0.000461650784           
       1.677962             0.00807976738            0.000446042221           
       1.680603              0.0090395525            0.000473243205           
       1.683243             0.00987079551            0.000515943121           
       1.685884              0.0101238123            0.000526372408           
       1.688524             0.00809992361            0.000461726036           
       1.691164             0.00894203731            0.000485244592           
       1.693805             0.00845665751            0.000477075065           
       1.696445             0.00810877163            0.000469869031           
       1.699085             0.00847373991            0.000464231989           
       1.701726              0.0095538483            0.000474853557           
       1.704366             0.00883907192            0.000481168399           
       1.707007             0.00853270827            0.000462217931           
       1.709647             0.00860219648            0.000469337286           
       1.712287             0.00883372533            0.000479751314           
       1.714928             0.00874308709            0.000481131874           
       1.717568             0.00899771858             0.00045978062           
       1.720209             0.00852997346            0.000468903605           
       1.722849             0.00862643833            0.000469123276           
       1.725489             0.00799557498             0.00045202306           
       1.728130             0.00894543446             0.00050810705           
       1.730770             0.00934718414            0.000493282408           
       1.733410             0.00892161586             0.00047434691           
       1.736051             0.00785091478            0.000448071028           
       1.738691             0.00833526688            0.000452326799           
       1.741332              0.0084480375            0.000468691863           
       1.743972             0.00717469423            0.000446038842           
       1.746612             0.00909931607            0.000482349579           
       1.749253             0.00893592804            0.000487439127           
       1.751893             0.00946283581            0.000497922385           
       1.754533             0.00906779371            0.000486963091           
       1.757174             0.00880130062            0.000475261407           
       1.759814             0.00786031636            0.000442329261           
       1.762455              0.0082516123            0.000461527197           
       1.765095             0.00911907691            0.000464134129           
       1.767735             0.00816245456            0.000452661879           
       1.770376             0.00791708755            0.000446981625           
       1.773016             0.00785924236            0.000442362678           
       1.775657             0.00863819739            0.000457093875           
       1.778297              0.0090009845            0.000462575897           
       1.780937             0.00796502616            0.000459292849           
       1.783578             0.00914592626            0.000479857909           
       1.786218             0.00876523979            0.000490251234           
       1.788858             0.00853308939            0.000459412944           
       1.791499             0.00837770111            0.000450098313           
       1.794139             0.00891261108            0.000460478703           
       1.796780             0.00876840789             0.00045453642           
       1.799420             0.00921456983            0.000463376653           
       1.802060             0.00904296667            0.000462749454           
       1.804701             0.00889803901            0.000440502559           
       1.807341             0.00946494979            0.000477389946           
       1.809981             0.00829499707            0.000448402243           
       1.812622             0.00847149855             0.00044498957           
       1.815262             0.00889359461            0.000465625947           
       1.817903             0.00878554409            0.000455931716           
       1.820543             0.00834039088            0.000451152927           
       1.823183             0.00814464396            0.000445582177           
       1.825824             0.00876394133            0.000441578899           
       1.828464              0.0082847867            0.000447603343           
       1.831105             0.00865797389            0.000444922495           
       1.833745             0.00898950386            0.000463043344           
       1.836385             0.00780444368            0.000443757074           
       1.839026              0.0083427962            0.000457357524           
       1.841666              0.0078988893            0.000443445559           
       1.844306              0.0094931092            0.000472875626           
       1.846947             0.00840960264            0.000448973544           
       1.849587             0.00908341399            0.000515254737           
       1.852228             0.00800481524            0.000437381653           
       1.854868              0.0079660734            0.000460909605           
       1.857508             0.00799785543            0.000457298567           
       1.860149             0.00810423069            0.000468693197           
       1.862789             0.00780816388            0.000444056868           
       1.865429              0.0087170241            0.000489762019           
       1.868070             0.00809155657            0.000465575065           
       1.870710             0.00891175986            0.000477337674           
       1.873351             0.00706510774            0.000430268275           
       1.875991             0.00849918587            0.000479622066           
       1.878631             0.00839585814            0.000467567866           
       1.881272             0.00875449238            0.000474250621           
       1.883912             0.00852941722            0.000487171052           
       1.886553             0.00799498721             0.00046638859           
       1.889193             0.00718314441            0.000441320022           
       1.891833             0.00949330439            0.000526899571           
       1.894474             0.00839628924            0.000491206385           
       1.897114             0.00733674552             0.00044432772           
       1.899754             0.00822257901             0.00047235557           
       1.902395             0.00726536826            0.000435330153           
       1.905035             0.00823925653            0.000491019381           
       1.907676             0.00826137745            0.000463408046           
       1.910316             0.00777004856            0.000461349478           
       1.912956             0.00823246341            0.000464431718           
       1.915597             0.00831570495             0.00046938257           
       1.918237             0.00874968422            0.000497246375           
       1.920878             0.00845657704            0.000486845593           
       1.923518             0.00771198711            0.000465116039           
       1.926158             0.00884790829            0.000491729174           
       1.928799             0.00812638883            0.000465798482           
       1.931439             0.00724381848            0.000451312459           
       1.934079             0.00814752052            0.000498967305           
       1.936720             0.00836967448             0.00046856806           
       1.939360             0.00790679449            0.000485876932           
       1.942001              0.0081957906             0.00045339657           
       1.944641             0.00826031966             0.00046414395           
       1.947281             0.00780527114            0.000447019627           
       1.949922             0.00753343211             0.00045361997           
       1.952562             0.00778107672             0.00047546637           
       1.955202              0.0082237308            0.000488207769           
       1.957843              0.0076610327            0.000458989537           
       1.960483              0.0077706268            0.000483293142           
       1.963124             0.00772040659            0.000471846019           
       1.965764             0.00760950608             0.00044175659           
       1.968404             0.00809218573            0.000451247525           
       1.971045             0.00741972945            0.000440540232           
       1.973685             0.00768950158            0.000470419393           
       1.976326             0.00786405714            0.000469190521           
       1.978966             0.00754814675            0.000463703895           
       1.981606             0.00730611696            0.000465723572           
       1.984247             0.00757618499            0.000471135135           
       1.986887             0.00803199113            0.000479289666           
       1.989527             0.00749749528            0.000458080816           
       1.992168             0.00779851211            0.000484745136           
       1.994808             0.00731541016            0.000467478117           
       1.997449             0.00729940185            0.000457376478           
       2.000089             0.00725131877            0.000454060194           
       2.002729             0.00799417981            0.000477037129           
       2.005370             0.00901991376             0.00050126597           
       2.008010             0.00758707181             0.00047979557           
       2.010650             0.00742051744            0.000478040658           
       2.013291             0.00773569606            0.000468292675           
       2.015931             0.00778647507            0.000466505996           
       2.018572             0.00708567966            0.000475988792           
       2.021212             0.00819361826            0.000502655034           
       2.023852             0.00822818456            0.000476741753           
       2.026493             0.00774105247            0.000483073924           
       2.029133             0.00743044819            0.000463758839           
       2.031774             0.00778677529            0.000498237903           
       2.034414              0.0080176271            0.000465194175           
       2.037054             0.00735379951              0.0004568125           
       2.039695             0.00789105133            0.000469631301           
       2.042335             0.00780689616            0.000485440608           
       2.044975              0.0077187137            0.000476837463           
       2.047616             0.00701238316            0.000453367688           
       2.050256             0.00674710307            0.000448918046           
       2.052897             0.00662173169            0.000452926514           
       2.055537             0.00711323686             0.00045369121           
       2.058177             0.00757846986            0.000458584941           
       2.060818             0.00841839489            0.000506325517           
       2.063458             0.00742806504            0.000495635192           
       2.066098             0.00658417036            0.000440190593           
       2.068739             0.00685580367            0.000456161001           
       2.071379             0.00788916132            0.000502094823           
       2.074020             0.00822503247            0.000501529676           
       2.076660             0.00714467529            0.000471211385           
       2.079300             0.00687155443            0.000473439879           
       2.081941             0.00754656102            0.000454280684           
       2.084581             0.00752057433            0.000478671406           
       2.087222             0.00748064192            0.000460405612           
       2.089862              0.0073261859            0.000496248115           
       2.092502             0.00790422497            0.000499658647           
       2.095143             0.00750878135            0.000502899792           
       2.097783             0.00751689955            0.000487154779           
       2.100423             0.00744899334            0.000467293343           
       2.103064             0.00694044851            0.000468035639           
       2.105704             0.00778032157            0.000493091381           
       2.108345             0.00772772586            0.000472125024           
       2.110985             0.00664770844            0.000467700491           
       2.113625             0.00784058116            0.000512364912           
       2.116266             0.00716371214            0.000496698251           
       2.118906             0.00757077274            0.000475864686           
       2.121546             0.00714601194            0.000453495561           
       2.124187             0.00763732609            0.000492122676           
       2.126827             0.00771703394              0.0005002051           
       2.129468             0.00772016209            0.000501584421           
       2.132108             0.00691072991            0.000461712532           
       2.134748             0.00696807352            0.000461825405           
       2.137389             0.00734457647            0.000494643789           
       2.140029             0.00757295615            0.000449667588           
       2.142670             0.00768992724             0.00048426663           
       2.145310             0.00759137942             0.00046831546           
       2.147950             0.00661223921            0.000449865614           
       2.150591             0.00708316155            0.000460904298           
       2.153231             0.00787834465            0.000500351761           
       2.155871             0.00725973665            0.000464007929           
       2.158512             0.00719692599            0.000482060367           
       2.161152             0.00731122648            0.000470647185           
       2.163793             0.00852529237            0.000505935815           
       2.166433             0.00664286767            0.000458611009           
       2.169073             0.00791624381            0.000489494853           
       2.171714             0.00751474743            0.000473355023           
       2.174354             0.00716497097             0.00048296417           
       2.176995             0.00700795383            0.000475633077           
       2.179635             0.00834712104            0.000548532969           
       2.182275             0.00828219776            0.000515884129           
       2.184916               0.008134022            0.000493799641           
       2.187556             0.00775848732            0.000477432299           
       2.190196             0.00705194757            0.000475651093           
       2.192837             0.00663255639            0.000458780624           
       2.195477             0.00706331863            0.000451373011           
       2.198118             0.00722087118            0.000468073405           
       2.200758             0.00657510437            0.000458239118           
       2.203398             0.00701638423            0.000476394789           
       2.206039              0.0072445577            0.000458139808           
       2.208679             0.00694890468            0.000459136364           
       2.211319             0.00778259879            0.000488700498           
       2.213960             0.00706920261            0.000472004195           
       2.216600             0.00732218895             0.00049693804           
       2.219241             0.00781121498            0.000490541996           
       2.221881             0.00758446274             0.00048436341           
       2.224521              0.0082919019            0.000512655275           
       2.227162             0.00777325379            0.000486425075           
       2.229802             0.00789817736            0.000505667059           
       2.232443             0.00687494205            0.000464334613           
       2.235083             0.00661805186            0.000469015094           
       2.237723             0.00753627608            0.000480298051           
       2.240364             0.00759389656            0.000494008323           
       2.243004             0.00771852873            0.000494070041           
       2.245644             0.00753209532            0.000492951952           
       2.248285             0.00737919843            0.000478148448           
       2.250925             0.00737125142            0.000480793904           
       2.253566              0.0068332936            0.000494893997           
       2.256206             0.00692314012            0.000488176608           
       2.258846             0.00733270745            0.000477930124           
       2.261487             0.00718561492            0.000496575197           
       2.264127             0.00749069577            0.000489659537           
       2.266767             0.00762865684            0.000507313615           
       2.269408             0.00755726239            0.000507001849           
       2.272048             0.00726285673            0.000494061378           
       2.274689             0.00714112458            0.000496358549           
       2.277329             0.00651395111            0.000446359209           
       2.279969             0.00707870924            0.000495292316           
       2.282610             0.00802858556            0.000512807071           
       2.285250             0.00786416782             0.00048577423           
       2.287891              0.0075629909            0.000510752881           
       2.290531             0.00727572636            0.000507693272           
       2.293171             0.00730559559            0.000495553238           
       2.295812             0.00744486523            0.000498243556           
       2.298452             0.00765734925            0.000528413411           
       2.301092             0.00711976865            0.000473413564           
       2.303733             0.00733600576            0.000499938727           
       2.306373             0.00711438696            0.000500082759           
       2.309014             0.00645886282            0.000467191937           
       2.311654             0.00736841549            0.000520734758           
       2.314294              0.0080746138            0.000502219074           
       2.316935             0.00743711462            0.000483977441           
       2.319575             0.00741006694            0.000506173383           
       2.322215               0.007361269            0.000525778299           
       2.324856             0.00622895947            0.000444668958           
       2.327496              0.0068495957            0.000495818889           
       2.330137             0.00691180199            0.000476611185           
       2.332777             0.00772709842            0.000519613446           
       2.335417             0.00793122235            0.000510717682           
       2.338058             0.00691653117            0.000491177349           
       2.340698             0.00731738482             0.00050124005           
       2.343339               0.007279352            0.000510937283           
       2.345979             0.00770694012            0.000497381784           
       2.348619             0.00724444577            0.000499854058           
       2.351260             0.00694644871            0.000486613721           
       2.353900             0.00719511302            0.000493678036           
       2.356540             0.00773719022            0.000511210427           
       2.359181             0.00758621369            0.000499101562           
       2.361821             0.00778012932            0.000488241786           
       2.364462             0.00657562913            0.000469450629           
       2.367102             0.00792321486             0.00052956762           
       2.369742             0.00756995889            0.000544838852           
       2.372383             0.00760356043            0.000494443967           
       2.375023             0.00735548827            0.000511218525           
       2.377663             0.00786404985            0.000505415492           
       2.380304             0.00748166885            0.000501194497           
       2.382944             0.00750005525            0.000477958112           
       2.385585             0.00737863162            0.000505607373           
       2.388225             0.00690545595            0.000486828644           
       2.390865             0.00672066487            0.000475337217           
       2.393506             0.00734684216            0.000487611909           
       2.396146             0.00746154447            0.000531327722           
       2.398787             0.00745329127            0.000489388848           
       2.401427             0.00744580201            0.000472135677           
       2.404067             0.00613678242            0.000438189713           
       2.406708             0.00768045568            0.000484335089           
       2.409348             0.00773641185            0.000515600118           
       2.411988             0.00669854085             0.00047006872           
       2.414629             0.00858867655            0.000548849943           
       2.417269             0.00732393493             0.00051274788           
       2.419910             0.00649144446            0.000483847944           
       2.422550              0.0067430755            0.000471802695           
       2.425190             0.00753172916            0.000525608511           
       2.427831             0.00733793839            0.000515886144           
       2.430471              0.0068876121             0.00047616144           
       2.433112             0.00708561211             0.00047028511           
       2.435752             0.00653537505            0.000477993076           
       2.438392             0.00663599831            0.000464899147           
       2.441033             0.00768674198            0.000530273925           
       2.443673             0.00721617854            0.000514181567           
       2.446313              0.0067068527            0.000496140864           
       2.448954             0.00674624374            0.000473780673           
       2.451594             0.00706941764            0.000521484018           
       2.454235             0.00741579186            0.000501128363           
       2.456875             0.00699590199            0.000509298677           
       2.459515             0.00748505607            0.000540440503           
       2.462156              0.0074462892            0.000508928032           
       2.464796             0.00746289722            0.000502921936           
       2.467436             0.00800503457             0.00053863965           
       2.470077             0.00767896352              0.0005000267           
       2.472717             0.00857390728            0.000530650396           
       2.475358             0.00734305849            0.000496206633           
       2.477998              0.0072285317            0.000484022013           
       2.480638             0.00730315925             0.00049515903           
       2.483279             0.00744915808            0.000522667444           
       2.485919              0.0068392144            0.000482647129           
       2.488560             0.00778310618            0.000513437885           
       2.491200             0.00672248671            0.000491362703           
       2.493840             0.00615963147            0.000497684363           
       2.496481             0.00801661069            0.000558481991           
       2.499121             0.00724896882            0.000516550537           
       2.501761               0.007593083            0.000535673516           
       2.504402             0.00900011018            0.000574676171           
       2.507042             0.00747221012            0.000519750143           
       2.509683             0.00749470195            0.000512576248           
       2.512323             0.00715420918            0.000525961743           
       2.514963             0.00689378003              0.0005099213           
       2.517604             0.00747847843            0.000551103972           
       2.520244             0.00763989549            0.000522207074           
       2.522884             0.00766842703            0.000530663256           
       2.525525              0.0103694133            0.000624086127           
       2.528165             0.00829443744            0.000549462349           
       2.530806             0.00776674955            0.000540964495           
       2.533446             0.00615555304            0.000471316414           
       2.536086             0.00737460867            0.000511262471           
       2.538727             0.00711628284            0.000481811541           
       2.541367             0.00784730206            0.000510937593           
       2.544008             0.00740698991             0.00051265622           
       2.546648             0.00697192145            0.000505903575           
       2.549288             0.00695101945            0.000515437393           
       2.551929             0.00717090786             0.00051518149           
       2.554569             0.00704321852            0.000491895389           
       2.557209             0.00748515675            0.000511750033           
       2.559850             0.00682542846            0.000490246798           
       2.562490             0.00657666178            0.000497376892           
       2.565131             0.00744124233            0.000548554047           
       2.567771             0.00706707637            0.000515419994           
       2.570411             0.00658396899            0.000492108247           
       2.573052             0.00727287099            0.000523726896           
       2.575692             0.00696142987             0.00050928783           
       2.578332               0.007056905            0.000514888775           
       2.580973             0.00786469116            0.000538387752           
       2.583613             0.00723298351            0.000504019117           
       2.586254             0.00718237801            0.000501554828           
       2.588894              0.0076704169            0.000538245379           
       2.591534             0.00737242386            0.000546254534           
       2.594175             0.00786763792             0.00055365395           
       2.596815             0.00690354913            0.000521681719           
       2.599456             0.00819764517            0.000539085425           
       2.602096             0.00693434682            0.000499583883           
       2.604736             0.00754492161            0.000533471078           
       2.607377             0.00649303052             0.00048184643           
       2.610017             0.00599330115            0.000454831664           
       2.612657             0.00695388574             0.00052111129           
       2.615298              0.0067767398            0.000502246468           
       2.617938             0.00690044563            0.000542157029           
       2.620579             0.00760451355            0.000546372579           
       2.623219              0.0066839355            0.000511504883           
       2.625859             0.00787699361            0.000539890242           
       2.628500             0.00708440574            0.000508652221           
       2.631140             0.00730308337            0.000524400466           
       2.633780             0.00695385088            0.000511263656           
       2.636421              0.0069040536            0.000521957612           
       2.639061             0.00636107637            0.000471645576           
       2.641702              0.0076829247            0.000530338699           
       2.644342             0.00826945992            0.000552554588           
       2.646982             0.00705155184            0.000502617198           
       2.649623             0.00695996155            0.000523290748           
       2.652263             0.00747418612            0.000536835772           
       2.654904             0.00640766891            0.000497560871           
       2.657544             0.00732721902            0.000501151291           
       2.660184             0.00706638567            0.000520838549           
       2.662825             0.00714501172            0.000535878567           
       2.665465             0.00642554012            0.000491496212           
       2.668105             0.00700854434            0.000541047849           
       2.670746             0.00723119019            0.000507689735           
       2.673386             0.00778758308            0.000542970979           
       2.676027             0.00887702581             0.00057040373           
       2.678667             0.00908718859            0.000563121297           
       2.681307              0.0112110576            0.000614565497           
       2.683948              0.0144976217            0.000718051348           
       2.686588              0.0106829031            0.000606162705           
       2.689229              0.0106886007            0.000592475063           
       2.691869               0.008842314            0.000569543297           
       2.694509             0.00900974148            0.000575226012           
       2.697150             0.00825027152            0.000541517748           
       2.699790             0.00682458721            0.000516328021           
       2.702430             0.00670257288            0.000489115643           
       2.705071             0.00719700929            0.000523718577           
       2.707711             0.00712334828            0.000505700183           
       2.710352             0.00688938657            0.000525487326           
       2.712992             0.00690250094            0.000535712754           
       2.715632             0.00719560558            0.000507478377           
       2.718273             0.00694610766             0.00051673459           
       2.720913             0.00740633336              0.0005320604           
       2.723553             0.00720555361            0.000528320129           
       2.726194             0.00803832444            0.000583310108           
       2.728834             0.00732940577            0.000557256098           
       2.731475             0.00748183103            0.000519618776           
       2.734115              0.0076946811            0.000543312617           
       2.736755             0.00691095132             0.00051913864           
       2.739396             0.00723431302            0.000528067614           
       2.742036             0.00615820831            0.000509898406           
       2.744677             0.00766073406            0.000551806483           
       2.747317             0.00700970318            0.000524075053           
       2.749957             0.00681838593            0.000520501065           
       2.752598             0.00682001695            0.000526212756           
       2.755238             0.00717808318            0.000549595236           
       2.757878             0.00827100667            0.000584795555           
       2.760519             0.00802184932            0.000569813343           
       2.763159              0.0104658381            0.000644348067           
       2.765800              0.0086161039            0.000557153393           
       2.768440             0.00800509054            0.000540991089           
       2.771080              0.0091386525            0.000582851776           
       2.773721             0.00679304217            0.000515478184           
       2.776361             0.00695970073            0.000528961406           
       2.779001             0.00766353252            0.000574825204           
       2.781642              0.0063252972            0.000518381362           
       2.784282             0.00643933402            0.000531634087           
       2.786923             0.00750231976             0.00057889162           
       2.789563             0.00653237754            0.000520252731           
       2.792203               0.006801122             0.00050711006           
       2.794844             0.00679299547            0.000555452195           
       2.797484              0.0063017169            0.000504899809           
       2.800125             0.00684281988            0.000553226198           
       2.802765             0.00695108777            0.000547993269           
       2.805405             0.00702927224            0.000552931657           
       2.808046             0.00679793769            0.000553315992           
       2.810686             0.00703123848               0.000517084           
       2.813326             0.00652211954            0.000517296732           
       2.815967             0.00798340007            0.000588593226           
       2.818607             0.00632546441            0.000499966235           
       2.821248             0.00673689372             0.00050525782           
       2.823888             0.00726051111            0.000544470998           
       2.826528             0.00615247256            0.000485392951           
       2.829169             0.00705469929            0.000544425763           
       2.831809             0.00678671277            0.000541248473           
       2.834449             0.00593853662            0.000509498191           
       2.837090             0.00639854381            0.000510798154           
       2.839730             0.00706485243            0.000534114887           
       2.842371             0.00631267807             0.00050561075           
       2.845011             0.00641249584            0.000513654454           
       2.847651             0.00681928443            0.000530346816           
       2.850292             0.00689403625            0.000538479023           
       2.852932             0.00728636402             0.00056565354           
       2.855573             0.00647420024            0.000517216653           
       2.858213             0.00765214496            0.000590487201           
       2.860853             0.00736427968            0.000538857893           
       2.863494             0.00730678549             0.00055573004           
       2.866134             0.00683834192            0.000558790229           
       2.868774             0.00603424789            0.000515879083           
       2.871415             0.00650894949            0.000544132191           
       2.874055             0.00685695004            0.000533845839           
       2.876696             0.00653579821             0.00053529191           
       2.879336             0.00794981733            0.000568997484           
       2.881976             0.00684617405            0.000544622958           
       2.884617             0.00667394395            0.000529831381           
       2.887257             0.00593799756            0.000502345226           
       2.889897             0.00750341001            0.000553070051           
       2.892538              0.0083199131            0.000638004917           
       2.895178             0.00682802445            0.000522165641           
       2.897819             0.00623021832              0.0005088072           
       2.900459             0.00591299581             0.00048604194           
       2.903099             0.00668747049            0.000511602307           
       2.905740              0.0059291225            0.000494185541           
       2.908380             0.00691281821            0.000539671097           
       2.911021             0.00779451801            0.000582371838           
       2.913661             0.00642493228            0.000528578968           
       2.916301               0.006230586            0.000521019542           
       2.918942              0.0065462397             0.00051083619           
       2.921582             0.00698109664            0.000551948826           
       2.924222             0.00692145996            0.000532443359           
       2.926863             0.00742207499            0.000574307688           
       2.929503             0.00723223816            0.000573631978           
       2.932144             0.00678745895            0.000533450551           
       2.934784             0.00632829043             0.00050664475           
       2.937424             0.00766878436             0.00056345559           
       2.940065             0.00690086144            0.000509862938           
       2.942705              0.0072647047            0.000522475067           
       2.945346             0.00707099106            0.000547035733           
       2.947986             0.00682430211            0.000547970873           
       2.950626             0.00723717347            0.000561126399           
       2.953267             0.00703982242            0.000544480986           
       2.955907             0.00751779048            0.000583683677           
       2.958547              0.0061337483            0.000497726783           
       2.961188             0.00708238809            0.000557979764           
       2.963828             0.00798727845            0.000579627441           
       2.966469             0.00702416657            0.000533229786           
       2.969109             0.00798067113            0.000576798655           
       2.971749             0.00678897739            0.000528675213           
       2.974390             0.00804093151            0.000565396859           
       2.977030             0.00728866947            0.000550329993           
       2.979670             0.00923834948            0.000602659263           
       2.982311             0.00844003582            0.000597028427           
       2.984951             0.00784393957            0.000547407416           
       2.987592             0.00720439835            0.000535124715           
       2.990232             0.00771299879            0.000575833097           
       2.992872              0.0076396322            0.000539816386           
       2.995513             0.00821195271            0.000547542775           
       2.998153              0.0113620058            0.000654875008           
       3.000794              0.0111934973            0.000629592437           
       3.003434              0.0118519066             0.00064882257           
       3.006074              0.0460572565             0.00126110362           
       3.008715               0.118656972             0.00195396501           
       3.011355               0.182974837             0.00233985194           
       3.013995               0.091846819              0.0016622822           
       3.016636               0.060343563              0.0013193984           
       3.019276               0.119348479             0.00182395218           
       3.021917               0.461612829             0.00344917421           
       3.024557                1.62191053             0.00635652296           
       3.027197                1.18738073             0.00530252032           
       3.029838               0.508084655             0.00351781001           
       3.032478               0.271843279             0.00257575765           
       3.035118              0.0719146909             0.00134258656           
       3.037759              0.0961177166             0.00155015281           
       3.040399               0.131783579             0.00187233344           
       3.043040               0.515420851             0.00374821488           
       3.045680               0.410764782               0.003148214           
       3.048320              0.0853705782             0.00146645562           
       3.050961               0.105412162             0.00165823435           
       3.053601              0.0886138276             0.00146430739           
       3.056242              0.0555702923             0.00123288595           
       3.058882              0.0488111829              0.0012394835           
       3.061522              0.0355188559             0.00103736681           
       3.064163              0.0437029492             0.00113619979           
       3.066803               0.100819015              0.0018168125           
       3.069443                0.10075074             0.00190020755           
       3.072084              0.0557419462             0.00137628353           
       3.074724              0.0421814186             0.00133703205           
       3.077365              0.0857879623             0.00197382201           
       3.080005              0.0188601824            0.000930725761           
       3.082645             0.00996607539            0.000710749547           
       3.085286              0.0136718792            0.000839037945           
       3.087926             0.00928747223            0.000686208538           
       3.090566              0.0104611604            0.000713572031           
       3.093207             0.00963027105            0.000712446766           
       3.095847             0.00797371859             0.00062136786           
       3.098488             0.00946981088             0.00075085055           
       3.101128             0.00990066201            0.000772678821           
       3.103768             0.00903602244            0.000724280989           
       3.106409             0.00907496808            0.000772489163           
       3.109049             0.00920578548            0.000746643608           
       3.111690             0.00830721021            0.000697092351           
       3.114330             0.00849727714            0.000720020039           
       3.116970             0.00816944712            0.000711414033           
       3.119611              0.0107916732            0.000870340596           
       3.122251              0.0193855765             0.00122019666           
       3.124891              0.0360879968             0.00168034502           
       3.127532              0.0237066246             0.00133235524           
       3.130172              0.0155939522             0.00109926783           
       3.132813             0.00844745879            0.000796505846           
       3.135453             0.00825248397            0.000780775341           
       3.138093             0.00554276456            0.000693330104           
       3.140734             0.00641389517            0.000688082301           
       3.143374             0.00816321698            0.000820934416           
       3.146014              0.0064939377             0.00078825055           
       3.148655             0.00800912486            0.000813758264           
       3.151295             0.00590893062            0.000744859717           
       3.153936             0.00639192347            0.000748340748           
       3.156576             0.00622862206            0.000728671471           
       3.159216             0.00688010461            0.000769662162           
       3.161857              0.0066426669            0.000753186909           
       3.164497             0.00772785255            0.000853580672           
       3.167138             0.00944180511            0.000974867499           
       3.169778             0.00727828184            0.000841803455           
       3.172418              0.0061960326            0.000768799369           
       3.175059             0.00598328916             0.00066976993           
       3.177699             0.00528460503            0.000666550514           
       3.180339             0.00559700814            0.000734963066           
       3.182980             0.00618020986            0.000798485465           
       3.185620             0.00609728879            0.000807715691           
       3.188261             0.00584910096            0.000805223614           
       3.190901             0.00542911997            0.000713489298           
       3.193541             0.00577621906            0.000773299306           
       3.196182             0.00381092819            0.000654588963           
       3.198822             0.00629665853            0.000841693373           
       3.201463             0.00510139786            0.000744553564           
       3.204103             0.00710349649            0.000873246922           
       3.206743             0.00590428591             0.00079605652           
       3.209384             0.00460995893            0.000759974801           
       3.212024             0.00530678308             0.00076020088           
       3.214664             0.00477688179            0.000820162352           
       3.217305             0.00555672368             0.00084085413           
       3.219945             0.00590056153            0.000891830314           
       3.222586             0.00697668878            0.000923671711           
       3.225226             0.00692431286              0.0010208164           
       3.227866             0.00689249433            0.000930869774           
       3.230507             0.00635244756            0.000926373934           
       3.233147             0.00672962867             0.00096117865           
       3.235787             0.00812988055              0.0010811488           
       3.238428             0.00684140107             0.00107025753           
       3.241068             0.00772916915             0.00106369437           
       3.243709             0.00546682381            0.000924240747           
       3.246349             0.00650494864            0.000919053098           
       3.248989             0.00524382968            0.000974340952           
       3.251630              0.0052041143            0.000934703927           
       3.254270             0.00455143399            0.000781232947           
       3.256911             0.00558725517            0.000944440502           
       3.259551             0.00538333271            0.000998046955           
       3.262191             0.00598913886             0.00107528773           
       3.264832             0.00566898293             0.00109307282           
       3.267472             0.00648304194             0.00109657554           
       3.270112             0.00742884871             0.00129724575           
       3.272753             0.00664256833              0.0011228049           
       3.275393             0.00554111367             0.00104636521           
       3.278034             0.00572889844             0.00106454681           
       3.280674             0.00418509857            0.000987341425           
       3.283314              0.0054087684             0.00100386039           
       3.285955             0.00596257446             0.00108749763           
       3.288595             0.00765144307             0.00137055897           
       3.291235             0.00623093172             0.00127142881           
       3.293876             0.00507248401             0.00116364968           
       3.296516             0.00563720329             0.00117767414           
       3.299157             0.00574775624              0.0011742239           
       3.301797             0.00716390447             0.00149534807           
       3.304437             0.00493283446             0.00107503983           
       3.307078             0.00592891553             0.00129829296           
       3.309718             0.00453672003             0.00117222602           
       3.312359             0.00699732601             0.00145616161           
       3.314999             0.00378503767             0.00105446083           
       3.317639             0.00511170745             0.00117194578           
       3.320280             0.00606517587             0.00135726232           
       3.322920             0.00441817007              0.0011779099           
       3.325560              0.0034390622             0.00103993411           
       3.328201             0.00354906356            0.000951446863           
       3.330841             0.00642920368             0.00155854422           
       3.333482             0.00609988623              0.0014349564           
       3.336122             0.00371248553             0.00111997883           
       3.338762              0.0067121875             0.00173960114           
       3.341403             0.00615313387             0.00159152953           
       3.344043             0.00525963507             0.00141270951           
       3.346683             0.00711420701             0.00167737195           
       3.349324             0.00551426287              0.0016603639           
       3.351964             0.00388090718             0.00147296095           
       3.354605             0.00439874399             0.00179342476           
       3.357245             0.00471256803             0.00167457804           
       3.359885             0.00495709961             0.00137459884           
       3.362526             0.00593565166             0.00188102507           
       3.365166             0.00635348306             0.00183555394           
       3.367807             0.00866469203             0.00274333461           
       3.370447             0.00476301332             0.00168720067           
       3.373087             0.00877697784              0.0024492076           
       3.375728              0.0078419821             0.00261279448           
       3.378368             0.00581840205             0.00334013553           
       3.381008             0.00534812131             0.00238748684           
       3.383649             0.00480674861             0.00181572689           
       3.386289             0.00285374826             0.00165582026           
       3.388930             0.00240623261             0.00240501329           
       3.391570             0.00719139746             0.00294115431           
       3.394210             0.00577916751             0.00333667398           
       3.396851             0.00963152812             0.00481839643           
       3.399491             0.00704374684             0.00412172384           
       3.402131              0.0189350117              0.0095610656           
       3.404772           -2.58043542e-05                         0           
       3.407412                       nan                       nan           
       3.410053             0.00903911369              0.0093560038           
       3.412693                       nan                       nan           
       3.415333              0.0175889985              0.0130635914           
