################################################################################
# EDF_DataBlockID                     0.Image.Psd
# EDF_BinarySize                      2105344
# EDF_HeaderSize                      2560
# ByteOrder                           LowByteFirst
# DataType                            FloatValue
# Dim_1                               512
# Dim_2                               1028
# Image                               0
# HeaderID                            EH:000000:000000:000000
# Size                                2105344
# Center_1                            304.9000
# Center_2                            588.7000
# Comment                             Xenocs_Cell_Window - 20251028_20perc_iodine_1.23mg
# DDummy                              0.6
# Date                                2025-11-03T04:17:52
# Delta                               21.910000
# Dummy                               -1.5
# ExposureTime                        360
# Gamma                               15.360000
# Intensity1                          8.80513e-10
# PSize_1                             7.5e-05
# PSize_2                             7.5e-05
# Pressure                            0.0328045
# SampleDistance                      0.115750
# SampleEnvKind                       large
# SampleEnvPN                         ElectroChemical cell
# SampleEnvSN                         1141
# Thickness                           0
# Wavelength                          1.541891e-10
# Wavelength                          1.54189e-10
# aux                                 0
# aux_dial                            0.002375
# beamx                               588.434
# beamx_dial                          588.434
# beamz                               657.808
# beamz_dial                          657.808
# det0x                               0
# det0x_dial                          6.36945
# det0xvd                             0
# det0xvd_dial                        0
# det0y                               450.002
# det0y_dial                          481.635
# det0z                               0
# det0z_dial                          1.23302
# det0zvd                             0
# det0zvd_dial                        0
# mag                                 1.818
# mag_dial                            1.818
# om                                  0.2499
# om_dial                             -0.610199
# phi                                 -0.0120535
# phi_dial                            0
# ry                                  0.599993
# ry_dial                             0.599993
# s1bot                               0.8
# s1bot_dial                          -1.66094
# s1hl                                0.8
# s1hl_dial                           -0.608437
# s1hr                                0.8
# s1hr_dial                           0.970938
# s1top                               0.8
# s1top_dial                          -0.461562
# s2bot                               0.45
# s2bot_dial                          1.36109
# s2hl                                0.45
# s2hl_dial                           -0.83375
# s2hr                                0.45
# s2hr_dial                           -0.118594
# s2top                               0.45
# s2top_dial                          1.44734
# w2theta                             32
# w2theta_dial                        32
# waxsch                              19.2605
# waxsch_dial                         -32.7355
# waxsh                               137.085
# waxsh_dial                          -43.5338
# waxsth                              26.0607
# waxsth_dial                         -19.4086
# waxsz                               67.0407
# waxsz_dial                          -23.7954
# wind                                65.9854
# wind_dial                           66.0041
# wpsi                                124
# wpsi_dial                           124
# wstod                               115
# wstod_dial                          115
# x                                   0
# x_dial                              1.00969
# z                                   0
# z_dial                              13.3172
# CountCutoff                         6807993
# DetectorModel                       Dectris EIGER2 Si 500K, S/N E-01-0554
# ThresholdSetting                    4023.88989258
# Saturation                          0
# FlatField                           Corrected
# BackgroundReductionExtra            0.02
# BackgroundCorrectionConstant        0.0026712
# Detector                            0
# Monitor                             0
# Pil_Roi0                            0
# SumForIntensity1                    3.16985e+08
# TransmittedFlux                     880513
# det                                 0
# mon                                 0
# pilai0                              3.16985e+08
# pilai1                              796502
# pilct0                              5.47997e+08
# pilct1                              796502
# pilroi0                             0
# pilroi1                             0
# sec                                 1
# title                               20251028_20perc_iodine_1.23mg_1_01217.edf
# usaxs0                              0
# Operation                           Azimuthal average I(q)
# Error_model                         ErrorModel.poisson
# Geometrical_correction              True
# Transmission_correction             True
# Thickness_correction                False
# Binning mode                        Uniform
# Binning factor                      1.0
# Psi                                 0.0
# Omega                               0.2499
# MaskInvalidPixels                   True
# DetectorEdge                        3
# MaskFiles                           ['WAXS_corrected.edf']
################################################################################
    q(A⁻¹)                Intensity(a.u.)            Sigma_I(a.u.)            
       0.693100              0.0120594839             0.00721457151           
       0.695741              0.0192011516             0.00742878073           
       0.698381             0.00405136325             0.00417991404           
       0.701021             0.00856075875             0.00858964217           
       0.703662              0.0083245515             0.00488921154           
       0.706302             0.00672508974             0.00340223731           
       0.708942             0.00557440088             0.00399793487           
       0.711583             0.00859841018               0.004299634           
       0.714223              0.0028444993             0.00285512577           
       0.716864             0.00479031899             0.00242423842           
       0.719504              0.0028700217              0.0020248999           
       0.722144             0.00362826902             0.00210842194           
       0.724785             0.00531820223             0.00203620554           
       0.727425             0.00998251651             0.00377397706           
       0.730065             0.00419258813             0.00173006155           
       0.732706             0.00699954552             0.00187717222           
       0.735346              0.0068262535              0.0024164873           
       0.737987             0.00884558495             0.00194380932           
       0.740627             0.00473871842             0.00212279138           
       0.743267              0.0106298971             0.00212952898           
       0.745908              0.0100781875             0.00224967077           
       0.748548              0.0080639276              0.0018548786           
       0.751189             0.00386904282             0.00173125276           
       0.753829             0.00453683398             0.00172329751           
       0.756469             0.00466874655             0.00140966953           
       0.759110             0.00616131563             0.00170657126           
       0.761750             0.00957229499             0.00188085969           
       0.764390             0.00484810395             0.00140100534           
       0.767031             0.00843885775             0.00160064426           
       0.769671             0.00900402215             0.00206246177           
       0.772312             0.00651961007             0.00133607178           
       0.774952             0.00796101867             0.00199371473           
       0.777592              0.0068726463             0.00134926695           
       0.780233             0.00772887805             0.00172630642           
       0.782873             0.00630016238              0.0014906585           
       0.785513             0.00483679923             0.00139632044           
       0.788154             0.00732144366             0.00143710432           
       0.790794             0.00879468167             0.00188303777           
       0.793435             0.00709826714             0.00151976121           
       0.796075             0.00662088217             0.00141391493           
       0.798715             0.00587627382             0.00157408836           
       0.801356             0.00860487683             0.00163940531           
       0.803996             0.00617459767             0.00141582983           
       0.806637             0.00902755956              0.0013623984           
       0.809277             0.00505962238             0.00110397524           
       0.811917             0.00611890278             0.00113494471           
       0.814558             0.00582396646             0.00115079302           
       0.817198             0.00864390524             0.00133194969           
       0.819838             0.00670480845             0.00118723919           
       0.822479             0.00696385786             0.00142082007           
       0.825119             0.00795629057             0.00129259709           
       0.827760             0.00947906631             0.00142916863           
       0.830400             0.00358726482            0.000827480213           
       0.833040             0.00775187494             0.00127442105           
       0.835681             0.00762503973             0.00143689722           
       0.838321             0.00933133865             0.00133416745           
       0.840961              0.0065491828             0.00121780545           
       0.843602             0.00533587005             0.00100803511           
       0.846242             0.00837100436             0.00126240016           
       0.848883             0.00816184156             0.00127564288           
       0.851523             0.00837463224             0.00127611371           
       0.854163             0.00372243073            0.000904771655           
       0.856804             0.00514581939            0.000956486578           
       0.859444               0.007674966             0.00114453818           
       0.862085             0.00871588058             0.00127121709           
       0.864725             0.00659839813              0.0011319504           
       0.867365             0.00516686964            0.000928833326           
       0.870006             0.00726221423             0.00104934053           
       0.872646             0.00533908491            0.000943498226           
       0.875286             0.00894033335             0.00117459335           
       0.877927             0.00743900254             0.00103389007           
       0.880567             0.00834427679             0.00113443505           
       0.883208             0.00694266512             0.00102503231           
       0.885848             0.00555072091            0.000951639319           
       0.888488             0.00830763632             0.00109196993           
       0.891129             0.00602780891            0.000955067053           
       0.893769             0.00746346167             0.00101706338           
       0.896410             0.00862534969             0.00101940178           
       0.899050              0.0059723105            0.000932853732           
       0.901690             0.00724231137             0.00111898613           
       0.904331             0.00788519634             0.00103513758           
       0.906971             0.00693071114             0.00103241691           
       0.909611             0.00739886912             0.00097105314           
       0.912252             0.00733656469            0.000998763966           
       0.914892             0.00584029533            0.000973799053           
       0.917533              0.0103905967             0.00122874467           
       0.920173             0.00871455647             0.00104404689           
       0.922813              0.0083614684             0.00107318467           
       0.925454             0.00792062746            0.000940553287           
       0.928094             0.00811198985             0.00101617732           
       0.930734             0.00781042562             0.00107349937           
       0.933375             0.00764899795             0.00105190424           
       0.936015             0.00703239422            0.000916038378           
       0.938656             0.00783672097             0.00103736916           
       0.941296             0.00653944959             0.00085880964           
       0.943936             0.00834245731            0.000951238802           
       0.946577              0.0064137112            0.000828545831           
       0.949217             0.00677831734            0.000783280569           
       0.951858               0.006535652            0.000805127671           
       0.954498             0.00892081778             0.00108877215           
       0.957138             0.00871373874             0.00101942062           
       0.959779             0.00637742161            0.000859726053           
       0.962419             0.00670939884            0.000875953181           
       0.965059              0.0082151064             0.00101942058           
       0.967700             0.00676749291            0.000947643122           
       0.970340             0.00874288226            0.000953131728           
       0.972981             0.00637225885            0.000741372431           
       0.975621             0.00810192477            0.000889313981           
       0.978261             0.00624409839            0.000741822285           
       0.980902             0.00830717432             0.00102373197           
       0.983542             0.00761248225            0.000867847221           
       0.986182             0.00620974465            0.000769550832           
       0.988823             0.00863923828            0.000881369814           
       0.991463             0.00839296295            0.000926829929           
       0.994104             0.00876345254            0.000923876979           
       0.996744             0.00771286382            0.000884058746           
       0.999384             0.00770240638            0.000790108077           
       1.002025             0.00990464942             0.00100001945           
       1.004665             0.00742976913            0.000791523752           
       1.007306             0.00858100409             0.00084628507           
       1.009946             0.00781458552            0.000823647145           
       1.012586             0.00848592534            0.000835931177           
       1.015227              0.0079724405              0.0008704572           
       1.017867             0.00816770219            0.000846752259           
       1.020507             0.00824430597            0.000824031906           
       1.023148             0.00747851188            0.000846851031           
       1.025788             0.00750236251             0.00077773284           
       1.028429             0.00883206289            0.000884066031           
       1.031069              0.0080727726             0.00079537576           
       1.033709             0.00874071383            0.000879769119           
       1.036350             0.00834577517            0.000772095552           
       1.038990              0.0071178184            0.000726138529           
       1.041630             0.00871487131            0.000838040553           
       1.044271             0.00818571579            0.000763844408           
       1.046911             0.00788804865            0.000788720713           
       1.049552             0.00836737701            0.000853456975           
       1.052192             0.00975435596            0.000841428726           
       1.054832             0.00797841379            0.000767907951           
       1.057473             0.00972030709            0.000835554517           
       1.060113             0.00827526229             0.00075188497           
       1.062754             0.00796242891            0.000753011391           
       1.065394             0.00836039905            0.000815780746           
       1.068034              0.0101637658            0.000818395474           
       1.070675             0.00775020414             0.00074546615           
       1.073315             0.00833871289            0.000784335216           
       1.075955              0.0085507898            0.000749814119           
       1.078596             0.00907243436            0.000820851544           
       1.081236             0.00830129643            0.000751872232           
       1.083877              0.0067457311            0.000671695011           
       1.086517             0.00815235334            0.000791794417           
       1.089157              0.0103466912            0.000925564482           
       1.091798             0.00776261958            0.000702860697           
       1.094438             0.00885254582            0.000748161264           
       1.097078             0.00861413266            0.000707836622           
       1.099719             0.00964841547            0.000810295011           
       1.102359             0.00985376796            0.000766883971           
       1.105000             0.00819844087            0.000782188865           
       1.107640             0.00885748823            0.000777379428           
       1.110280             0.00907955857            0.000718135988           
       1.112921             0.00936882513            0.000783625569           
       1.115561             0.00735085562            0.000659703583           
       1.118202             0.00812745735            0.000694330551           
       1.120842             0.00850261825            0.000746398328           
       1.123482             0.00966903492            0.000792473764           
       1.126123             0.00841681865            0.000709188673           
       1.128763             0.00780574019             0.00068764193           
       1.131403             0.00814400418            0.000676806657           
       1.134044             0.00805438405            0.000692593159           
       1.136684              0.0093558272            0.000795849536           
       1.139325             0.00815864107            0.000684624101           
       1.141965             0.00867483154            0.000710616712           
       1.144605             0.00836189459            0.000665241418           
       1.147246             0.00913099704            0.000711438198           
       1.149886             0.00797965161            0.000662713136           
       1.152527             0.00928523879            0.000725270784           
       1.155167             0.00977827166            0.000707920943           
       1.157807             0.00960126713            0.000752116206           
       1.160448             0.00996530084            0.000748254799           
       1.163088             0.00862370508            0.000663945805           
       1.165728             0.00986824419            0.000729217673           
       1.168369             0.00938149254            0.000717574599           
       1.171009              0.0100538076            0.000720907884           
       1.173650              0.0101096252            0.000741874242           
       1.176290             0.00940999865            0.000699442172           
       1.178930             0.00905276241            0.000672378806           
       1.181571             0.00845375267            0.000662637729           
       1.184211             0.00876654723            0.000677177907           
       1.186851             0.00865086209            0.000657684187           
       1.189492             0.00830571855            0.000640095411           
       1.192132             0.00983067933            0.000688569115           
       1.194773             0.00948590305            0.000679342096           
       1.197413             0.00907163334            0.000636534016           
       1.200053              0.0093004587            0.000660888142           
       1.202694             0.00903396239            0.000619397286           
       1.205334              0.0103905617            0.000715883447           
       1.207975             0.00928786814            0.000646055151           
       1.210615             0.00960754649            0.000724870169           
       1.213255              0.0100865892            0.000665090238           
       1.215896             0.00885969848            0.000634623888           
       1.218536             0.00930949913             0.00062551643           
       1.221176              0.0102273571             0.00071280179           
       1.223817             0.00897442613            0.000626794366           
       1.226457              0.0109239785              0.0007054636           
       1.229098             0.00929398032             0.00065067468           
       1.231738             0.00937377364            0.000656677992           
       1.234378              0.0101639508            0.000642529041           
       1.237019              0.0104114459            0.000670133017           
       1.239659              0.0095873207            0.000637462149           
       1.242299             0.00921186102            0.000616916439           
       1.244940             0.00980970859            0.000619153475           
       1.247580             0.00938720239            0.000624195752           
       1.250221              0.0102789536            0.000649141111           
       1.252861              0.0108473053             0.00063484066           
       1.255501             0.00973008285            0.000652853077           
       1.258142             0.00992826486            0.000619688699           
       1.260782              0.0107765175            0.000659588141           
       1.263423              0.0104420916            0.000623877955           
       1.266063             0.00979163788             0.00061922044           
       1.268703              0.0100615492            0.000622488316           
       1.271344              0.0098779072            0.000637684539           
       1.273984              0.0100953185            0.000622618266           
       1.276624              0.0103808514            0.000619500743           
       1.279265              0.0104976071            0.000633320302           
       1.281905               0.010701785             0.00064228764           
       1.284546              0.0106937648            0.000620596574           
       1.287186             0.00965692207            0.000578601299           
       1.289826              0.0104040369            0.000632947743           
       1.292467              0.0112720786            0.000644312125           
       1.295107              0.0111791019            0.000635275464           
       1.297747              0.0111798175            0.000607925312           
       1.300388              0.0098799861            0.000622999687           
       1.303028              0.0102417724            0.000605544352           
       1.305669              0.0110627587            0.000644332257           
       1.308309              0.0106606601            0.000626285307           
       1.310949              0.0118612139            0.000659945501           
       1.313590              0.0102500309            0.000594311081           
       1.316230             0.00998939377            0.000626097171           
       1.318871              0.0110048055            0.000643596032           
       1.321511              0.0102580998            0.000609860247           
       1.324151              0.0108745837            0.000609302896           
       1.326792              0.0105387814            0.000603529965           
       1.329432              0.0109866966            0.000611873451           
       1.332072              0.0114293227            0.000614776505           
       1.334713              0.0104146984            0.000605691977           
       1.337353              0.0110282427            0.000597735804           
       1.339994              0.0116612843            0.000645016052           
       1.342634              0.0114453048            0.000612775196           
       1.345274              0.0111644766            0.000626336317           
       1.347915               0.011749463            0.000624792383           
       1.350555              0.0106255717            0.000604565272           
       1.353195              0.0117820389            0.000639742325           
       1.355836              0.0120522093            0.000636946318           
       1.358476              0.0115150291            0.000604629244           
       1.361117              0.0110715734             0.00059368628           
       1.363757              0.0104968967            0.000595724362           
       1.366397               0.011632002            0.000608130659           
       1.369038              0.0110518654            0.000598674058           
       1.371678              0.0105069058            0.000578581209           
       1.374319                0.01163523            0.000603612953           
       1.376959               0.010531442            0.000568493331           
       1.379599              0.0120093331            0.000650598392           
       1.382240              0.0106464954            0.000575725373           
       1.384880              0.0105448911            0.000606907096           
       1.387520              0.0119855587             0.00061451269           
       1.390161              0.0115309427            0.000572463621           
       1.392801              0.0102559237            0.000562509933           
       1.395442              0.0122440093            0.000623011347           
       1.398082              0.0111380729            0.000556450752           
       1.400722             0.00983769166            0.000547788386           
       1.403363              0.0109860176            0.000609338471           
       1.406003               0.012102727            0.000598540574           
       1.408644              0.0106314172            0.000587663267           
       1.411284              0.0106886528            0.000557960865           
       1.413924               0.010752931            0.000557561332           
       1.416565              0.0112087426            0.000567019962           
       1.419205              0.0130043866            0.000637111702           
       1.421845              0.0113351394            0.000594468704           
       1.424486              0.0115141652            0.000575915868           
       1.427126              0.0115277796            0.000598618806           
       1.429767              0.0109664429            0.000549343428           
       1.432407              0.0115916218            0.000591060681           
       1.435047              0.0118711791            0.000561757979           
       1.437688              0.0106283869            0.000539487513           
       1.440328              0.0116109798            0.000575496821           
       1.442968              0.0109852293            0.000572316496           
       1.445609              0.0108608313            0.000551014455           
       1.448249               0.011374653            0.000578175495           
       1.450890              0.0113653941             0.00057416794           
       1.453530              0.0112276373            0.000597043621           
       1.456170              0.0109372053            0.000571901313           
       1.458811              0.0109431176            0.000547011986           
       1.461451             0.00998401116            0.000523861651           
       1.464092              0.0102997127            0.000535558272           
       1.466732              0.0110419454            0.000549754566           
       1.469372              0.0107507558            0.000529762118           
       1.472013              0.0109620841            0.000576947325           
       1.474653              0.0109832749            0.000568595961           
       1.477293              0.0109812178            0.000580525696           
       1.479934              0.0117622444             0.00057330372           
       1.482574              0.0113716305            0.000545295439           
       1.485215                 0.0115341            0.000559405562           
       1.487855              0.0111857346            0.000558160091           
       1.490495              0.0103883334            0.000535916395           
       1.493136              0.0111335908            0.000547202074           
       1.495776              0.0110807169            0.000543415515           
       1.498416              0.0120439523            0.000585078327           
       1.501057              0.0108952919            0.000544215218           
       1.503697              0.0104856599            0.000521959443           
       1.506338              0.0109868095            0.000544050376           
       1.508978             0.00952897595             0.00050168869           
       1.511618              0.0113761844            0.000583790637           
       1.514259              0.0112012394             0.00055927198           
       1.516899              0.0114746592            0.000551151561           
       1.519540              0.0109927586            0.000548153189           
       1.522180               0.010615287             0.00054339153           
       1.524820              0.0114656216            0.000561567984           
       1.527461              0.0100464201            0.000528264942           
       1.530101             0.00993482903            0.000520069095           
       1.532741              0.0105590351            0.000533046687           
       1.535382              0.0110998436            0.000555325337           
       1.538022              0.0109231703            0.000518965777           
       1.540663              0.0114682823            0.000571937938           
       1.543303              0.0107907378            0.000515127608           
       1.545943              0.0103561994            0.000534133756           
       1.548584             0.00978709333            0.000528571082           
       1.551224              0.0104396346            0.000504743218           
       1.553864                0.01006865            0.000523793098           
       1.556505               0.010875829            0.000525889018           
       1.559145             0.00984779216            0.000506547407           
       1.561786               0.010623825            0.000526532834           
       1.564426              0.0103658807            0.000503924198           
       1.567066             0.00895989594            0.000490902567           
       1.569707              0.0102833662            0.000516463053           
       1.572347              0.0104873173            0.000538823046           
       1.574988             0.00987556012            0.000497685836           
       1.577628              0.0101137867            0.000525185751           
       1.580268              0.0103805507            0.000515516155           
       1.582909             0.00934601918            0.000518483557           
       1.585549             0.00940174218            0.000504929513           
       1.588189              0.0100079726            0.000509584292           
       1.590830             0.00919612728            0.000487865419           
       1.593470              0.0099220553             0.00052682081           
       1.596111             0.00866323232             0.00048060702           
       1.598751             0.00968800609            0.000492465811           
       1.601391             0.00922757603            0.000491224776           
       1.604032              0.0102655078            0.000528946888           
       1.606672             0.00900205061            0.000481257838           
       1.609312             0.00921131163            0.000508182463           
       1.611953             0.00988719554            0.000515209656           
       1.614593              0.0103897255               0.000518064           
       1.617234              0.0080843753            0.000473611531           
       1.619874             0.00969932392            0.000516714673           
       1.622514             0.00971604666            0.000510105096           
       1.625155             0.00967603967            0.000512061036           
       1.627795             0.00965318411            0.000498924328           
       1.630436             0.00943723261            0.000490736129           
       1.633076             0.00921758694            0.000491352581           
       1.635716              0.0098356772            0.000499662068           
       1.638357             0.00998085298            0.000504662812           
       1.640997             0.00937026232             0.00050379481           
       1.643637             0.00928627008            0.000488046964           
       1.646278             0.00940200798             0.00050650864           
       1.648918             0.00926994575            0.000504310792           
       1.651559             0.00888714823            0.000497620922           
       1.654199             0.00945032411            0.000499079356           
       1.656839             0.00922697684            0.000493318657           
       1.659480             0.00929826587            0.000513817182           
       1.662120             0.00904429594            0.000477276412           
       1.664761             0.00882243192            0.000489648457           
       1.667401             0.00900965829            0.000472938865           
       1.670041             0.00911111074            0.000482845891           
       1.672682             0.00890931606            0.000475506389           
       1.675322             0.00896622326            0.000473955107           
       1.677962             0.00825679351            0.000449801293           
       1.680603             0.00900061906            0.000471070121           
       1.683243             0.00840556235            0.000474949662           
       1.685884              0.0092765455            0.000502634923           
       1.688524             0.00830206148            0.000466310637           
       1.691164             0.00840533799            0.000469308589           
       1.693805             0.00881658418             0.00048593253           
       1.696445             0.00877167747            0.000487504986           
       1.699085             0.00843416518             0.00046201598           
       1.701726             0.00901713197            0.000460196366           
       1.704366              0.0104685614            0.000522366976           
       1.707007             0.00769357168            0.000437830276           
       1.709647             0.00879007501            0.000473276691           
       1.712287             0.00873321571            0.000475849665           
       1.714928              0.0074089464            0.000441823081           
       1.717568             0.00834141092            0.000441613828           
       1.720209             0.00876617926             0.00047419105           
       1.722849             0.00891832675            0.000475829494           
       1.725489             0.00892011411            0.000476276762           
       1.728130             0.00901666987            0.000508880762           
       1.730770             0.00832653977            0.000464436085           
       1.733410             0.00808037024            0.000450327422           
       1.736051             0.00808522071            0.000453597987           
       1.738691             0.00873983337            0.000462043205           
       1.741332              0.0078597425            0.000450974621           
       1.743972              0.0080894568             0.00047246442           
       1.746612             0.00869599504            0.000470387332           
       1.749253             0.00889689115            0.000485185866           
       1.751893             0.00829363123             0.00046500948           
       1.754533             0.00986158002            0.000506590368           
       1.757174             0.00859966464            0.000468638891           
       1.759814             0.00876251419            0.000465884724           
       1.762455               0.008424521            0.000465199186           
       1.765095             0.00819824775            0.000439002538           
       1.767735             0.00815925836            0.000451468364           
       1.770376              0.0081518627            0.000452453364           
       1.773016             0.00854203294            0.000460052299           
       1.775657             0.00823305273            0.000445156517           
       1.778297             0.00922062374            0.000467042702           
       1.780937             0.00823152823            0.000465773487           
       1.783578             0.00912615498            0.000478168735           
       1.786218             0.00883059628            0.000490874257           
       1.788858             0.00888899192            0.000467751062           
       1.791499             0.00761029382            0.000427941213           
       1.794139             0.00781757834            0.000430211127           
       1.796780             0.00913699378            0.000462858695           
       1.799420              0.0084190251             0.00044184095           
       1.802060             0.00826972396            0.000441442765           
       1.804701             0.00874931966            0.000435739441           
       1.807341             0.00888058416            0.000461289241           
       1.809981             0.00897315273            0.000465233131           
       1.812622             0.00918615708            0.000462248055           
       1.815262             0.00979297757            0.000487409888           
       1.817903             0.00904862003            0.000461577995           
       1.820543              0.0084004077            0.000451667879           
       1.823183              0.0092941265            0.000474826004           
       1.825824             0.00891669254            0.000444323133           
       1.828464             0.00863541838            0.000455861373           
       1.831105             0.00872563951            0.000445567298           
       1.833745             0.00908927633            0.000464469162           
       1.836385             0.00935490571            0.000484654744           
       1.839026             0.00840385096            0.000457907364           
       1.841666             0.00890503485            0.000469692424           
       1.844306             0.00763683655            0.000423094993           
       1.846947             0.00784208034            0.000432500987           
       1.849587             0.00866401365            0.000501990444           
       1.852228              0.0079836238            0.000435735942           
       1.854868             0.00742598055            0.000443924339           
       1.857508             0.00942443303            0.000495198281           
       1.860149             0.00770774221            0.000455968446           
       1.862789             0.00786793423            0.000444664992           
       1.865429             0.00795974412            0.000466862487           
       1.868070             0.00810267479            0.000464757414           
       1.870710             0.00838325974             0.00046183717           
       1.873351             0.00859439628            0.000473397615           
       1.875991             0.00792029017            0.000461869714           
       1.878631             0.00822789256            0.000461737198           
       1.881272             0.00812005408            0.000455627922           
       1.883912              0.0078366384            0.000465827524           
       1.886553             0.00760633641            0.000453800784           
       1.889193             0.00778830304            0.000458412235           
       1.891833             0.00827894245            0.000490845734           
       1.894474             0.00829392166            0.000487010942           
       1.897114             0.00897759742            0.000490309368           
       1.899754             0.00808805256            0.000467331917           
       1.902395             0.00783312412            0.000450916247           
       1.905035             0.00701608819            0.000452002242           
       1.907676             0.00827578092            0.000462679521           
       1.910316             0.00795173536            0.000465572771           
       1.912956             0.00823439735            0.000463352301           
       1.915597             0.00816236425            0.000463899448           
       1.918237             0.00705382798            0.000445375492           
       1.920878             0.00845097619            0.000485496188           
       1.923518             0.00820647688            0.000478624572           
       1.926158             0.00706489509             0.00043832574           
       1.928799             0.00804576805            0.000462350648           
       1.931439             0.00841385323             0.00048520968           
       1.934079             0.00814107401            0.000497552206           
       1.936720             0.00804524616            0.000458275366           
       1.939360             0.00834347965            0.000497895393           
       1.942001             0.00822609516            0.000453125094           
       1.944641             0.00799419988            0.000455491435           
       1.947281             0.00830930181            0.000460101139           
       1.949922             0.00732455637            0.000446195141           
       1.952562             0.00812613384            0.000484708224           
       1.955202             0.00783000444            0.000475214512           
       1.957843             0.00726230521             0.00044579462           
       1.960483             0.00842497468            0.000502001895           
       1.963124               0.007847643            0.000474556881           
       1.965764             0.00741941945            0.000435139203           
       1.968404             0.00753363409            0.000434332793           
       1.971045             0.00775073133            0.000449160265           
       1.973685              0.0069599772            0.000446455808           
       1.976326             0.00854805351            0.000487975438           
       1.978966             0.00798897684            0.000475887836           
       1.981606              0.0076505348             0.00047541103           
       1.984247             0.00707827207            0.000454278602           
       1.986887             0.00736520492            0.000457843781           
       1.989527             0.00760847462            0.000460332088           
       1.992168             0.00785389484            0.000485275731           
       1.994808             0.00710819679            0.000459684768           
       1.997449             0.00752280102            0.000463189199           
       2.000089             0.00744666817             0.00045901236           
       2.002729             0.00820866264            0.000482214069           
       2.005370             0.00762001729            0.000459603635           
       2.008010             0.00869713072            0.000512443021           
       2.010650             0.00725600041            0.000471557695           
       2.013291             0.00741570293            0.000457385376           
       2.015931             0.00732526855            0.000451374483           
       2.018572             0.00762121245            0.000492443547           
       2.021212             0.00817178578            0.000500759396           
       2.023852              0.0080438803            0.000470221436           
       2.026493             0.00809235612            0.000492707905           
       2.029133             0.00765454076            0.000469550937           
       2.031774             0.00777358786             0.00049660049           
       2.034414             0.00771118921            0.000455103807           
       2.037054             0.00747662769            0.000459487193           
       2.039695             0.00800982549            0.000471997366           
       2.042335             0.00741677245            0.000472000899           
       2.044975             0.00674204601            0.000444561864           
       2.047616             0.00866994769            0.000502880077           
       2.050256              0.0073020026             0.00046587331           
       2.052897              0.0077672355            0.000489343291           
       2.055537             0.00734282862            0.000459829546           
       2.058177             0.00722719269            0.000446737376           
       2.060818             0.00683900673            0.000455250185           
       2.063458             0.00746068743            0.000495509695           
       2.066098             0.00779456638            0.000477776357           
       2.068739             0.00775341516            0.000483920403           
       2.071379             0.00740732838             0.00048533272           
       2.074020             0.00772857352            0.000484971194           
       2.076660              0.0076327931             0.00048585281           
       2.079300             0.00733448154            0.000487933344           
       2.081941             0.00805572484            0.000468209785           
       2.084581             0.00726655362            0.000469369288           
       2.087222             0.00735928977            0.000455541108           
       2.089862             0.00725448865            0.000492608331           
       2.092502             0.00732204225            0.000479731597           
       2.095143             0.00868580815            0.000539560676           
       2.097783             0.00731512554            0.000479398789           
       2.100423             0.00705483836             0.00045365195           
       2.103064              0.0067117161            0.000459134991           
       2.105704             0.00823125161            0.000505941173           
       2.108345             0.00706919932            0.000450458438           
       2.110985             0.00729955172            0.000488898141           
       2.113625             0.00767255719            0.000505607803           
       2.116266             0.00730203984            0.000500246563           
       2.118906             0.00717364481            0.000462084876           
       2.121546             0.00718005955            0.000453464864           
       2.124187             0.00772041837             0.00049358457           
       2.126827             0.00693410328            0.000472994957           
       2.129468             0.00804362068             0.00051073435           
       2.132108             0.00718910783              0.0004697704           
       2.134748             0.00757881723            0.000480463744           
       2.137389             0.00742078169             0.00049598947           
       2.140029             0.00793929897            0.000459291479           
       2.142670             0.00688302236            0.000457037111           
       2.145310             0.00794164228            0.000477828174           
       2.147950             0.00736430807             0.00047360136           
       2.150591             0.00848301988            0.000503165521           
       2.153231             0.00702669221            0.000471380765           
       2.155871             0.00699060947            0.000454214439           
       2.158512             0.00845808297            0.000521317527           
       2.161152             0.00747961392            0.000474873991           
       2.163793             0.00742289828            0.000470940439           
       2.166433             0.00753329637            0.000487189196           
       2.169073             0.00693379913            0.000456996237           
       2.171714              0.0071844441            0.000461705265           
       2.174354             0.00744974241             0.00049126607           
       2.176995              0.0072314258            0.000481977592           
       2.179635             0.00805949817            0.000537683646           
       2.182275             0.00747397561              0.0004888703           
       2.184916             0.00767898896            0.000478617493           
       2.187556             0.00769886511            0.000474433199           
       2.190196             0.00743919403            0.000487343694           
       2.192837             0.00739175562            0.000483144277           
       2.195477             0.00665340357            0.000437010195           
       2.198118              0.0080652364            0.000493476147           
       2.200758             0.00747867928            0.000487519213           
       2.203398             0.00756277207            0.000493388785           
       2.206039             0.00766984019            0.000470244469           
       2.208679             0.00734039009            0.000470740464           
       2.211319             0.00762651251            0.000482593981           
       2.213960             0.00702982191            0.000469538548           
       2.216600             0.00758876608            0.000504668046           
       2.219241              0.0067825612            0.000455986732           
       2.221881             0.00775358154            0.000488538217           
       2.224521              0.0074953428            0.000486219698           
       2.227162             0.00841679741            0.000504924466           
       2.229802             0.00738000709            0.000487604897           
       2.232443             0.00680985602            0.000461003211           
       2.235083             0.00737634076             0.00049394736           
       2.237723             0.00725205063            0.000470003709           
       2.240364              0.0067834106            0.000465762401           
       2.243004             0.00664489641            0.000457302749           
       2.245644             0.00647313391            0.000455871487           
       2.248285             0.00698019155            0.000463906303           
       2.250925             0.00693894445            0.000465343329           
       2.253566             0.00784769173            0.000529061988           
       2.256206             0.00685652638            0.000484636286           
       2.258846             0.00725955247            0.000474379155           
       2.261487             0.00602328369            0.000453532235           
       2.264127              0.0069787735            0.000471477679           
       2.266767             0.00765726212            0.000507023026           
       2.269408             0.00702232628            0.000487535497           
       2.272048             0.00666038541            0.000471970978           
       2.274689             0.00759005962            0.000510473547           
       2.277329             0.00688052334            0.000457626784           
       2.279969             0.00771097643            0.000515676913           
       2.282610             0.00740091645            0.000491151735           
       2.285250             0.00746744255            0.000472207062           
       2.287891              0.0072170582            0.000497717129           
       2.290531               0.007119814             0.00050099801           
       2.293171             0.00689953367            0.000480408652           
       2.295812             0.00743058951            0.000496550418           
       2.298452             0.00634368314            0.000479781825           
       2.301092             0.00752445963            0.000485493993           
       2.303733             0.00742241151            0.000501646642           
       2.306373             0.00683283394            0.000488890975           
       2.309014             0.00685144598             0.00048000623           
       2.311654             0.00774012112            0.000532404648           
       2.314294             0.00715815816            0.000471706016           
       2.316935             0.00774175661            0.000492584889           
       2.319575              0.0068571741            0.000485734861           
       2.322215             0.00705922473            0.000513621582           
       2.324856             0.00692743198            0.000467792918           
       2.327496             0.00803334418            0.000535645219           
       2.330137             0.00696985214            0.000477440015           
       2.332777             0.00778940843            0.000520430623           
       2.335417             0.00696721886            0.000477506189           
       2.338058             0.00777811313             0.00051960071           
       2.340698             0.00690383158            0.000485681273           
       2.343339             0.00714637628            0.000505013073           
       2.345979             0.00782900096            0.000500081172           
       2.348619             0.00665235599            0.000477822754           
       2.351260             0.00729290866            0.000497383951           
       2.353900              0.0078970784            0.000515936992           
       2.356540             0.00689550972            0.000481426177           
       2.359181             0.00689768601            0.000474751724           
       2.361821             0.00770979168            0.000484843197           
       2.364462             0.00748235629            0.000499549937           
       2.367102              0.0071828783            0.000502988907           
       2.369742             0.00730164727            0.000533789689           
       2.372383             0.00798172233            0.000505353567           
       2.375023             0.00687954591            0.000493195566           
       2.377663             0.00665078788            0.000463660838           
       2.380304             0.00631627954            0.000459384324           
       2.382944             0.00645841488            0.000442444726           
       2.385585             0.00668460186            0.000480066834           
       2.388225              0.0068748147            0.000484561482           
       2.390865             0.00686050351            0.000479084523           
       2.393506             0.00831436068             0.00051746005           
       2.396146             0.00803574645            0.000550046834           
       2.398787             0.00665291405            0.000461237304           
       2.401427             0.00711307902            0.000460339605           
       2.404067             0.00688185988            0.000462895731           
       2.406708             0.00653253344            0.000445586175           
       2.409348             0.00714692428            0.000494357645           
       2.411988             0.00689287076            0.000475674382           
       2.414629             0.00719552564            0.000501141316           
       2.417269             0.00754124932            0.000519029128           
       2.419910             0.00753944117            0.000520171139           
       2.422550             0.00715926539             0.00048495795           
       2.425190             0.00749222595              0.0005229485           
       2.427831             0.00759093164            0.000523423022           
       2.430471             0.00804573333            0.000513382602           
       2.433112             0.00703243681             0.00046737331           
       2.435752             0.00691921024            0.000490628823           
       2.438392             0.00783582949            0.000503948958           
       2.441033             0.00731514456            0.000516034839           
       2.443673             0.00655844577            0.000488992031           
       2.446313             0.00706798864            0.000508079863           
       2.448954             0.00737452814            0.000494142141           
       2.451594             0.00744688939            0.000533918639           
       2.454235             0.00663036673            0.000472691116           
       2.456875             0.00759331081             0.00052930345           
       2.459515             0.00698869775            0.000520939078           
       2.462156             0.00719644424            0.000499095728           
       2.464796             0.00894486948            0.000549252824           
       2.467436             0.00810686081            0.000540731312           
       2.470077             0.00816571977            0.000514372303           
       2.472717             0.00807289453            0.000513655789           
       2.475358             0.00835885231            0.000528123927           
       2.477998             0.00780524492             0.00050173198           
       2.480638             0.00700464494            0.000483749833           
       2.483279             0.00785258672            0.000535323948           
       2.485919             0.00762188441            0.000508272068           
       2.488560              0.0069091357             0.00048257158           
       2.491200             0.00793329068            0.000532478825           
       2.493840             0.00836343169            0.000578505291           
       2.496481             0.00761928569            0.000543136954           
       2.499121             0.00662756105            0.000492708458           
       2.501761             0.00747355492            0.000530143161           
       2.504402             0.00678736507            0.000497838327           
       2.507042             0.00723242422            0.000510094303           
       2.509683             0.00637168099            0.000471462064           
       2.512323             0.00773630284             0.00054560522           
       2.514963              0.0073115936             0.00052386443           
       2.517604             0.00694754188            0.000529884178           
       2.520244             0.00749779988            0.000516065006           
       2.522884             0.00753483848            0.000524736522           
       2.525525              0.0125272644            0.000684280248           
       2.528165             0.00818315444            0.000544431558           
       2.530806             0.00722798613             0.00052059047           
       2.533446             0.00691890706            0.000498466781           
       2.536086             0.00790885375            0.000528165032           
       2.538727             0.00705629295            0.000478605127           
       2.541367             0.00727048807            0.000490600405           
       2.544008             0.00673111924            0.000487514394           
       2.546648             0.00689786178            0.000501980904           
       2.549288             0.00679929026             0.00050853624           
       2.551929             0.00646742561            0.000488064643           
       2.554569             0.00744913453            0.000504636344           
       2.557209             0.00716809748              0.0004995717           
       2.559850             0.00661522422            0.000481460362           
       2.562490             0.00650682876            0.000493521396           
       2.565131             0.00684680649            0.000524903143           
       2.567771             0.00818967907            0.000553494434           
       2.570411             0.00776879142            0.000533251312           
       2.573052             0.00683166441            0.000506353301           
       2.575692             0.00773779409            0.000535625326           
       2.578332             0.00709953908             0.00051518097           
       2.580973             0.00727491995            0.000516543489           
       2.583613             0.00688492859            0.000490542273           
       2.586254             0.00732883064            0.000505405631           
       2.588894             0.00733231574            0.000524964398           
       2.591534             0.00757888883            0.000552498524           
       2.594175             0.00758705901            0.000542364679           
       2.596815             0.00635291515            0.000499222767           
       2.599456             0.00709671824            0.000500357323           
       2.602096             0.00662060876             0.00048695973           
       2.604736             0.00708554688            0.000515713675           
       2.607377              0.0067492076            0.000490060574           
       2.610017             0.00731482025            0.000501254076           
       2.612657             0.00667799988            0.000509422775           
       2.615298             0.00611112729             0.00047577936           
       2.617938             0.00707696257            0.000547707162           
       2.620579             0.00620146139            0.000492196641           
       2.623219             0.00696888145              0.0005210191           
       2.625859             0.00633112542            0.000482840995           
       2.628500              0.0073879197             0.00051816582           
       2.631140             0.00620781269            0.000482300475           
       2.633780             0.00751699583            0.000530264846           
       2.636421              0.0068316659            0.000517946515           
       2.639061             0.00652922119            0.000476671952           
       2.641702             0.00699129781            0.000504669872           
       2.644342             0.00693838116            0.000504898569           
       2.646982             0.00723730871            0.000507951198           
       2.649623             0.00727106939            0.000533552584           
       2.652263             0.00759877744            0.000539970212           
       2.654904             0.00753537314             0.00053825369           
       2.657544             0.00647383312            0.000469914086           
       2.660184             0.00767619655            0.000541521797           
       2.662825             0.00698384805             0.00052850701           
       2.665465             0.00767263936             0.00053576729           
       2.668105             0.00718293576            0.000546400641           
       2.670746             0.00701609738            0.000498861216           
       2.673386             0.00928410131            0.000591403177           
       2.676027             0.00875721959            0.000565158395           
       2.678667              0.0103649527            0.000599942034           
       2.681307              0.0123730805            0.000644053949           
       2.683948              0.0146554898            0.000720187759           
       2.686588              0.0128453454              0.0006630647           
       2.689229             0.00949715322            0.000557114956           
       2.691869             0.00930267816            0.000582755288           
       2.694509              0.0100659411            0.000606524002           
       2.697150             0.00714155866            0.000502589631           
       2.699790             0.00656442643            0.000505154633           
       2.702430             0.00770938492            0.000523285972           
       2.705071             0.00624833731            0.000486791098           
       2.707711             0.00700927004            0.000500409867           
       2.710352             0.00728907675             0.00053919602           
       2.712992             0.00765138753            0.000562648668           
       2.715632             0.00730741278            0.000510157334           
       2.718273             0.00727308087            0.000527465956           
       2.720913             0.00653213399            0.000498454244           
       2.723553             0.00683629668            0.000513348596           
       2.726194             0.00817315287            0.000586745807           
       2.728834             0.00809007816            0.000584030129           
       2.731475             0.00757741972            0.000521650955           
       2.734115              0.0069017894            0.000513302968           
       2.736755              0.0076834497             0.00054604824           
       2.739396             0.00704470368            0.000519829231           
       2.742036             0.00635329269            0.000516647515           
       2.744677             0.00813814834            0.000567352344           
       2.747317             0.00783169134            0.000552598754           
       2.749957             0.00769548502            0.000551616538           
       2.752598             0.00762496362            0.000555042169           
       2.755238             0.00870469366            0.000603745503           
       2.757878             0.00637938087            0.000512333307           
       2.760519             0.00809263729            0.000570924723           
       2.763159              0.0121023162            0.000691203961           
       2.765800              0.0075352471            0.000519764379           
       2.768440              0.0082172488            0.000546775005           
       2.771080             0.00857240714            0.000563127692           
       2.773721             0.00742559362             0.00053762836           
       2.776361             0.00747665902            0.000546916389           
       2.779001             0.00745387609            0.000565523727           
       2.781642             0.00658268409            0.000527532067           
       2.784282             0.00723123812            0.000562001043           
       2.786923              0.0053377242              0.0004870976           
       2.789563             0.00707836936            0.000540236332           
       2.792203             0.00703591078            0.000514529823           
       2.794844             0.00662816129            0.000547332209           
       2.797484              0.0063444077            0.000505370341           
       2.800125             0.00617902219            0.000524425147           
       2.802765             0.00708650471            0.000551954559           
       2.805405             0.00661864068            0.000535228367           
       2.808046             0.00648521813            0.000539119914           
       2.810686             0.00654831037            0.000497792398           
       2.813326             0.00846321819            0.000587829765           
       2.815967             0.00746843797            0.000567903635           
       2.818607             0.00785459178            0.000555769518           
       2.821248              0.0069955967            0.000513610656           
       2.823888             0.00713703034            0.000538503304           
       2.826528             0.00658058596            0.000500771209           
       2.829169             0.00672350585            0.000530195155           
       2.831809             0.00661792738            0.000533170848           
       2.834449             0.00642152776            0.000528518941           
       2.837090             0.00670027841            0.000521427121           
       2.839730             0.00702847597            0.000531437461           
       2.842371             0.00700421135             0.00053128499           
       2.845011             0.00699546828            0.000535185518           
       2.847651             0.00690505953            0.000532368957           
       2.850292             0.00798572256             0.00057813274           
       2.852932             0.00593869313             0.00050942349           
       2.855573             0.00766201034            0.000561292513           
       2.858213             0.00644182024            0.000540457617           
       2.860853             0.00710167441            0.000527871163           
       2.863494             0.00659719693             0.00052676737           
       2.866134             0.00661366966            0.000548192506           
       2.868774             0.00753350685            0.000575007336           
       2.871415              0.0060162134            0.000521854019           
       2.874055             0.00633360957             0.00051181671           
       2.876696             0.00694360561            0.000550392278           
       2.879336             0.00731473285            0.000544464355           
       2.881976             0.00711041949            0.000553678979           
       2.884617             0.00739579238            0.000556387292           
       2.887257             0.00700766307            0.000544386473           
       2.889897             0.00717595618            0.000539546823           
       2.892538               0.006522652            0.000563527588           
       2.895178              0.0075607135            0.000548126242           
       2.897819             0.00706417845             0.00054046913           
       2.900459             0.00714732883            0.000533065147           
       2.903099             0.00743859808            0.000538251872           
       2.905740             0.00672761265            0.000525126287           
       2.908380             0.00557251115            0.000483354216           
       2.911021             0.00689482933            0.000546394024           
       2.913661             0.00661431391            0.000535003286           
       2.916301             0.00711400607            0.000555373468           
       2.918942             0.00650226905            0.000507874748           
       2.921582             0.00687446078            0.000546379952           
       2.924222             0.00713407292              0.0005392396           
       2.926863             0.00747200795             0.00057482953           
       2.929503             0.00738036778             0.00057806203           
       2.932144              0.0057881003            0.000491413441           
       2.934784             0.00670881558            0.000520381345           
       2.937424             0.00704643656            0.000538790152           
       2.940065             0.00743795245            0.000528040138           
       2.942705             0.00650056384            0.000493026824           
       2.945346             0.00716586971            0.000549349144           
       2.947986             0.00704778176             0.00055551146           
       2.950626             0.00675955088            0.000540970493           
       2.953267             0.00704556445            0.000543373193           
       2.955907             0.00793507048            0.000598199824           
       2.958547             0.00747798928            0.000548225083           
       2.961188             0.00710545822            0.000557523375           
       2.963828             0.00828594916            0.000588923798           
       2.966469             0.00673343502            0.000520803367           
       2.969109             0.00622514565            0.000508180197           
       2.971749             0.00696867364            0.000534318581           
       2.974390             0.00724862925            0.000535508785           
       2.977030             0.00724583986            0.000547371105           
       2.979670             0.00907242145            0.000595764605           
       2.982311             0.00810626416            0.000583675801           
       2.984951             0.00688316132            0.000511535735           
       2.987592             0.00665194134             0.00051294264           
       2.990232             0.00653333979            0.000528677784           
       2.992872              0.0079589945            0.000549638806           
       2.995513             0.00854390964            0.000557136489           
       2.998153                0.01054299            0.000629290619           
       3.000794              0.0103669004            0.000604420953           
       3.003434              0.0118277356            0.000646578247           
       3.006074              0.0447394327             0.00123989647           
       3.008715               0.120746411              0.0019662816           
       3.011355               0.184435506             0.00234343766           
       3.013995              0.0963822534             0.00169867259           
       3.016636               0.061918635             0.00133324392           
       3.019276               0.127139084             0.00187794552           
       3.021917               0.473038511             0.00348307553           
       3.024557                1.64257575             0.00638127299           
       3.027197                1.16383005             0.00523685529           
       3.029838               0.516566738             0.00353839251           
       3.032478               0.266286742             0.00254307353           
       3.035118              0.0688292064              0.0013102625           
       3.037759              0.0958800075             0.00154445502           
       3.040399               0.129721629             0.00185309288           
       3.043040               0.517156268             0.00374535365           
       3.045680               0.403254765             0.00311168657           
       3.048320                0.08527803             0.00146208236           
       3.050961               0.107496608             0.00167046112           
       3.053601              0.0857129863             0.00143662449           
       3.056242               0.055862122             0.00123310121           
       3.058882              0.0485881081             0.00123362887           
       3.061522              0.0353558651             0.00103245717           
       3.064163              0.0437306164             0.00113378466           
       3.066803              0.0983502441             0.00179004955           
       3.069443               0.101236533             0.00190013298           
       3.072084              0.0570761123             0.00138925666           
       3.074724              0.0413444985                0.00132047           
       3.077365              0.0828385528             0.00193485984           
       3.080005              0.0185867925            0.000921699735           
       3.082645             0.00980199179            0.000703153466           
       3.085286              0.0138859672             0.00084351733           
       3.087926             0.00903380842            0.000675120411           
       3.090566              0.0114026857            0.000743172982           
       3.093207             0.00946884077             0.00070472555           
       3.095847             0.00897465398            0.000657605804           
       3.098488             0.00722398251            0.000654198645           
       3.101128              0.0101582756            0.000780756005           
       3.103768              0.0106882238            0.000785795705           
       3.106409             0.00995322607            0.000807031012           
       3.109049             0.00830952359            0.000707635213           
       3.111690             0.00844215554            0.000701015852           
       3.114330             0.00841343034            0.000714709724           
       3.116970             0.00918878763             0.00075265101           
       3.119611              0.0130533027            0.000954868356           
       3.122251              0.0176850922             0.00116260606           
       3.124891              0.0352793541             0.00165735612           
       3.127532              0.0226336846              0.0012986773           
       3.130172              0.0134344951             0.00101782834           
       3.132813             0.00906926207            0.000823285278           
       3.135453             0.00755134532            0.000745048177           
       3.138093             0.00568491737            0.000700450366           
       3.140734             0.00705118984            0.000719696034           
       3.143374             0.00664892757            0.000739081005           
       3.146014             0.00749162201            0.000844571844           
       3.148655             0.00697736172            0.000757681959           
       3.151295             0.00559147528            0.000722805907           
       3.153936             0.00574835388            0.000707935687           
       3.156576             0.00643156742            0.000738639684           
       3.159216             0.00573443643            0.000700949021           
       3.161857             0.00609682953            0.000719816834           
       3.164497             0.00684617414             0.00080145211           
       3.167138             0.00901616823            0.000950314873           
       3.169778             0.00638639782            0.000786615863           
       3.172418             0.00596858971            0.000752714845           
       3.175059             0.00694042102            0.000719593124           
       3.177699             0.00593362521            0.000704571875           
       3.180339             0.00421695184            0.000636392882           
       3.182980              0.0061540721            0.000794849931           
       3.185620             0.00574979238            0.000782446524           
       3.188261             0.00582687571            0.000801730245           
       3.190901             0.00700412055            0.000808421764           
       3.193541             0.00534068969             0.00074175915           
       3.196182             0.00592635389            0.000814302061           
       3.198822             0.00705738038            0.000888912568           
       3.201463             0.00670419808            0.000851457969           
       3.204103             0.00577545452            0.000785475258           
       3.206743             0.00684868957             0.00085526835           
       3.209384             0.00723301211            0.000949617496           
       3.212024             0.00629058896            0.000825651551           
       3.214664             0.00530826085            0.000862466346           
       3.217305             0.00517109285            0.000809172054           
       3.219945             0.00577721261            0.000880305026           
       3.222586             0.00620089573            0.000868677612           
       3.225226             0.00507742109            0.000872005726           
       3.227866             0.00675367961            0.000919198684           
       3.230507             0.00549579686            0.000859546873           
       3.233147             0.00656849383            0.000947283363           
       3.235787             0.00584576628            0.000914539695           
       3.238428             0.00462098868            0.000877448559           
       3.241068             0.00524315548            0.000873947353           
       3.243709              0.0044979214            0.000836299719           
       3.246349             0.00671467894            0.000931471862           
       3.248989             0.00450957392            0.000901348769           
       3.251630             0.00651914495             0.00104360084           
       3.254270              0.0047847185            0.000799048368           
       3.256911             0.00506939075            0.000897411605           
       3.259551              0.0055181756             0.00100800241           
       3.262191             0.00673626627             0.00113760258           
       3.264832              0.0052028011             0.00104460856           
       3.267472              0.0047764991            0.000938949937           
       3.270112             0.00515238523             0.00107771545           
       3.272753             0.00530043649               0.001000531           
       3.275393             0.00688330481             0.00116338031           
       3.278034             0.00862805814             0.00130323934           
       3.280674             0.00627671177             0.00120619925           
       3.283314             0.00481018009            0.000944372306           
       3.285955             0.00554110584             0.00104579866           
       3.288595             0.00586352239             0.00119686121           
       3.291235             0.00282306521            0.000853718029           
       3.293876              0.0060922702             0.00127215473           
       3.296516             0.00709948954             0.00131839425           
       3.299157             0.00645189522             0.00124103447           
       3.301797             0.00430495669             0.00115635249           
       3.304437             0.00606213159             0.00118885095           
       3.307078             0.00448419797             0.00112633066           
       3.309718             0.00356180917             0.00103612974           
       3.312359             0.00513590845              0.0012444877           
       3.314999             0.00730673767               0.001461489           
       3.317639             0.00561479869              0.0012252651           
       3.320280             0.00634721844             0.00138507172           
       3.322920             0.00563178212             0.00132663737           
       3.325560             0.00493825235             0.00124311382           
       3.328201              0.0076032677             0.00138920468           
       3.330841             0.00450201877             0.00130101599           
       3.333482             0.00670802377             0.00150111368           
       3.336122             0.00566908223             0.00138061394           
       3.338762             0.00623281705             0.00167223874           
       3.341403             0.00489849478              0.0014165643           
       3.344043             0.00895721221             0.00183907712           
       3.346683             0.00511765526             0.00141918851           
       3.349324             0.00749334444             0.00193079357           
       3.351964             0.00496971629             0.00166275726           
       3.354605             0.00727899162             0.00230140406           
       3.357245              0.0023035063             0.00116791094           
       3.359885             0.00570559632             0.00147113022           
       3.362526             0.00586714925             0.00186557364           
       3.365166             0.00371005629             0.00139923258           
       3.367807             0.00168023187             0.00120510607           
       3.370447             0.00532667315             0.00177988651           
       3.373087             0.00199651729             0.00116527407           
       3.375728              0.0068791171             0.00244116494           
       3.378368             0.00191362292             0.00191085993           
       3.381008             0.00525729606             0.00236134817           
       3.383649             0.00543053052             0.00192523787           
       3.386289             0.00472581471               0.002125603           
       3.388930             0.00972996103             0.00482439295           
       3.391570             0.00713056915             0.00292153915           
       3.394210              0.0077209373             0.00384728707           
       3.396851             0.00709651924             0.00412587503           
       3.399491              0.0140893869             0.00581515795           
       3.402131           -2.56661264e-05                         0           
       3.404772           -2.56785141e-05                         0           
       3.407412                       nan                       nan           
       3.410053           -2.57417604e-05                         0           
       3.412693                       nan                       nan           
       3.415333              0.0175032221              0.0129998842           
