################################################################################
# EDF_DataBlockID                     0.Image.Psd
# EDF_BinarySize                      2105344
# EDF_HeaderSize                      2560
# ByteOrder                           LowByteFirst
# DataType                            FloatValue
# Dim_1                               512
# Dim_2                               1028
# Image                               0
# HeaderID                            EH:000000:000000:000000
# Size                                2105344
# Center_1                            304.9000
# Center_2                            588.7000
# Comment                             Xenocs_Cell_Window - 20251028_20perc_iodine_1.23mg
# DDummy                              0.6
# Date                                2025-11-01T06:55:36
# Delta                               21.910000
# Dummy                               -1.5
# ExposureTime                        360
# Gamma                               15.360000
# Intensity1                          8.66147e-10
# PSize_1                             7.5e-05
# PSize_2                             7.5e-05
# Pressure                            0.0327597
# SampleDistance                      0.115750
# SampleEnvKind                       large
# SampleEnvPN                         ElectroChemical cell
# SampleEnvSN                         1141
# Thickness                           0
# Wavelength                          1.541891e-10
# Wavelength                          1.54189e-10
# aux                                 0
# aux_dial                            0.002375
# beamx                               588.434
# beamx_dial                          588.434
# beamz                               657.808
# beamz_dial                          657.808
# det0x                               0
# det0x_dial                          6.36945
# det0xvd                             0
# det0xvd_dial                        0
# det0y                               450.002
# det0y_dial                          481.635
# det0z                               0
# det0z_dial                          1.23302
# det0zvd                             0
# det0zvd_dial                        0
# mag                                 1.818
# mag_dial                            1.818
# om                                  0.2499
# om_dial                             -0.610199
# phi                                 -0.0120535
# phi_dial                            0
# ry                                  0.599993
# ry_dial                             0.599993
# s1bot                               0.8
# s1bot_dial                          -1.66094
# s1hl                                0.8
# s1hl_dial                           -0.608437
# s1hr                                0.8
# s1hr_dial                           0.970938
# s1top                               0.8
# s1top_dial                          -0.461562
# s2bot                               0.45
# s2bot_dial                          1.36109
# s2hl                                0.45
# s2hl_dial                           -0.83375
# s2hr                                0.45
# s2hr_dial                           -0.118594
# s2top                               0.45
# s2top_dial                          1.44734
# w2theta                             32
# w2theta_dial                        32
# waxsch                              19.2605
# waxsch_dial                         -32.7355
# waxsh                               137.085
# waxsh_dial                          -43.5338
# waxsth                              26.0607
# waxsth_dial                         -19.4086
# waxsz                               67.0407
# waxsz_dial                          -23.7954
# wind                                65.9854
# wind_dial                           66.0041
# wpsi                                124
# wpsi_dial                           124
# wstod                               115
# wstod_dial                          115
# x                                   0
# x_dial                              1.00969
# z                                   0
# z_dial                              13.3172
# CountCutoff                         6807993
# DetectorModel                       Dectris EIGER2 Si 500K, S/N E-01-0554
# ThresholdSetting                    4023.88989258
# Saturation                          0
# FlatField                           Corrected
# BackgroundReductionExtra            0.02
# BackgroundCorrectionConstant        0.0026712
# Detector                            0
# Monitor                             0
# Pil_Roi0                            0
# SumForIntensity1                    3.11813e+08
# TransmittedFlux                     866147
# det                                 0
# mon                                 0
# pilai0                              3.11813e+08
# pilai1                              790271
# pilct0                              5.38383e+08
# pilct1                              790271
# pilroi0                             0
# pilroi1                             0
# sec                                 1
# title                               20251028_20perc_iodine_1.23mg_1_00805.edf
# usaxs0                              0
# Operation                           Azimuthal average I(q)
# Error_model                         ErrorModel.poisson
# Geometrical_correction              True
# Transmission_correction             True
# Thickness_correction                False
# Binning mode                        Uniform
# Binning factor                      1.0
# Psi                                 0.0
# Omega                               0.2499
# MaskInvalidPixels                   True
# DetectorEdge                        3
# MaskFiles                           ['WAXS_corrected.edf']
################################################################################
    q(A⁻¹)                Intensity(a.u.)            Sigma_I(a.u.)            
       0.693100             0.00816999367             0.00598727389           
       0.695741           -2.34142173e-05                         0           
       0.698381             0.00835842563             0.00605342385           
       0.701021             0.00870274834             0.00873211083           
       0.703662               0.005564902             0.00403050301           
       0.706302             0.00681052159             0.00345205599           
       0.708942             0.00280975163             0.00286182231           
       0.711583             0.00218252639             0.00218410868           
       0.714223              0.0115402702             0.00579832296           
       0.716864             0.00615184964             0.00276992527           
       0.719504              0.0130151082             0.00434767372           
       0.722144              0.0111748868             0.00373079542           
       0.724785              0.0038578015             0.00174856271           
       0.727425             0.00868723929              0.0035497046           
       0.730065             0.00720697823             0.00228701569           
       0.732706             0.00703082216             0.00189689957           
       0.735346              0.0112578161             0.00312890567           
       0.737987             0.00692784087             0.00173444853           
       0.740627             0.00764181633             0.00271798619           
       0.743267             0.00694425878             0.00173541784           
       0.745908             0.00874399123               0.002112782           
       0.748548             0.00861261073             0.00193277667           
       0.751189              0.0150224712             0.00343954887           
       0.753829              0.0079869562             0.00230540139           
       0.756469             0.00818903742             0.00188237296           
       0.759110             0.00620048921             0.00172612706           
       0.761750             0.00487666972             0.00135357435           
       0.764390             0.00735277459             0.00173960857           
       0.767031             0.00708570348             0.00147882424           
       0.769671             0.00527059764             0.00159099804           
       0.772312             0.00666922635             0.00136247579           
       0.774952              0.0101415445             0.00226883456           
       0.777592             0.00644841713             0.00131775457           
       0.780233             0.00935020547             0.00191444246           
       0.782873             0.00465313027             0.00129165633           
       0.785513             0.00698751327             0.00169215238           
       0.788154             0.00481344107             0.00117487009           
       0.790794             0.00532039001             0.00147670174           
       0.793435              0.0059475362             0.00140261932           
       0.796075             0.00736346778             0.00150341413           
       0.798715             0.00683044698             0.00171109744           
       0.801356             0.00752460363             0.00154570961           
       0.803996             0.00751167785             0.00157451675           
       0.806637             0.00770153551             0.00126876062           
       0.809277             0.00489990717             0.00109538374           
       0.811917             0.00683568613             0.00120948662           
       0.814558             0.00786730732             0.00134856824           
       0.817198              0.0079603792             0.00128875922           
       0.819838             0.00704711326             0.00122722091           
       0.822479             0.00590089654             0.00131869761           
       0.825119             0.00578986136             0.00111176763           
       0.827760             0.00810366367             0.00133233514           
       0.830400             0.00652315938             0.00112506335           
       0.833040             0.00868917116             0.00136041314           
       0.835681             0.00959775875             0.00162540521           
       0.838321             0.00638995924             0.00111316487           
       0.840961             0.00759315251             0.00132210973           
       0.843602             0.00829559862             0.00126726951           
       0.846242             0.00616412707             0.00109223511           
       0.848883             0.00732476638             0.00121843959           
       0.851523             0.00669468798             0.00115038644           
       0.854163             0.00626038851              0.0011830372           
       0.856804             0.00688213215              0.0011152833           
       0.859444             0.00570018198            0.000994508495           
       0.862085             0.00996728111             0.00137064354           
       0.864725             0.00791528809             0.00125001028           
       0.867365             0.00711149358             0.00109869344           
       0.870006             0.00799160537             0.00110986721           
       0.872646             0.00694010354             0.00108458285           
       0.875286             0.00547706863            0.000926951169           
       0.877927             0.00701193495             0.00101206413           
       0.880567             0.00737075088             0.00107501181           
       0.883208             0.00676729779             0.00102036176           
       0.885848             0.00644432409             0.00103385219           
       0.888488             0.00683009802            0.000998291776           
       0.891129             0.00811092994              0.0011170215           
       0.893769             0.00689608036            0.000985714411           
       0.896410             0.00795268277            0.000986929074           
       0.899050             0.00845081248             0.00111882891           
       0.901690             0.00667698831             0.00108329939           
       0.904331             0.00858894444             0.00108926563           
       0.906971               0.008429913             0.00114802102           
       0.909611             0.00737571022            0.000977539535           
       0.912252             0.00771675616             0.00103277558           
       0.914892             0.00691628814             0.00106846565           
       0.917533             0.00867896597             0.00113226342           
       0.920173              0.0060979771            0.000880566861           
       0.922813             0.00713410387            0.000999482008           
       0.925454             0.00850267619             0.00098254741           
       0.928094             0.00864253916             0.00105754428           
       0.930734             0.00630203468            0.000972247697           
       0.933375             0.00821120784             0.00109887815           
       0.936015             0.00712505169            0.000929668591           
       0.938656             0.00698694951            0.000987602146           
       0.941296             0.00617822113            0.000841647272           
       0.943936               0.009141381             0.00100396957           
       0.946577             0.00921986457             0.00100160432           
       0.949217             0.00857002337            0.000888013342           
       0.951858             0.00694664653            0.000836912351           
       0.954498             0.00742159409             0.00100127956           
       0.957138             0.00763566648            0.000962158688           
       0.959779             0.00694907847            0.000904842966           
       0.962419             0.00905742762             0.00102615652           
       0.965059             0.00836154256              0.0010369602           
       0.967700             0.00822304134             0.00105322032           
       0.970340             0.00642997241            0.000824142385           
       0.972981             0.00760248771            0.000816468952           
       0.975621             0.00775504962            0.000877254068           
       0.978261             0.00798201669             0.00084565536           
       0.980902             0.00854795102             0.00104703862           
       0.983542             0.00773772573            0.000882183397           
       0.986182             0.00845740539            0.000905505513           
       0.988823             0.00990247923            0.000951402964           
       0.991463             0.00737352069            0.000875894767           
       0.994104             0.00821946533            0.000902132634           
       0.996744             0.00659092684            0.000823983703           
       0.999384             0.00798081942            0.000810903384           
       1.002025             0.00831235149            0.000923682943           
       1.004665             0.00920264242            0.000888187485           
       1.007306             0.00789484121            0.000818448595           
       1.009946             0.00714901765            0.000794298041           
       1.012586             0.00686850739            0.000758270549           
       1.015227             0.00762883699            0.000858525164           
       1.017867              0.0067764799            0.000777643557           
       1.020507             0.00771033476            0.000803481122           
       1.023148             0.00741743861            0.000850351516           
       1.025788             0.00784873275            0.000802053372           
       1.028429              0.0083597316            0.000867205209           
       1.031069             0.00692799928            0.000742911348           
       1.033709              0.0074552317            0.000819215043           
       1.036350             0.00798064124            0.000761252422           
       1.038990             0.00745208707            0.000749129799           
       1.041630             0.00613928002            0.000709194486           
       1.044271             0.00773416788            0.000748609706           
       1.046911             0.00860546551            0.000830611087           
       1.049552             0.00986108327            0.000934160199           
       1.052192             0.00775065841            0.000756239602           
       1.054832             0.00864408123            0.000805902289           
       1.057473             0.00980353001            0.000846054078           
       1.060113             0.00800101509            0.000745427049           
       1.062754             0.00963053561            0.000834979986           
       1.065394              0.0088125128              0.0008444655           
       1.068034             0.00757142591            0.000712191549           
       1.070675             0.00751793101            0.000740274191           
       1.073315             0.00834196304            0.000790967097           
       1.075955             0.00773849066            0.000719201713           
       1.078596             0.00724992466            0.000739846344           
       1.081236             0.00830676198            0.000758331422           
       1.083877             0.00843261869            0.000757200556           
       1.086517             0.00873653993            0.000826442712           
       1.089157             0.00934137165            0.000886713551           
       1.091798             0.00832724983            0.000733986358           
       1.094438             0.00816199582            0.000724321531           
       1.097078             0.00793295679            0.000684883776           
       1.099719             0.00879671438            0.000780095003           
       1.102359             0.00844531541            0.000715827726           
       1.105000             0.00834123225             0.00079548718           
       1.107640             0.00908958674            0.000794002563           
       1.110280             0.00939583431            0.000736570095           
       1.112921             0.00973329646            0.000805319269           
       1.115561             0.00904613467            0.000737876202           
       1.118202             0.00791509205            0.000690858323           
       1.120842             0.00891353454            0.000770533237           
       1.123482              0.0102400526            0.000822273899           
       1.126123             0.00910091217            0.000743536599           
       1.128763             0.00947357747            0.000763808335           
       1.131403             0.00914217673            0.000723007025           
       1.134044             0.00890626991            0.000734314392           
       1.136684             0.00963951934            0.000814497291           
       1.139325             0.00981423165             0.00075708302           
       1.141965             0.00887747885            0.000724806031           
       1.144605             0.00925095004            0.000705492153           
       1.147246              0.0098501411            0.000745025928           
       1.149886             0.00856428264            0.000692231237           
       1.152527             0.00817350429            0.000686088082           
       1.155167             0.00838918587            0.000661128232           
       1.157807              0.0105965348            0.000796663075           
       1.160448             0.00949302154            0.000736340385           
       1.163088             0.00955879575            0.000704789391           
       1.165728              0.0104649753            0.000757143903           
       1.168369             0.00820475659            0.000676606277           
       1.171009              0.0101711982            0.000731093008           
       1.173650             0.00895800364            0.000704109923           
       1.176290              0.0101019794            0.000730688641           
       1.178930             0.00904175533            0.000677519678           
       1.181571              0.0082832459            0.000661338417           
       1.184211              0.0102022234            0.000736559764           
       1.186851             0.00878436662            0.000668213146           
       1.189492             0.00933239502            0.000684108125           
       1.192132             0.00964869791            0.000687800064           
       1.194773             0.00920935718            0.000674894561           
       1.197413             0.00953875527            0.000658107454           
       1.200053             0.00989212977            0.000687215207           
       1.202694             0.00957645863            0.000642990729           
       1.205334              0.0102172937             0.00071575243           
       1.207975             0.00985311435            0.000670919505           
       1.210615              0.0106757531            0.000770416055           
       1.213255              0.0100231729            0.000668471814           
       1.215896             0.00905650905            0.000646933203           
       1.218536             0.00954800499            0.000638710367           
       1.221176             0.00838316426            0.000650673536           
       1.223817              0.0100388836            0.000668400142           
       1.226457             0.00984881854            0.000675380229           
       1.229098              0.0107925925            0.000706965151           
       1.231738             0.00947985854            0.000665837487           
       1.234378              0.0107929459            0.000667580389           
       1.237019             0.00981463446            0.000656016315           
       1.239659             0.00935437167            0.000634870532           
       1.242299              0.0103840025            0.000660400099           
       1.244940             0.00977395668            0.000623128407           
       1.247580              0.0106735213            0.000671086746           
       1.250221             0.00973166706            0.000636840049           
       1.252861             0.00995921928            0.000613321987           
       1.255501             0.00980268929             0.00066069632           
       1.258142             0.00981915071            0.000621363796           
       1.260782              0.0117447849            0.000694269741           
       1.263423              0.0115152242            0.000660562891           
       1.266063              0.0100518739            0.000632576729           
       1.268703              0.0106616498            0.000646075193           
       1.271344              0.0103337024             0.00065761767           
       1.273984              0.0106986407            0.000646246537           
       1.276624              0.0103565579            0.000623885864           
       1.279265              0.0105249925             0.00063938322           
       1.281905               0.010759548              0.0006493376           
       1.284546              0.0106822435            0.000625384884           
       1.287186             0.00996108942            0.000592496165           
       1.289826             0.00990940319             0.00062282028           
       1.292467              0.0121858505            0.000675451711           
       1.295107              0.0104776216            0.000620100472           
       1.297747              0.0107712666            0.000601642268           
       1.300388              0.0114125178            0.000675106794           
       1.303028             0.00946461071            0.000586923986           
       1.305669              0.0104037794            0.000630007623           
       1.308309              0.0104806866            0.000626104934           
       1.310949              0.0101319527             0.00061498166           
       1.313590              0.0126153395            0.000664772119           
       1.316230              0.0121604431            0.000696496533           
       1.318871             0.00989617206            0.000615358033           
       1.321511              0.0110170545            0.000637238047           
       1.324151              0.0109954712            0.000617740293           
       1.326792              0.0112007829            0.000627335569           
       1.329432              0.0113486669            0.000627007234           
       1.332072              0.0112885649             0.00061602518           
       1.334713              0.0102175667            0.000604887064           
       1.337353              0.0117013197            0.000620791296           
       1.339994              0.0119846901            0.000659299609           
       1.342634              0.0123729085            0.000642385131           
       1.345274              0.0113489585             0.00063670535           
       1.347915              0.0109300754            0.000607589668           
       1.350555              0.0116349773            0.000637854903           
       1.353195              0.0113422088            0.000632871823           
       1.355836              0.0119332164            0.000639028665           
       1.358476              0.0117383602            0.000615506196           
       1.361117              0.0107405125            0.000589572104           
       1.363757              0.0114632332            0.000627683258           
       1.366397              0.0123176578            0.000630965796           
       1.369038               0.012403154            0.000639456194           
       1.371678              0.0115146046            0.000610693789           
       1.374319              0.0115804064            0.000607162649           
       1.376959              0.0109493103            0.000584449403           
       1.379599              0.0117450324            0.000648713198           
       1.382240              0.0111067172            0.000592893888           
       1.384880              0.0107927257            0.000619068663           
       1.387520              0.0111913366            0.000598707608           
       1.390161              0.0106509253            0.000554729471           
       1.392801              0.0109635929            0.000586396456           
       1.395442              0.0111925585             0.00060058005           
       1.398082              0.0116327215            0.000573369324           
       1.400722              0.0116479036            0.000600982996           
       1.403363              0.0113990177            0.000625812524           
       1.406003              0.0117523591            0.000594684454           
       1.408644              0.0103141249            0.000583608007           
       1.411284              0.0113490546            0.000579687826           
       1.413924               0.011124759            0.000571803233           
       1.416565              0.0114819867            0.000578629409           
       1.419205             0.00986050659            0.000559361207           
       1.421845              0.0108511129            0.000586441622           
       1.424486              0.0105864729            0.000556788869           
       1.427126              0.0111684357            0.000594081161           
       1.429767              0.0113186514            0.000562704603           
       1.432407              0.0106603484            0.000571501996           
       1.435047              0.0125267688            0.000581827085           
       1.437688              0.0102579928            0.000534380986           
       1.440328              0.0111072391            0.000567523225           
       1.442968              0.0123836626            0.000612672431           
       1.445609              0.0112495243            0.000565419291           
       1.448249              0.0100959287            0.000549206698           
       1.450890              0.0107547044            0.000563142119           
       1.453530              0.0108266039            0.000591126028           
       1.456170               0.010777678            0.000572403917           
       1.458811              0.0109672997            0.000552138775           
       1.461451               0.010771362            0.000548619794           
       1.464092              0.0110683577            0.000559767724           
       1.466732              0.0113924565            0.000563023887           
       1.469372              0.0101323235             0.00051854686           
       1.472013              0.0115136862            0.000596168295           
       1.474653              0.0110151461            0.000574123147           
       1.477293              0.0107314724            0.000578625987           
       1.479934              0.0112012139             0.00056408466           
       1.482574              0.0108860347             0.00053793207           
       1.485215              0.0106107629            0.000540978881           
       1.487855              0.0109548392            0.000556931282           
       1.490495               0.010665582            0.000547505475           
       1.493136              0.0108663013            0.000545058432           
       1.495776              0.0117533763              0.0005642889           
       1.498416              0.0105367841            0.000551766872           
       1.501057             0.00988154372            0.000522559478           
       1.503697               0.010185465            0.000518682252           
       1.506338              0.0108853577            0.000546005168           
       1.508978                0.01093637            0.000541900904           
       1.511618             0.00997145546            0.000551074321           
       1.514259              0.0106780266            0.000550563738           
       1.516899              0.0106152567            0.000534488637           
       1.519540              0.0104122343            0.000537888982           
       1.522180              0.0106765244            0.000549457398           
       1.524820              0.0100541635            0.000530210828           
       1.527461              0.0105304033            0.000545306543           
       1.530101             0.00979429426            0.000520642366           
       1.532741              0.0108834428            0.000545642719           
       1.535382              0.0108136567             0.00055264651           
       1.538022             0.00970584621            0.000493234168           
       1.540663              0.0102895832            0.000546223893           
       1.543303             0.00991438274            0.000497845035           
       1.545943               0.010792042            0.000549760736           
       1.548584              0.0105223188            0.000552591686           
       1.551224              0.0101993346            0.000503020687           
       1.553864               0.010108445            0.000529161708           
       1.556505              0.0102024458            0.000513555218           
       1.559145             0.00964556662            0.000505459793           
       1.561786              0.0108822027            0.000537298334           
       1.564426              0.0106331118            0.000514593605           
       1.567066              0.0109650151            0.000547545887           
       1.569707             0.00979997045            0.000508342095           
       1.572347              0.0106887458            0.000548465629           
       1.574988             0.00998880922            0.000504665196           
       1.577628             0.00947287408            0.000512470659           
       1.580268             0.00998653865            0.000509813884           
       1.582909             0.00949580956            0.000526938262           
       1.585549             0.00917731105            0.000502986579           
       1.588189             0.00951775209            0.000501051372           
       1.590830             0.00951883378            0.000500450934           
       1.593470             0.00871854655            0.000497916169           
       1.596111             0.00961871611            0.000510599948           
       1.598751             0.00942245181            0.000489680635           
       1.601391             0.00849866795            0.000475317672           
       1.604032             0.00916226839            0.000503843241           
       1.606672             0.00952366809            0.000499092794           
       1.609312             0.00893733951            0.000504702142           
       1.611953             0.00818264131            0.000472570136           
       1.614593              0.0102162763            0.000517964238           
       1.617234             0.00889594214            0.000500918524           
       1.619874             0.00943256466            0.000513767989           
       1.622514             0.00925509835             0.00050196966           
       1.625155             0.00906603162            0.000499750927           
       1.627795             0.00914427337            0.000489605254           
       1.630436             0.00827008088            0.000463183057           
       1.633076             0.00952561807            0.000503620368           
       1.635716             0.00944067898            0.000493569081           
       1.638357             0.00869005758            0.000474789258           
       1.640997             0.00955103314            0.000512831949           
       1.643637             0.00834017513             0.00046633781           
       1.646278             0.00855520973             0.00048715141           
       1.648918             0.00926636744            0.000508377718           
       1.651559             0.00957037586            0.000520659743           
       1.654199             0.00928444397            0.000498765365           
       1.656839             0.00841571089            0.000475023738           
       1.659480              0.0081461641              0.0004849046           
       1.662120             0.00922034942            0.000485879261           
       1.664761             0.00875732691            0.000491867465           
       1.667401             0.00844494856            0.000461659134           
       1.670041             0.00793225417            0.000454248259           
       1.672682             0.00854138726            0.000469429592           
       1.675322             0.00993164099            0.000502938663           
       1.677962             0.00917181367            0.000477985457           
       1.680603             0.00822104569             0.00045392592           
       1.683243             0.00839502627            0.000478572026           
       1.685884             0.00915400522            0.000503427786           
       1.688524             0.00926788715            0.000496757922           
       1.691164             0.00878160552            0.000483659762           
       1.693805             0.00819256846            0.000472289094           
       1.696445             0.00920090753            0.000503413839           
       1.699085             0.00911791624            0.000484346124           
       1.701726             0.00936212442            0.000472789975           
       1.704366             0.00894293017            0.000486792875           
       1.707007             0.00933968692             0.00048638484           
       1.709647             0.00883605981            0.000478432014           
       1.712287             0.00899152476            0.000486823383           
       1.714928             0.00911898543            0.000494214539           
       1.717568             0.00864748331            0.000453356509           
       1.720209             0.00870819934            0.000476523632           
       1.722849             0.00969663369             0.00050025593           
       1.725489             0.00886946632            0.000478845065           
       1.728130             0.00970059905            0.000532187059           
       1.730770              0.0082873674            0.000467169041           
       1.733410             0.00795323159            0.000450460444           
       1.736051             0.00821779354            0.000461078504           
       1.738691             0.00782082011            0.000440685989           
       1.741332             0.00920903768            0.000492183616           
       1.743972             0.00849892736            0.000488273968           
       1.746612             0.00822614547            0.000461281727           
       1.749253             0.00736426703            0.000445067467           
       1.751893             0.00859371989            0.000477256802           
       1.754533             0.00896746597            0.000487069156           
       1.757174             0.00825931003            0.000463064552           
       1.759814             0.00887516074            0.000472742122           
       1.762455             0.00862938436            0.000474709943           
       1.765095             0.00881938061            0.000459089794           
       1.767735             0.00820825216            0.000456561628           
       1.770376             0.00836828533            0.000462206146           
       1.773016             0.00870050888            0.000468134874           
       1.775657             0.00826478104            0.000449697059           
       1.778297             0.00860459965            0.000454897822           
       1.780937             0.00839273483             0.00047419652           
       1.783578             0.00941961309            0.000489807998           
       1.786218             0.00847663657             0.00048490773           
       1.788858             0.00842761744            0.000459211776           
       1.791499             0.00825111808             0.00044927462           
       1.794139             0.00877602813            0.000459585803           
       1.796780             0.00779101859            0.000430939165           
       1.799420              0.0085307056            0.000448435125           
       1.802060             0.00900183336             0.00046437247           
       1.804701             0.00924807675            0.000451686932           
       1.807341             0.00867049659            0.000459564663           
       1.809981             0.00972418559            0.000488311337           
       1.812622             0.00953237377            0.000474767272           
       1.815262             0.00938527536            0.000481096888           
       1.817903             0.00895831131            0.000463061931           
       1.820543             0.00903645757            0.000472324218           
       1.823183              0.0091707368            0.000475558998           
       1.825824              0.0086560162            0.000441395745           
       1.828464             0.00882221122            0.000464570803           
       1.831105             0.00907887815            0.000458250399           
       1.833745             0.00778831935            0.000433497094           
       1.836385             0.00854118497            0.000466921538           
       1.839026             0.00908130874            0.000479937584           
       1.841666             0.00863048425            0.000466214105           
       1.844306             0.00890899256            0.000460752308           
       1.846947             0.00891546281             0.00046495989           
       1.849587             0.00878190006            0.000509568079           
       1.852228              0.0093281915            0.000474891244           
       1.854868             0.00806172113            0.000466356487           
       1.857508             0.00879814857            0.000482413265           
       1.860149             0.00921350537            0.000502638475           
       1.862789             0.00937617898            0.000489426642           
       1.865429             0.00875780668            0.000493752363           
       1.868070             0.00840525508            0.000477265075           
       1.870710             0.00854820499            0.000470210118           
       1.873351             0.00879041756            0.000482719913           
       1.875991             0.00837096262            0.000478749931           
       1.878631             0.00814678771             0.00046325044           
       1.881272             0.00859874641            0.000472738012           
       1.883912             0.00889782141            0.000500465527           
       1.886553             0.00889175734            0.000494701654           
       1.889193             0.00844496862            0.000481288942           
       1.891833             0.00833484834            0.000496567764           
       1.894474              0.0074684822            0.000465958258           
       1.897114              0.0085420572            0.000482218035           
       1.899754             0.00847462717            0.000482320636           
       1.902395             0.00840884852            0.000471051865           
       1.905035             0.00854054024            0.000502814536           
       1.907676             0.00864546669            0.000476806414           
       1.910316              0.0081494369            0.000475217579           
       1.912956              0.0085585998            0.000476287142           
       1.915597             0.00842972485            0.000475329373           
       1.918237             0.00799877037            0.000478186797           
       1.920878             0.00881215171            0.000499856624           
       1.923518              0.0080838377            0.000478958066           
       1.926158             0.00779110517            0.000464104451           
       1.928799             0.00963464831            0.000510126322           
       1.931439             0.00752679414            0.000462710221           
       1.934079             0.00920514789            0.000533439625           
       1.936720             0.00844528088            0.000473408419           
       1.939360             0.00836926738            0.000502782679           
       1.942001             0.00887318276            0.000474496536           
       1.944641             0.00859056486            0.000476075308           
       1.947281             0.00818114893            0.000460309856           
       1.949922             0.00813628587            0.000474153932           
       1.952562             0.00826408224            0.000492842102           
       1.955202             0.00836634275            0.000495277501           
       1.957843             0.00831364816            0.000480911849           
       1.960483              0.0079255951            0.000490918138           
       1.963124             0.00863713609            0.000501967524           
       1.965764             0.00736507832            0.000437123362           
       1.968404             0.00870340227            0.000470692167           
       1.971045             0.00809312337            0.000462764624           
       1.973685             0.00736579204            0.000463080378           
       1.976326              0.0088623184            0.000500968137           
       1.978966             0.00827372627            0.000488294329           
       1.981606             0.00789990873            0.000487086931           
       1.984247             0.00841942466            0.000499541927           
       1.986887             0.00911945262            0.000513666651           
       1.989527             0.00814597348            0.000480248514           
       1.992168             0.00807309094            0.000496064373           
       1.994808             0.00809542201            0.000494620625           
       1.997449             0.00785730209            0.000477284626           
       2.000089             0.00872063626            0.000500829093           
       2.002729             0.00820956758            0.000486223447           
       2.005370             0.00719981187            0.000450441229           
       2.008010             0.00822269731            0.000502385179           
       2.010650             0.00806328263            0.000501203635           
       2.013291             0.00730953257            0.000457849768           
       2.015931             0.00739733749             0.00045733562           
       2.018572             0.00732859971            0.000486885679           
       2.021212              0.0084487067            0.000513378669           
       2.023852             0.00764985982            0.000462347427           
       2.026493              0.0067701989            0.000454385887           
       2.029133             0.00819976239            0.000489999751           
       2.031774             0.00677486004             0.00046743221           
       2.034414             0.00756521926            0.000454498686           
       2.037054             0.00769608728            0.000470032198           
       2.039695             0.00744159487             0.00045870465           
       2.042335             0.00848722443             0.00050908497           
       2.044975             0.00809412424            0.000491126497           
       2.047616             0.00794687432            0.000485429815           
       2.050256             0.00703241953            0.000460968562           
       2.052897             0.00710800914            0.000471983128           
       2.055537             0.00834483633            0.000494249425           
       2.058177             0.00749405641             0.00045866757           
       2.060818             0.00805781166            0.000498235025           
       2.063458             0.00722066347            0.000491499827           
       2.066098             0.00717653343            0.000462229984           
       2.068739             0.00723521909            0.000471330279           
       2.071379              0.0075002236            0.000492399906           
       2.074020             0.00784590731            0.000492674339           
       2.076660             0.00751374904            0.000486030362           
       2.079300              0.0072860213            0.000490335221           
       2.081941             0.00739201357            0.000452211534           
       2.084581             0.00816742635            0.000501724288           
       2.087222              0.0081375031            0.000482977934           
       2.089862             0.00717384701            0.000493908486           
       2.092502              0.0082846791            0.000514508006           
       2.095143             0.00739219216            0.000501873057           
       2.097783             0.00756140807            0.000491427508           
       2.100423             0.00768273057            0.000477319452           
       2.103064             0.00781551491            0.000499544848           
       2.105704             0.00692009135            0.000467729845           
       2.108345             0.00708679471            0.000454743628           
       2.110985              0.0079943604            0.000515862829           
       2.113625             0.00800016208            0.000520553267           
       2.116266             0.00756824356            0.000513489595           
       2.118906             0.00737937738            0.000472534762           
       2.121546             0.00764244021             0.00047170201           
       2.124187             0.00845942135            0.000520935038           
       2.126827             0.00853640349            0.000529140384           
       2.129468             0.00705882951            0.000482400453           
       2.132108             0.00764726345            0.000488509776           
       2.134748             0.00754861697            0.000483465716           
       2.137389             0.00825121822             0.00052732547           
       2.140029             0.00757311644            0.000452279299           
       2.142670             0.00777797791            0.000489854737           
       2.145310              0.0071359606            0.000456683055           
       2.147950             0.00724248013            0.000473546582           
       2.150591             0.00802234886             0.00049335381           
       2.153231              0.0076013684            0.000494327038           
       2.155871             0.00788896085            0.000486502862           
       2.158512             0.00820483973            0.000517694427           
       2.161152              0.0076668617            0.000484752091           
       2.163793             0.00688909882            0.000457438297           
       2.166433             0.00763071197            0.000494378683           
       2.169073             0.00827938101            0.000503498306           
       2.171714             0.00730474186            0.000469399651           
       2.174354             0.00724531014             0.00048847992           
       2.176995             0.00719144832            0.000484613095           
       2.179635             0.00720746359            0.000512667915           
       2.182275             0.00756565714            0.000495921831           
       2.184916             0.00691824373            0.000458043324           
       2.187556             0.00770107883            0.000478420284           
       2.190196             0.00720263993             0.00048349317           
       2.192837             0.00712919817            0.000478404731           
       2.195477             0.00731714898            0.000462075208           
       2.198118             0.00800981195              0.0004958392           
       2.200758             0.00734161925            0.000487020558           
       2.203398             0.00720081068            0.000485413161           
       2.206039             0.00721126752            0.000459735908           
       2.208679             0.00690191358             0.00046023411           
       2.211319             0.00663503501            0.000453850272           
       2.213960             0.00832435334            0.000515165093           
       2.216600             0.00672589973            0.000479035283           
       2.219241             0.00745154787            0.000481893065           
       2.221881             0.00738250261            0.000480641484           
       2.224521              0.0079789753            0.000505804214           
       2.227162             0.00705218483             0.00046600106           
       2.229802             0.00738195775            0.000491696968           
       2.232443             0.00834885628            0.000514660172           
       2.235083             0.00793993117            0.000516702586           
       2.237723              0.0083638226            0.000508915128           
       2.240364             0.00705892931            0.000479051136           
       2.243004             0.00729664244            0.000483162612           
       2.245644             0.00688896441            0.000474170125           
       2.248285             0.00718272209            0.000474474873           
       2.250925             0.00736893593            0.000483505325           
       2.253566             0.00782995055            0.000532828179           
       2.256206             0.00735350554             0.00050603802           
       2.258846             0.00753315208             0.00048722675           
       2.261487             0.00681002976            0.000486225901           
       2.264127             0.00735928531            0.000488159211           
       2.266767             0.00747367862            0.000505045165           
       2.269408             0.00617543597            0.000460968909           
       2.272048              0.0074113667            0.000501980502           
       2.274689             0.00688253706            0.000490113891           
       2.277329             0.00722836806            0.000472925696           
       2.279969             0.00680560736            0.000488459464           
       2.282610             0.00618890624            0.000452847492           
       2.285250             0.00695297397            0.000459413675           
       2.287891             0.00803515487            0.000529506984           
       2.290531             0.00645117428            0.000480831762           
       2.293171             0.00728858427            0.000497845544           
       2.295812             0.00707764075             0.00048861642           
       2.298452             0.00755946497            0.000528068988           
       2.301092             0.00664908239              0.0004601497           
       2.303733             0.00698902226            0.000490801284           
       2.306373             0.00769825409            0.000523214524           
       2.309014             0.00713455857            0.000493868575           
       2.311654             0.00826801388            0.000554805352           
       2.314294             0.00740684621             0.00048379293           
       2.316935             0.00737427313            0.000484722323           
       2.319575             0.00675530549            0.000486095125           
       2.322215             0.00672260906            0.000505365711           
       2.324856             0.00739604047            0.000487348047           
       2.327496             0.00620145011            0.000474512608           
       2.330137             0.00728435815            0.000492124245           
       2.332777             0.00676270328            0.000488925688           
       2.335417             0.00742901869            0.000497149592           
       2.338058             0.00709246554            0.000500268674           
       2.340698             0.00652302627            0.000475995571           
       2.343339             0.00806833658            0.000541033016           
       2.345979             0.00734229578            0.000488287214           
       2.348619             0.00668830536            0.000483069053           
       2.351260             0.00713200708             0.00049592882           
       2.353900             0.00706226988            0.000491934953           
       2.356540             0.00757673064            0.000508814549           
       2.359181             0.00737375421            0.000494915724           
       2.361821             0.00697749088            0.000465052204           
       2.364462             0.00692519224            0.000484560174           
       2.367102             0.00809085893            0.000538243199           
       2.369742             0.00675470682            0.000517648656           
       2.372383             0.00695385659            0.000475589192           
       2.375023             0.00673149462            0.000491889001           
       2.377663              0.0071260797            0.000483906314           
       2.380304             0.00699583999            0.000487458353           
       2.382944             0.00687867348            0.000460384277           
       2.385585             0.00757421585            0.000515234402           
       2.388225             0.00697946426            0.000492267901           
       2.390865             0.00615400379            0.000457493691           
       2.393506             0.00680065858            0.000471856526           
       2.396146             0.00681706294            0.000510807532           
       2.398787             0.00729169227            0.000486860698           
       2.401427             0.00726516856            0.000469077341           
       2.404067             0.00649574634            0.000453436916           
       2.406708             0.00769917371            0.000487736244           
       2.409348             0.00652881284            0.000476399018           
       2.411988             0.00747749525            0.000499528017           
       2.414629             0.00642221414            0.000477357139           
       2.417269             0.00755047685            0.000523635829           
       2.419910             0.00760073374             0.00052659474           
       2.422550             0.00725044206             0.00049206693           
       2.425190             0.00739045953             0.00052367434           
       2.427831             0.00771486679            0.000532036686           
       2.430471              0.0075401525            0.000501095471           
       2.433112             0.00635664437            0.000448019616           
       2.435752             0.00678752642            0.000489950996           
       2.438392             0.00727572682            0.000489614576           
       2.441033             0.00759174579            0.000530042238           
       2.443673             0.00663060083            0.000495735295           
       2.446313             0.00678572392             0.00050194281           
       2.448954             0.00662562097            0.000472248026           
       2.451594             0.00730248494            0.000533083265           
       2.454235             0.00657998316            0.000474780791           
       2.456875             0.00763027216            0.000534972225           
       2.459515             0.00785758585            0.000556936214           
       2.462156             0.00780642142            0.000524110608           
       2.464796             0.00757709292            0.000509693018           
       2.467436             0.00861660159             0.00056207627           
       2.470077             0.00763351863            0.000501435189           
       2.472717             0.00659943863             0.00046825576           
       2.475358             0.00837696467            0.000533062269           
       2.477998             0.00737262636            0.000491656416           
       2.480638             0.00640430569            0.000466375658           
       2.483279             0.00741804155            0.000524598465           
       2.485919             0.00805176034            0.000526723345           
       2.488560             0.00767258095            0.000512734692           
       2.491200             0.00777693484            0.000531559607           
       2.493840             0.00677813846            0.000525100437           
       2.496481             0.00676518826            0.000516017286           
       2.499121             0.00737395352            0.000524004999           
       2.501761             0.00829549694            0.000563148375           
       2.504402             0.00660122959            0.000495019407           
       2.507042             0.00643662062            0.000485187458           
       2.509683             0.00747049905            0.000514714772           
       2.512323             0.00684624049            0.000517499512           
       2.514963             0.00655233377            0.000500014937           
       2.517604              0.0077775135            0.000565272471           
       2.520244             0.00712595991             0.00050726075           
       2.522884             0.00712226038            0.000514381483           
       2.525525              0.0105523605            0.000633217306           
       2.528165             0.00806078542            0.000544808257           
       2.530806             0.00812202805            0.000556406102           
       2.533446             0.00747162098            0.000522272276           
       2.536086             0.00761711215            0.000522612906           
       2.538727             0.00696455064            0.000479410652           
       2.541367             0.00709193361            0.000488540456           
       2.544008             0.00772072687            0.000526435271           
       2.546648             0.00682921247            0.000503601887           
       2.549288             0.00757765427            0.000541289489           
       2.551929             0.00767581005            0.000536100015           
       2.554569             0.00652517642            0.000476204866           
       2.557209             0.00672239036            0.000487786553           
       2.559850             0.00669151529            0.000488227878           
       2.562490             0.00738056813            0.000529954126           
       2.565131              0.0071237214            0.000539834571           
       2.567771             0.00744888928            0.000532227927           
       2.570411             0.00587537939            0.000467568498           
       2.573052             0.00767074971            0.000540980203           
       2.575692             0.00674828183            0.000504337439           
       2.578332             0.00829069969            0.000561322449           
       2.580973              0.0074703101            0.000527757217           
       2.583613             0.00685790918            0.000493622182           
       2.586254             0.00730648924            0.000508802447           
       2.588894             0.00744517015            0.000533357823           
       2.591534             0.00684661706            0.000529466462           
       2.594175             0.00685452656            0.000519775114           
       2.596815             0.00677800437            0.000519913221           
       2.599456             0.00681924864            0.000494529069           
       2.602096             0.00672859724            0.000494969497           
       2.604736             0.00686497419            0.000511815575           
       2.607377             0.00799149454            0.000537662142           
       2.610017             0.00684517822            0.000488900579           
       2.612657             0.00735173763            0.000538917439           
       2.615298             0.00703736506            0.000514780464           
       2.617938             0.00706883501            0.000551913449           
       2.620579             0.00717753456            0.000533889467           
       2.623219              0.0066925831            0.000514803008           
       2.625859             0.00707427747            0.000514608324           
       2.628500             0.00672540938            0.000498470114           
       2.631140             0.00704356403            0.000517984428           
       2.633780             0.00730070829            0.000526896439           
       2.636421             0.00701781758            0.000529291265           
       2.639061             0.00787695721            0.000527886108           
       2.641702             0.00639133826            0.000486515255           
       2.644342             0.00708990767             0.00051459722           
       2.646982             0.00662961381            0.000490173286           
       2.649623             0.00680410752            0.000520398157           
       2.652263             0.00744260721            0.000538806186           
       2.654904              0.0081360066            0.000563913335           
       2.657544             0.00675666131            0.000484034004           
       2.660184             0.00610037186            0.000486735628           
       2.662825             0.00690872625            0.000529998252           
       2.665465             0.00638629939            0.000492833843           
       2.668105             0.00633616693            0.000517422843           
       2.670746             0.00742041362            0.000517270936           
       2.673386             0.00875950187            0.000579195937           
       2.676027             0.00883273198            0.000572277501           
       2.678667              0.0090883104            0.000566420924           
       2.681307              0.0121651582            0.000643893871           
       2.683948              0.0160123356            0.000759005623           
       2.686588              0.0115695512            0.000634473305           
       2.689229              0.0111117328            0.000607590638           
       2.691869             0.00915585557            0.000582913046           
       2.694509             0.00847704988            0.000561196885           
       2.697150             0.00755520234            0.000521209297           
       2.699790             0.00718723831            0.000532940903           
       2.702430             0.00764747241            0.000525484935           
       2.705071             0.00694267893            0.000517363778           
       2.707711             0.00734140807            0.000516358386           
       2.710352             0.00750116578            0.000551501733           
       2.712992             0.00631199212            0.000515255342           
       2.715632             0.00659025134            0.000488478425           
       2.718273             0.00712160684            0.000526255087           
       2.720913             0.00734160361            0.000532801336           
       2.723553             0.00701584342            0.000524341165           
       2.726194             0.00754027246            0.000568225588           
       2.728834             0.00819603507            0.000592697208           
       2.731475             0.00798983546            0.000540082787           
       2.734115              0.0070091402            0.000521551719           
       2.736755             0.00642767043            0.000503560631           
       2.739396             0.00787292961            0.000554076333           
       2.742036             0.00746528109            0.000564663972           
       2.744677             0.00663127393            0.000516369545           
       2.747317              0.0080379341             0.00056445123           
       2.749957             0.00718170471            0.000537285518           
       2.752598             0.00692965742            0.000533500778           
       2.755238             0.00700871572            0.000546221095           
       2.757878             0.00674994473            0.000531355911           
       2.760519             0.00859132378            0.000593110945           
       2.763159              0.0103445841            0.000644318456           
       2.765800             0.00820204248            0.000546752596           
       2.768440             0.00794608415            0.000542118338           
       2.771080             0.00857349942            0.000567814703           
       2.773721             0.00732143148            0.000538253256           
       2.776361             0.00743358815            0.000549842723           
       2.779001             0.00675687443            0.000542881139           
       2.781642             0.00621801289            0.000516946084           
       2.784282             0.00757975224            0.000580136751           
       2.786923             0.00654554527            0.000543854747           
       2.789563             0.00702221056            0.000542533031           
       2.792203             0.00653053495            0.000499800692           
       2.794844             0.00741728392            0.000583779724           
       2.797484             0.00710598575            0.000539260311           
       2.800125             0.00716025616            0.000569193582           
       2.802765             0.00703467017            0.000554474066           
       2.805405             0.00795504566            0.000591627214           
       2.808046             0.00700585911            0.000564970619           
       2.810686              0.0067955018            0.000511289038           
       2.813326             0.00767351862            0.000564356022           
       2.815967             0.00736314604            0.000568543305           
       2.818607             0.00710741166            0.000533041145           
       2.821248             0.00719751917            0.000525273077           
       2.823888             0.00754628223            0.000558300744           
       2.826528             0.00742282889            0.000536245767           
       2.829169             0.00773510243             0.00057338058           
       2.831809              0.0062483845            0.000522349705           
       2.834449             0.00605249888            0.000517345667           
       2.837090             0.00647912883            0.000516984572           
       2.839730             0.00636598737            0.000509948775           
       2.842371             0.00720717599            0.000543378652           
       2.845011             0.00686652891            0.000534609494           
       2.847651             0.00807042261            0.000580295539           
       2.850292             0.00667980964            0.000533119517           
       2.852932             0.00679213523            0.000549298951           
       2.855573             0.00660207443            0.000525327546           
       2.858213             0.00700914893            0.000568410469           
       2.860853             0.00729029127            0.000539252395           
       2.863494             0.00653655434            0.000528671213           
       2.866134             0.00695931805            0.000566979387           
       2.868774             0.00699226973            0.000558542162           
       2.871415              0.0068631297            0.000561979667           
       2.874055             0.00718320299            0.000549566143           
       2.876696             0.00656568035            0.000539624625           
       2.879336             0.00767842778            0.000562442919           
       2.881976             0.00718550618            0.000561191637           
       2.884617             0.00607157216            0.000508285254           
       2.887257              0.0069574276             0.00054691162           
       2.889897             0.00770803106            0.000563810373           
       2.892538              0.0071794264            0.000596101254           
       2.895178             0.00658760576            0.000515863842           
       2.897819             0.00780960092            0.000572962986           
       2.900459             0.00666497795            0.000519014927           
       2.903099             0.00704770427            0.000528245641           
       2.905740             0.00703549575            0.000541442953           
       2.908380             0.00634912748            0.000520198559           
       2.911021             0.00678434613            0.000546474954           
       2.913661             0.00597687244            0.000512770611           
       2.916301             0.00653096634            0.000536523585           
       2.918942               0.006775404            0.000522713641           
       2.921582             0.00706449756            0.000558454968           
       2.924222             0.00725188249            0.000548163948           
       2.926863             0.00738019095             0.00057600505           
       2.929503             0.00680318463            0.000559581893           
       2.932144             0.00729279079            0.000556157717           
       2.934784              0.0067354709            0.000525720434           
       2.937424             0.00737184263            0.000555641899           
       2.940065             0.00649112067            0.000497361498           
       2.942705             0.00655303939            0.000499101078           
       2.945346             0.00643038324            0.000524692082           
       2.947986             0.00592531966            0.000513564239           
       2.950626             0.00576297081            0.000503628096           
       2.953267             0.00686343491             0.00054073335           
       2.955907             0.00756938092             0.00058907847           
       2.958547             0.00754912069            0.000555375542           
       2.961188             0.00635016971            0.000531412524           
       2.963828             0.00880696464            0.000612171606           
       2.966469             0.00750278619            0.000554292261           
       2.969109             0.00674546329            0.000533360628           
       2.971749             0.00670872999            0.000528588188           
       2.974390             0.00757237666            0.000551857367           
       2.977030             0.00681020741            0.000535044316           
       2.979670             0.00779539552            0.000556806441           
       2.982311             0.00882803316            0.000614137156           
       2.984951             0.00746853728            0.000537244359           
       2.987592             0.00619134469            0.000498952464           
       2.990232             0.00710000557            0.000555680128           
       2.992872             0.00679156031            0.000511923598           
       2.995513             0.00845934475            0.000558950984           
       2.998153              0.0107176816            0.000639722859           
       3.000794               0.012481889            0.000668693791           
       3.003434              0.0111633267             0.00063334331           
       3.006074              0.0535713554             0.00136797634           
       3.008715               0.129638285             0.00205422174           
       3.011355               0.172161115              0.0022828152           
       3.013995              0.0845832559             0.00160444718           
       3.016636              0.0592762421             0.00131525917           
       3.019276               0.126100609             0.00188570663           
       3.021917               0.505172609             0.00362916424           
       3.024557                1.74956248             0.00664020417           
       3.027197                 1.1134126             0.00516447214           
       3.029838               0.497060372             0.00349960833           
       3.032478               0.258407374             0.00252585654           
       3.035118              0.0722570559             0.00135358068           
       3.037759               0.103689785             0.00161938945           
       3.040399               0.145593314             0.00197940102           
       3.043040               0.559350365             0.00392731722           
       3.045680               0.378729715             0.00304048501           
       3.048320              0.0785566463             0.00141487088           
       3.050961               0.112743821             0.00172487429           
       3.053601              0.0848974108             0.00144158169           
       3.056242              0.0590061917             0.00127779412           
       3.058882              0.0521170497             0.00128819475           
       3.061522              0.0399251548             0.00110620775           
       3.064163              0.0458296581             0.00117026218           
       3.066803               0.106360663              0.0018768948           
       3.069443               0.108405239             0.00198249721           
       3.072084              0.0484754103              0.0012908867           
       3.074724              0.0358589911             0.00123991179           
       3.077365              0.0913122227             0.00204818791           
       3.080005              0.0165738022            0.000877547021           
       3.082645              0.0111790052            0.000757123311           
       3.085286              0.0129481065            0.000821260919           
       3.087926             0.00996751073            0.000715008557           
       3.090566              0.0113697178            0.000748226804           
       3.093207             0.00916737368            0.000699143238           
       3.095847             0.00882039385            0.000657313956           
       3.098488             0.00716955798            0.000657112262           
       3.101128              0.0112487441            0.000828379687           
       3.103768              0.0116395694            0.000826794204           
       3.106409              0.0103108957            0.000828187306           
       3.109049             0.00789607489            0.000695503126           
       3.111690             0.00875258121             0.00071968313           
       3.114330              0.0076874433            0.000688820693           
       3.116970             0.00839832129            0.000725492401           
       3.119611               0.013279144            0.000971047378           
       3.122251              0.0191385995             0.00121942777           
       3.124891              0.0333362814             0.00162437458           
       3.127532              0.0238480984             0.00134407215           
       3.130172              0.0131767358             0.00101634199           
       3.132813             0.00931834661            0.000841406548           
       3.135453             0.00954443009            0.000844538154           
       3.138093             0.00762245825            0.000817777014           
       3.140734             0.00732482818            0.000739586048           
       3.143374             0.00718550616            0.000774670479           
       3.146014             0.00753243451            0.000853863475           
       3.148655             0.00717860649            0.000774878274           
       3.151295             0.00569010287            0.000735174832           
       3.153936             0.00689990903            0.000782016332           
       3.156576              0.0064700983            0.000746967569           
       3.159216             0.00608673714            0.000728124122           
       3.161857             0.00820201899             0.00084178744           
       3.164497             0.00887401845            0.000919995817           
       3.167138              0.0091596551            0.000965757671           
       3.169778             0.00787268348            0.000880578739           
       3.172418             0.00646014814            0.000789565094           
       3.175059              0.0070391085            0.000730676281           
       3.177699              0.0039748775            0.000581432368           
       3.180339             0.00556038647            0.000736801609           
       3.182980             0.00572876336            0.000773225869           
       3.185620             0.00801624648            0.000931507162           
       3.188261              0.0054788999            0.000783843131           
       3.190901             0.00541365794            0.000716603096           
       3.193541             0.00616586897            0.000803588048           
       3.196182             0.00683582742            0.000881778228           
       3.198822             0.00533622016            0.000779338689           
       3.201463             0.00592428296            0.000807011597           
       3.204103             0.00651296524            0.000841009476           
       3.206743             0.00477590456            0.000720109539           
       3.209384             0.00633370395            0.000895962999           
       3.212024              0.0058195946            0.000800699572           
       3.214664             0.00482240979            0.000828838983           
       3.217305             0.00524950166            0.000822017058           
       3.219945             0.00721335484             0.00099177861           
       3.222586             0.00605208521            0.000865278704           
       3.225226             0.00578682046            0.000938620063           
       3.227866             0.00582729467            0.000860884206           
       3.230507             0.00678711636            0.000963094627           
       3.233147             0.00680991045            0.000972500416           
       3.235787             0.00449415629            0.000808496242           
       3.238428             0.00777002489             0.00114719568           
       3.241068              0.0065150283            0.000982243446           
       3.243709             0.00441574797            0.000835468812           
       3.246349             0.00631449407            0.000910748527           
       3.248989             0.00587397463             0.00103720173           
       3.251630              0.0064771075             0.00104882187           
       3.254270             0.00446201883             0.00077800548           
       3.256911             0.00839808217             0.00116459773           
       3.259551             0.00654740618             0.00110705841           
       3.262191             0.00426656506            0.000912834859           
       3.264832              0.0038046816            0.000900671066           
       3.267472             0.00523570657            0.000991168109           
       3.270112             0.00478539676             0.00104720331           
       3.272753             0.00731993537             0.00118549694           
       3.275393             0.00618207043             0.00111163514           
       3.278034             0.00356553197            0.000844698842           
       3.280674             0.00495285711             0.00108032131           
       3.283314             0.00566479805             0.00103330106           
       3.285955             0.00423891528            0.000922251375           
       3.288595              0.0067516974             0.00129492038           
       3.291235             0.00472419698             0.00111349964           
       3.293876             0.00618127753             0.00129199717           
       3.296516             0.00698920411             0.00131891766           
       3.299157             0.00583105256             0.00118955836           
       3.301797             0.00966890514              0.0017472964           
       3.304437             0.00402194642            0.000976348702           
       3.307078             0.00344763079            0.000995762978           
       3.309718             0.00639695689             0.00140003087           
       3.312359             0.00459069609             0.00118629671           
       3.314999             0.00534320584             0.00126010528           
       3.317639             0.00545780016             0.00121799041           
       3.320280             0.00336282289             0.00101649354           
       3.322920             0.00569347738              0.0013449006           
       3.325560             0.00697151931              0.0014892241           
       3.328201             0.00695881693             0.00134000336           
       3.330841             0.00498116279             0.00137980094           
       3.333482             0.00684077303             0.00152841383           
       3.336122             0.00475012884             0.00127420896           
       3.338762             0.00726663498             0.00182051745           
       3.341403              0.0053583747             0.00149380391           
       3.344043             0.00460418601             0.00132941943           
       3.346683              0.0051763387             0.00143909015           
       3.349324             0.00507653886             0.00160233728           
       3.351964             0.00674444655             0.00195302722           
       3.354605             0.00444834281              0.0018139632           
       3.357245             0.00654215082               0.001984483           
       3.359885             0.00348087508             0.00115855565           
       3.362526             0.00300596697             0.00134636562           
       3.365166             0.00375610739             0.00141951748           
       3.367807              0.0043939753             0.00196490498           
       3.370447             0.00420891788             0.00159522372           
       3.373087             0.00341034267             0.00153554532           
       3.375728             0.00527147137             0.00215461055           
       3.378368             0.00584099792             0.00336601681           
       3.381008              0.0140116717             0.00388683289           
       3.383649             0.00484467527             0.00183344416           
       3.386289               0.003877396             0.00194127013           
       3.388930             0.00236714761             0.00239922997           
       3.391570             0.00470830091             0.00239361226           
       3.394210             0.00192419809             0.00193649577           
       3.396851           -2.60553752e-05                         0           
       3.399491             0.00716926559             0.00418239345           
       3.402131             0.00482304371             0.00485338383           
       3.404772           -2.61044204e-05                         0           
       3.407412                       nan                       nan           
       3.410053           -2.61687158e-05                         0           
       3.412693                       nan                       nan           
       3.415333              0.0177935323              0.0132155015           
