################################################################################
# EDF_DataBlockID                     0.Image.Psd
# EDF_BinarySize                      2105344
# EDF_HeaderSize                      2560
# ByteOrder                           LowByteFirst
# DataType                            FloatValue
# Dim_1                               512
# Dim_2                               1028
# Image                               0
# HeaderID                            EH:000000:000000:000000
# Size                                2105344
# Center_1                            304.9000
# Center_2                            588.7000
# Comment                             Xenocs_Cell_Window - 20251028_20perc_iodine_1.23mg
# DDummy                              0.6
# Date                                2025-10-29T01:50:04
# Delta                               21.910000
# Dummy                               -1.5
# ExposureTime                        360
# Gamma                               15.360000
# Intensity1                          8.50504e-10
# PSize_1                             7.5e-05
# PSize_2                             7.5e-05
# Pressure                            0.0336618
# SampleDistance                      0.115750
# SampleEnvKind                       large
# SampleEnvPN                         ElectroChemical cell
# SampleEnvSN                         1141
# Thickness                           0
# Wavelength                          1.541891e-10
# Wavelength                          1.54189e-10
# aux                                 0
# aux_dial                            0.002375
# beamx                               588.434
# beamx_dial                          588.434
# beamz                               657.808
# beamz_dial                          657.808
# det0x                               0
# det0x_dial                          6.36945
# det0xvd                             0
# det0xvd_dial                        0
# det0y                               450.002
# det0y_dial                          481.635
# det0z                               0
# det0z_dial                          1.23302
# det0zvd                             0
# det0zvd_dial                        0
# mag                                 1.818
# mag_dial                            1.818
# om                                  0.2499
# om_dial                             -0.610199
# phi                                 -0.0120535
# phi_dial                            0
# ry                                  0.599993
# ry_dial                             0.599993
# s1bot                               0.8
# s1bot_dial                          -1.66094
# s1hl                                0.8
# s1hl_dial                           -0.608437
# s1hr                                0.8
# s1hr_dial                           0.970938
# s1top                               0.8
# s1top_dial                          -0.461562
# s2bot                               0.45
# s2bot_dial                          1.36109
# s2hl                                0.45
# s2hl_dial                           -0.83375
# s2hr                                0.45
# s2hr_dial                           -0.118594
# s2top                               0.45
# s2top_dial                          1.44734
# w2theta                             32
# w2theta_dial                        32
# waxsch                              19.2605
# waxsch_dial                         -32.7355
# waxsh                               137.085
# waxsh_dial                          -43.5338
# waxsth                              26.0607
# waxsth_dial                         -19.4086
# waxsz                               67.0407
# waxsz_dial                          -23.7954
# wind                                65.9854
# wind_dial                           66.0041
# wpsi                                124
# wpsi_dial                           124
# wstod                               115
# wstod_dial                          115
# x                                   0
# x_dial                              1.00969
# z                                   0
# z_dial                              13.3172
# CountCutoff                         6807993
# DetectorModel                       Dectris EIGER2 Si 500K, S/N E-01-0554
# ThresholdSetting                    4023.88989258
# Saturation                          0
# FlatField                           Corrected
# BackgroundReductionExtra            0.02
# BackgroundCorrectionConstant        0.0026712
# Detector                            0
# Monitor                             0
# Pil_Roi0                            0
# SumForIntensity1                    3.06182e+08
# TransmittedFlux                     850504
# det                                 0
# mon                                 0
# pilai0                              3.06182e+08
# pilai1                              772321
# pilct0                              5.30386e+08
# pilct1                              772321
# pilroi0                             0
# pilroi1                             0
# sec                                 1
# title                               20251028_20perc_iodine_1.23mg_1_00104.edf
# usaxs0                              0
# Operation                           Azimuthal average I(q)
# Error_model                         ErrorModel.poisson
# Geometrical_correction              True
# Transmission_correction             True
# Thickness_correction                False
# Binning mode                        Uniform
# Binning factor                      1.0
# Psi                                 0.0
# Omega                               0.2499
# MaskInvalidPixels                   True
# DetectorEdge                        3
# MaskFiles                           ['WAXS_corrected.edf']
################################################################################
    q(A⁻¹)                Intensity(a.u.)            Sigma_I(a.u.)            
       0.693100             0.00830558132             0.00609201418           
       0.695741             0.00565390956             0.00410164469           
       0.698381             0.00419431068             0.00432739723           
       0.701021              0.0177494631              0.0125846534           
       0.703662              0.0057037641             0.00411783452           
       0.706302              0.0104215651             0.00430934972           
       0.708942             0.00282350565             0.00289508055           
       0.711583             0.00874096808             0.00441094743           
       0.714223             0.00590609414             0.00418602885           
       0.716864             0.00372288936             0.00217451738           
       0.719504             0.00890165459             0.00362849094           
       0.722144             0.00504092392             0.00252867237           
       0.724785             0.00637081867             0.00226760037           
       0.727425              0.0133403228             0.00443907122           
       0.730065             0.00882178706             0.00255345639           
       0.732706             0.00933863322             0.00220617807           
       0.735346              0.0052589158             0.00215809782           
       0.737987             0.00482967066             0.00146143278           
       0.740627             0.00485302459             0.00218581205           
       0.743267             0.00835661019             0.00192116118           
       0.745908             0.00312391518             0.00127440384           
       0.748548             0.00485388307             0.00146425442           
       0.751189             0.00321337895             0.00160534873           
       0.753829             0.00542010178             0.00191653716           
       0.756469             0.00657162373             0.00170170084           
       0.759110             0.00828700082             0.00201379888           
       0.761750             0.00417742078             0.00126424772           
       0.764390             0.00834139091             0.00186983279           
       0.767031              0.0106610321             0.00183055305           
       0.769671             0.00686174474             0.00183195421           
       0.772312             0.00677339605             0.00138564482           
       0.774952             0.00568428713             0.00171414046           
       0.777592             0.00463128659             0.00112698055           
       0.780233             0.00519295221             0.00143978129           
       0.782873             0.00652743269             0.00154384322           
       0.785513             0.00753909555             0.00177376219           
       0.788154             0.00871412621             0.00159526032           
       0.790794             0.00707741859             0.00171876348           
       0.793435             0.00676663574             0.00150978565           
       0.796075             0.00656114733             0.00143213827           
       0.798715             0.00783650193             0.00184956212           
       0.801356             0.00447402951             0.00120279922           
       0.803996             0.00841520013             0.00168177795           
       0.806637               0.004860293             0.00101713799           
       0.809277              0.0054894298             0.00117002085           
       0.811917               0.006778539             0.00121544604           
       0.814558             0.00964067089             0.00150650688           
       0.817198             0.00638205568             0.00116450893           
       0.819838              0.0071713643             0.00124932559           
       0.822479             0.00599801153              0.0013416755           
       0.825119             0.00844604992             0.00135507828           
       0.827760             0.00806324295             0.00134117446           
       0.830400             0.00626732303             0.00111287566           
       0.833040             0.00670652956             0.00120611352           
       0.835681             0.00697645787             0.00139846578           
       0.838321             0.00532188156              0.0010251813           
       0.840961             0.00937837489             0.00148278388           
       0.843602             0.00920243587             0.00134695828           
       0.846242             0.00746013171             0.00121258226           
       0.848883             0.00765307431             0.00125684784           
       0.851523              0.0102759983             0.00143829582           
       0.854163             0.00591023689             0.00115999956           
       0.856804             0.00681796277             0.00112023369           
       0.859444             0.00811017828               0.001197118           
       0.862085             0.00556366722             0.00103341406           
       0.864725             0.00621289219             0.00111759578           
       0.867365             0.00828102658             0.00119645352           
       0.870006             0.00657538011             0.00101594935           
       0.872646             0.00742470523             0.00113207966           
       0.875286             0.00667314135             0.00103253683           
       0.877927             0.00698180343             0.00101913221           
       0.880567             0.00751376607             0.00109532708           
       0.883208             0.00705190572             0.00105113235           
       0.885848             0.00774882268             0.00114405064           
       0.888488              0.0078772333             0.00108190344           
       0.891129             0.00673351541             0.00102708115           
       0.893769             0.00757912347             0.00104283852           
       0.896410              0.0060940715            0.000871847464           
       0.899050             0.00754841044             0.00106708699           
       0.901690             0.00804479823              0.0011999783           
       0.904331             0.00646453347            0.000953652431           
       0.906971             0.00764084587             0.00110297745           
       0.909611             0.00699720896            0.000960843048           
       0.912252             0.00603925223            0.000922014561           
       0.914892              0.0062012088             0.00102098609           
       0.917533             0.00855393219             0.00113436811           
       0.920173             0.00817035339             0.00102860229           
       0.922813             0.00769374619             0.00104744642           
       0.925454             0.00774079268            0.000946076022           
       0.928094             0.00733649171            0.000983285692           
       0.930734             0.00716930926             0.00104648452           
       0.933375             0.00595710601            0.000944542064           
       0.936015               0.007660147            0.000972770346           
       0.938656             0.00969348927               0.001173913           
       0.941296             0.00805706108            0.000969938831           
       0.943936             0.00794633762            0.000944617035           
       0.946577             0.00752496088            0.000913153242           
       0.949217             0.00643367153             0.00077645368           
       0.951858             0.00698101071            0.000846660213           
       0.954498             0.00826357746             0.00106622393           
       0.957138             0.00766143829            0.000972603901           
       0.959779             0.00732664739            0.000937604914           
       0.962419             0.00686197069            0.000901349505           
       0.965059             0.00745387198            0.000988023947           
       0.967700             0.00917754347             0.00112285542           
       0.970340             0.00676734344            0.000853226678           
       0.972981             0.00800973086            0.000845723494           
       0.975621             0.00769958656            0.000882113412           
       0.978261             0.00829683568            0.000870063514           
       0.980902             0.00831686524             0.00104224337           
       0.983542             0.00675615638            0.000831878084           
       0.986182             0.00741464226            0.000855608811           
       0.988823              0.0083754888            0.000882988878           
       0.991463             0.00743315982            0.000887480538           
       0.994104             0.00896116312            0.000950579454           
       0.996744             0.00985232022             0.00101665186           
       0.999384             0.00806572462            0.000822668159           
       1.002025              0.0086825044            0.000952666959           
       1.004665             0.00777260854            0.000823738559           
       1.007306             0.00778681277            0.000820270696           
       1.009946             0.00943696508            0.000920945867           
       1.012586              0.0071519646             0.00078084225           
       1.015227              0.0073758963            0.000851900524           
       1.017867              0.0102955518            0.000967299441           
       1.020507             0.00742957903             0.00079593717           
       1.023148             0.00675337984            0.000818822412           
       1.025788             0.00851784234            0.000843190917           
       1.028429             0.00815867561            0.000864556074           
       1.031069             0.00763465335            0.000787019257           
       1.033709             0.00740303916            0.000823815563           
       1.036350             0.00946689439            0.000836702722           
       1.038990             0.00836015309            0.000800724009           
       1.041630              0.0100205499            0.000914344863           
       1.044271             0.00885205358            0.000808217586           
       1.046911              0.0084168906            0.000828979905           
       1.049552             0.00802164601            0.000850253475           
       1.052192              0.0085813785            0.000803019828           
       1.054832             0.00918375965            0.000838283362           
       1.057473             0.00871170389            0.000804852054           
       1.060113             0.00772276349            0.000739054716           
       1.062754             0.00891447146            0.000810692709           
       1.065394             0.00874073887            0.000848718612           
       1.068034             0.00964066386            0.000810996669           
       1.070675             0.00795419788            0.000768421059           
       1.073315             0.00869858909            0.000815091413           
       1.075955             0.00740085978            0.000709775971           
       1.078596             0.00954547799            0.000856704895           
       1.081236             0.00931215899            0.000810262952           
       1.083877              0.0059368017            0.000641155817           
       1.086517             0.00874253183            0.000834294259           
       1.089157              0.0093298153            0.000894277215           
       1.091798              0.0105787295            0.000834855996           
       1.094438              0.0101523591            0.000815219049           
       1.097078             0.00818991411            0.000702257895           
       1.099719             0.00838095918            0.000768407748           
       1.102359             0.00766375823            0.000688143638           
       1.105000             0.00965084171            0.000863491957           
       1.107640             0.00825586253            0.000763640026           
       1.110280              0.0085870634              0.0007106019           
       1.112921             0.00745534843             0.00071126217           
       1.115561              0.0093940838             0.00075881659           
       1.118202             0.00884069491            0.000736820725           
       1.120842             0.00854490231            0.000761338118           
       1.123482             0.00954424764            0.000801113194           
       1.126123             0.00846678037            0.000723730139           
       1.128763              0.0103490818             0.00080563054           
       1.131403              0.0082482615            0.000693037195           
       1.134044             0.00961959625            0.000770140848           
       1.136684             0.00918761324            0.000802455448           
       1.139325             0.00850304704            0.000711148449           
       1.141965             0.00806516321            0.000697173993           
       1.144605             0.00881096685            0.000694813785           
       1.147246             0.00939845812            0.000734405785           
       1.149886             0.00798052178            0.000674340064           
       1.152527             0.00866394912            0.000712838745           
       1.155167             0.00848265116             0.00067088676           
       1.157807             0.00889807397            0.000736713082           
       1.160448              0.0087955574             0.00071526289           
       1.163088             0.00871680708            0.000679194416           
       1.165728             0.00920122657            0.000716456472           
       1.168369             0.00834329007            0.000688540461           
       1.171009             0.00779324622            0.000645807961           
       1.173650             0.00879608772            0.000704104705           
       1.176290             0.00866329691            0.000682854756           
       1.178930             0.00982707359            0.000712796017           
       1.181571              0.0104867409            0.000750933305           
       1.184211             0.00875900436            0.000688724559           
       1.186851             0.00838075402            0.000658656464           
       1.189492             0.00995508458            0.000713030803           
       1.192132             0.00927920793            0.000680676776           
       1.194773             0.00952112556            0.000692505199           
       1.197413             0.00912474525            0.000649559522           
       1.200053              0.0101095699            0.000701086849           
       1.202694             0.00914104872             0.00063395419           
       1.205334             0.00856123338            0.000661181483           
       1.207975              0.0108296354            0.000709819944           
       1.210615              0.0108076557            0.000782256961           
       1.213255             0.00907684794            0.000641956562           
       1.215896             0.00973313788            0.000676804268           
       1.218536             0.00923692663            0.000633970451           
       1.221176             0.00848155085            0.000660472004           
       1.223817             0.00886295336            0.000633783135           
       1.226457             0.00895988308            0.000650077401           
       1.229098             0.00927915874            0.000661526187           
       1.231738              0.0111378275            0.000728324936           
       1.234378             0.00859176057            0.000601079996           
       1.237019             0.00927398692            0.000643529467           
       1.239659             0.00960289879            0.000649137438           
       1.242299              0.0101614433            0.000659265059           
       1.244940              0.0102690461            0.000644562478           
       1.247580             0.00974185039            0.000646998318           
       1.250221              0.0106850334            0.000673414263           
       1.252861              0.0102582732            0.000628160524           
       1.255501             0.00883748125            0.000633069141           
       1.258142              0.0111822227            0.000669161079           
       1.260782              0.0101946765            0.000652754766           
       1.263423             0.00986647779            0.000617044759           
       1.266063              0.0108607967            0.000663556885           
       1.268703             0.00936313036            0.000610996915           
       1.271344              0.0109434271            0.000682935669           
       1.273984              0.0109668774            0.000660287453           
       1.276624             0.00948669541            0.000602576969           
       1.279265              0.0102749717            0.000637526553           
       1.281905             0.00959930036            0.000618943421           
       1.284546             0.00957240353              0.0005974262           
       1.287186              0.0117527223            0.000649469834           
       1.289826              0.0111233956            0.000665909652           
       1.292467              0.0101701024            0.000622711188           
       1.295107              0.0109056849            0.000638432229           
       1.297747              0.0114028349            0.000624696385           
       1.300388              0.0103237254            0.000647974014           
       1.303028              0.0103362651            0.000618970458           
       1.305669             0.00954249584            0.000608890011           
       1.308309              0.0117598567            0.000669284698           
       1.310949             0.00990361088            0.000613578303           
       1.313590              0.0103008788            0.000606203006           
       1.316230               0.010498177            0.000653068637           
       1.318871              0.0114362992             0.00066756665           
       1.321511              0.0108523733            0.000638247223           
       1.324151              0.0109799635            0.000622955576           
       1.326792              0.0114006007            0.000638700435           
       1.329432              0.0119998666             0.00065064779           
       1.332072              0.0103258848            0.000594566394           
       1.334713              0.0114199903            0.000645343657           
       1.337353              0.0103336995              0.0005887267           
       1.339994              0.0118660019            0.000662032397           
       1.342634              0.0121164205            0.000641511389           
       1.345274              0.0104189283            0.000615643987           
       1.347915              0.0103672513              0.0005971566           
       1.350555              0.0109381421             0.00062412062           
       1.353195              0.0117038115            0.000648766213           
       1.355836              0.0104716062            0.000604095853           
       1.358476              0.0109312365            0.000599405854           
       1.361117              0.0108053396            0.000596762133           
       1.363757             0.00996117982            0.000590472933           
       1.366397              0.0108933682            0.000598798169           
       1.369038              0.0115913391            0.000623834168           
       1.371678              0.0123955687            0.000639425336           
       1.374319              0.0119945973             0.00062358205           
       1.376959              0.0112688688            0.000598344525           
       1.379599              0.0118776639            0.000658337755           
       1.382240              0.0120501882            0.000623216085           
       1.384880              0.0121862856            0.000663844787           
       1.387520              0.0106375586            0.000589050331           
       1.390161              0.0101019997            0.000545191238           
       1.392801              0.0108471405            0.000588613397           
       1.395442              0.0110940362            0.000603404615           
       1.398082              0.0114185241            0.000573266282           
       1.400722              0.0115399038             0.00060366642           
       1.403363              0.0108506666            0.000616164067           
       1.406003               0.010102819            0.000556420302           
       1.408644              0.0104816105            0.000593713167           
       1.411284              0.0121115643            0.000604327113           
       1.413924              0.0111120782            0.000576708787           
       1.416565              0.0107390369            0.000564718835           
       1.419205              0.0107234194             0.00058866335           
       1.421845              0.0114054308            0.000606737888           
       1.424486              0.0110507561            0.000574074847           
       1.427126              0.0117644219            0.000615307947           
       1.429767              0.0117043817            0.000577450797           
       1.432407              0.0109771444            0.000585240488           
       1.435047              0.0116876666            0.000567147384           
       1.437688              0.0112861258            0.000565652704           
       1.440328             0.00985337691            0.000539424601           
       1.442968              0.0107840645             0.00057696922           
       1.445609              0.0111605126            0.000568333474           
       1.448249              0.0110465949            0.000579741679           
       1.450890              0.0109913357            0.000574515342           
       1.453530               0.011486217            0.000614440861           
       1.456170              0.0104958799            0.000570042246           
       1.458811             0.00990020935            0.000529393011           
       1.461451              0.0114264384            0.000570228903           
       1.464092              0.0106258827            0.000553485682           
       1.466732              0.0105438516            0.000546607259           
       1.469372               0.011047164            0.000546407319           
       1.472013              0.0112503785            0.000594706756           
       1.474653               0.010705953              0.0005711895           
       1.477293              0.0102842185            0.000571625439           
       1.479934             0.00962467543             0.00052767001           
       1.482574              0.0107363759             0.00053911207           
       1.485215              0.0101887328            0.000534964195           
       1.487855              0.0111205619            0.000566264841           
       1.490495              0.0114123414            0.000571532837           
       1.493136              0.0105442079            0.000541834674           
       1.495776              0.0113309393            0.000559127389           
       1.498416              0.0112060431            0.000574229298           
       1.501057              0.0111696661            0.000560661906           
       1.503697             0.00999638041            0.000518549199           
       1.506338               0.010283708            0.000535559702           
       1.508978             0.00999530158             0.00052280394           
       1.511618              0.0097306947            0.000549364312           
       1.514259             0.00983424867            0.000533200219           
       1.516899               0.011313295            0.000556833564           
       1.519540               0.009673948            0.000523214991           
       1.522180              0.0103064303            0.000544792143           
       1.524820              0.0105832735            0.000548963227           
       1.527461               0.010378674            0.000546319579           
       1.530101              0.0100903882            0.000533291292           
       1.532741             0.00957286454            0.000516420881           
       1.535382              0.0107611022            0.000556348784           
       1.538022              0.0108804289            0.000527007845           
       1.540663              0.0104603914            0.000555780609           
       1.543303              0.0109889397            0.000528928365           
       1.545943              0.0113120374            0.000568002106           
       1.548584              0.0111643544            0.000574411398           
       1.551224              0.0106085772            0.000517709483           
       1.553864                0.01011396            0.000534151523           
       1.556505              0.0104637004            0.000524850082           
       1.559145              0.0103436203            0.000528222202           
       1.561786              0.0103982334            0.000530022728           
       1.564426              0.0103878417             0.00051328016           
       1.567066              0.0100536398            0.000529096862           
       1.569707              0.0101738874            0.000522690705           
       1.572347              0.0102551616            0.000542144329           
       1.574988              0.0103296788            0.000517901927           
       1.577628               0.010243947            0.000537798277           
       1.580268             0.00944784251            0.000500412455           
       1.582909             0.00940220565            0.000529134687           
       1.585549             0.00985564057            0.000526015718           
       1.588189             0.00949750633            0.000505100129           
       1.590830             0.00939826632            0.000501823654           
       1.593470             0.00882061763             0.00050540706           
       1.596111             0.00941007064            0.000509654986           
       1.598751             0.00997688648            0.000508494319           
       1.601391             0.00946773006            0.000506278036           
       1.604032             0.00899806961            0.000503878965           
       1.606672             0.00954296883            0.000504171799           
       1.609312             0.00901451338            0.000511516663           
       1.611953             0.00911591677            0.000503358392           
       1.614593             0.00936137542            0.000500358076           
       1.617234             0.00917022901            0.000513238032           
       1.619874             0.00891780909            0.000504125718           
       1.622514             0.00919986401            0.000505051047           
       1.625155             0.00917459408            0.000507336427           
       1.627795             0.00841052124            0.000473849632           
       1.630436             0.00825749384            0.000467067381           
       1.633076             0.00981470928            0.000515885173           
       1.635716             0.00899503702            0.000486189338           
       1.638357             0.00908274587            0.000489841709           
       1.640997             0.00876051407            0.000495646811           
       1.643637             0.00961315479            0.000505246873           
       1.646278             0.00862796346            0.000493696905           
       1.648918             0.00954720419             0.00052074784           
       1.651559             0.00856287253            0.000497000545           
       1.654199             0.00844048766            0.000479909923           
       1.656839              0.0085618963            0.000483517852           
       1.659480             0.00829763699            0.000493872182           
       1.662120             0.00848034458            0.000470239432           
       1.664761             0.00915500037            0.000507515279           
       1.667401             0.00858597662            0.000469759316           
       1.670041             0.00818486547            0.000465648658           
       1.672682             0.00813935259             0.00046244364           
       1.675322             0.00827698765            0.000463338398           
       1.677962             0.00943859387            0.000489326057           
       1.680603             0.00928865562            0.000486917636           
       1.683243             0.00816507472            0.000476292764           
       1.685884             0.00842869908            0.000487494254           
       1.688524             0.00859606558            0.000482794057           
       1.691164             0.00802582668            0.000466611573           
       1.693805              0.0082114428            0.000477161325           
       1.696445             0.00853417833            0.000489269673           
       1.699085             0.00973338605            0.000505007265           
       1.701726             0.00811424525            0.000444183828           
       1.704366             0.00961144349            0.000509279535           
       1.707007             0.00820282898            0.000459995224           
       1.709647             0.00883710908            0.000482840442           
       1.712287              0.0078525071            0.000459109785           
       1.714928             0.00889947284            0.000492699385           
       1.717568             0.00885400939            0.000462937755           
       1.720209             0.00884207445            0.000484568265           
       1.722849             0.00915260956            0.000490469315           
       1.725489             0.00892649324            0.000484779597           
       1.728130             0.00873928738            0.000509754027           
       1.730770             0.00804120359            0.000464391123           
       1.733410             0.00825648619            0.000463169655           
       1.736051             0.00866343996            0.000477749311           
       1.738691             0.00860006779            0.000466349649           
       1.741332             0.00897681837             0.00049038691           
       1.743972             0.00862068668            0.000496260907           
       1.746612              0.0081561638            0.000463520185           
       1.749253             0.00863496642            0.000486350129           
       1.751893               0.008803821            0.000487477701           
       1.754533             0.00811173241            0.000467487702           
       1.757174             0.00845123982            0.000472702052           
       1.759814              0.0089706897            0.000479630428           
       1.762455             0.00858467591            0.000477813038           
       1.765095             0.00909499309            0.000470475925           
       1.767735             0.00812176202            0.000458307343           
       1.770376             0.00870405034            0.000475702897           
       1.773016             0.00910533963            0.000483286168           
       1.775657             0.00831640478            0.000455228877           
       1.778297             0.00849307222            0.000456077402           
       1.780937             0.00807025468             0.00046925386           
       1.783578             0.00827303312            0.000463232844           
       1.786218             0.00915952545            0.000508676219           
       1.788858             0.00856397591            0.000467149567           
       1.791499             0.00850128648            0.000460209344           
       1.794139             0.00889159155            0.000466836685           
       1.796780             0.00831992748            0.000449403281           
       1.799420             0.00938265586            0.000474599921           
       1.802060             0.00910100062            0.000471197714           
       1.804701             0.00932237474            0.000457649207           
       1.807341             0.00964995434            0.000489265838           
       1.809981             0.00946539223            0.000486180032           
       1.812622             0.00909642052            0.000468029394           
       1.815262             0.00943558433            0.000486800551           
       1.817903             0.00907270211            0.000470275065           
       1.820543             0.00927477663            0.000482892499           
       1.823183             0.00848637306            0.000461658644           
       1.825824             0.00900289764             0.00045427401           
       1.828464             0.00945865133            0.000485439841           
       1.831105             0.00875572025             0.00045414059           
       1.833745             0.00828017139            0.000451067566           
       1.836385             0.00825615844            0.000463267119           
       1.839026             0.00991890384            0.000506174198           
       1.841666             0.00797468404            0.000452253765           
       1.844306             0.00939733482            0.000477543782           
       1.846947             0.00822162324            0.000450588342           
       1.849587             0.00851513882             0.00050636241           
       1.852228             0.00893566065            0.000469047031           
       1.854868             0.00895126807            0.000495911342           
       1.857508             0.00917618707            0.000497178509           
       1.860149             0.00907535688            0.000503422661           
       1.862789             0.00842214261            0.000468105324           
       1.865429             0.00832494083             0.00048580246           
       1.868070             0.00844637971             0.00048281097           
       1.870710             0.00852820004            0.000473959047           
       1.873351              0.0093219988            0.000501652066           
       1.875991             0.00852783397             0.00048763853           
       1.878631             0.00891260159            0.000488970333           
       1.881272             0.00911641901            0.000491216239           
       1.883912             0.00773117345            0.000470774203           
       1.886553              0.0089109949            0.000499770113           
       1.889193              0.0090437166            0.000502617908           
       1.891833             0.00923945593            0.000527606933           
       1.894474             0.00858657023            0.000504194755           
       1.897114             0.00917450301            0.000504325708           
       1.899754             0.00765937601            0.000462732348           
       1.902395             0.00811950944            0.000467114105           
       1.905035             0.00919212532            0.000526418015           
       1.907676              0.0088339505            0.000486388134           
       1.910316             0.00848473037            0.000489333944           
       1.912956             0.00849967932            0.000478989938           
       1.915597             0.00847351918            0.000480925144           
       1.918237             0.00829269049            0.000491350403           
       1.920878             0.00833378689            0.000490550008           
       1.923518             0.00988662022            0.000534527739           
       1.926158             0.00977195085            0.000524522907           
       1.928799             0.00874096669             0.00049033981           
       1.931439              0.0086420911            0.000500346788           
       1.934079             0.00913434729            0.000536248722           
       1.936720             0.00761870681            0.000453761015           
       1.939360             0.00817780115            0.000501547975           
       1.942001             0.00893004105            0.000480371998           
       1.944641             0.00807966965            0.000465928441           
       1.947281             0.00946588229            0.000499667725           
       1.949922             0.00846343753            0.000488019613           
       1.952562             0.00880369275            0.000513334611           
       1.955202             0.00778445047            0.000482116923           
       1.957843             0.00878454113            0.000498869348           
       1.960483             0.00813636089            0.000501956245           
       1.963124             0.00926542208            0.000524663638           
       1.965764             0.00885297096            0.000483634725           
       1.968404             0.00747762275            0.000440282922           
       1.971045              0.0079364615            0.000462458909           
       1.973685             0.00850488029            0.000502155677           
       1.976326             0.00876897185            0.000502884662           
       1.978966             0.00876759178            0.000507257982           
       1.981606             0.00801327382            0.000495060247           
       1.984247             0.00804830234            0.000492879212           
       1.986887             0.00771327772            0.000476731767           
       1.989527             0.00829458183            0.000489045655           
       1.992168             0.00875526207            0.000521327114           
       1.994808             0.00858411021            0.000513993634           
       1.997449             0.00891280751             0.00051298611           
       2.000089             0.00794118178            0.000482298214           
       2.002729             0.00877116121            0.000507179774           
       2.005370             0.00756119164            0.000465833058           
       2.008010             0.00837157153            0.000511553177           
       2.010650             0.00855742398            0.000521059619           
       2.013291             0.00766595094            0.000473171781           
       2.015931             0.00813906405            0.000484107897           
       2.018572             0.00776949455            0.000505906787           
       2.021212             0.00819432981            0.000510219492           
       2.023852              0.0080195802            0.000477721896           
       2.026493             0.00872653293            0.000520598136           
       2.029133             0.00708479061            0.000459638456           
       2.031774              0.0082148852            0.000519429779           
       2.034414              0.0080408677            0.000472858231           
       2.037054             0.00838538253            0.000495121378           
       2.039695             0.00809555492            0.000482815346           
       2.042335             0.00873471317            0.000521181965           
       2.044975             0.00761862696            0.000480844231           
       2.047616             0.00790299731              0.0004885194           
       2.050256              0.0080223566            0.000496852554           
       2.052897             0.00754925404            0.000490865069           
       2.055537             0.00778304365            0.000481692203           
       2.058177              0.0080022069            0.000478301856           
       2.060818             0.00816946333            0.000506267542           
       2.063458              0.0086808237            0.000543842204           
       2.066098             0.00798276275            0.000491965889           
       2.068739             0.00750385572            0.000484394672           
       2.071379             0.00779875262             0.00050670017           
       2.074020             0.00743034906            0.000483838682           
       2.076660             0.00870603231            0.000527962184           
       2.079300             0.00775291734            0.000510432209           
       2.081941             0.00720083055            0.000450411194           
       2.084581             0.00736544929            0.000480816935           
       2.087222             0.00678759788            0.000445140778           
       2.089862              0.0076447816            0.000514529876           
       2.092502             0.00794379907            0.000508423996           
       2.095143             0.00770365514            0.000517027087           
       2.097783             0.00858597775            0.000528458182           
       2.100423             0.00821303401            0.000498036032           
       2.103064              0.0082320817            0.000517378223           
       2.105704             0.00682195661            0.000468652855           
       2.108345             0.00701249305            0.000456494491           
       2.110985             0.00725763689            0.000496018203           
       2.113625             0.00659295764            0.000476884875           
       2.116266             0.00734632246            0.000510536403           
       2.118906              0.0075765853            0.000483190385           
       2.121546             0.00779274242            0.000480678265           
       2.124187             0.00694623296            0.000476371241           
       2.126827             0.00768298407             0.00050658932           
       2.129468             0.00738738365            0.000498017163           
       2.132108             0.00747198877            0.000487299494           
       2.134748             0.00881799284            0.000527320288           
       2.137389              0.0080624008            0.000526028805           
       2.140029             0.00749139528            0.000453950368           
       2.142670             0.00845286946            0.000515339774           
       2.145310             0.00741340051            0.000469737282           
       2.147950              0.0080034278             0.00050235958           
       2.150591             0.00764350654            0.000485972459           
       2.153231             0.00767289039             0.00050119369           
       2.155871             0.00699041127            0.000462151626           
       2.158512             0.00822044573            0.000522930226           
       2.161152              0.0080550606            0.000501421446           
       2.163793             0.00739429282             0.00047825251           
       2.166433             0.00687632784             0.00047360155           
       2.169073             0.00808565608            0.000502127879           
       2.171714             0.00808210691            0.000498264842           
       2.174354             0.00737489169            0.000497340322           
       2.176995                 0.0069183            0.000479671904           
       2.179635             0.00815250864            0.000550234942           
       2.182275             0.00663906227            0.000468814346           
       2.184916             0.00736155265            0.000476816157           
       2.187556             0.00796222588            0.000490917676           
       2.190196             0.00806246744            0.000516221515           
       2.192837             0.00781968638            0.000505623689           
       2.195477              0.0073340487            0.000466843414           
       2.198118             0.00706532215            0.000469951787           
       2.200758             0.00654628376            0.000464094478           
       2.203398             0.00769387628            0.000506350301           
       2.206039              0.0075259512            0.000473959185           
       2.208679             0.00723064721            0.000475379285           
       2.211319             0.00751942851            0.000487574552           
       2.213960             0.00770351091            0.000500118763           
       2.216600             0.00699371309            0.000492951096           
       2.219241              0.0077243162            0.000495125248           
       2.221881             0.00735982615            0.000484295962           
       2.224521             0.00766149896             0.00050017661           
       2.227162             0.00686444603            0.000463965225           
       2.229802             0.00813908956            0.000521023472           
       2.232443             0.00732090007            0.000486347772           
       2.235083             0.00826065202            0.000531859662           
       2.237723             0.00700174157            0.000469898021           
       2.240364             0.00687940036             0.00047724938           
       2.243004             0.00788565645            0.000506883713           
       2.245644             0.00678797043            0.000474990376           
       2.248285             0.00821103634            0.000511947346           
       2.250925             0.00679432452            0.000468521621           
       2.253566             0.00720276405             0.00051572109           
       2.256206             0.00709766593            0.000501708357           
       2.258846             0.00784163195            0.000501653222           
       2.261487             0.00754012166            0.000516309818           
       2.264127             0.00690106667             0.00047704506           
       2.266767              0.0074750365            0.000509714854           
       2.269408             0.00773129978            0.000520501161           
       2.272048             0.00668325411             0.00048104899           
       2.274689             0.00739360152            0.000512635142           
       2.277329              0.0075391083            0.000487405467           
       2.279969             0.00648067192            0.000481019546           
       2.282610             0.00846482378            0.000534455559           
       2.285250             0.00705908883            0.000467143771           
       2.287891             0.00611777142            0.000466260701           
       2.290531             0.00704523961            0.000507083252           
       2.293171             0.00612625636            0.000460604568           
       2.295812             0.00763741485            0.000512217738           
       2.298452             0.00718010625            0.000519359634           
       2.301092             0.00739758719            0.000489802452           
       2.303733             0.00638506073            0.000473410207           
       2.306373             0.00721547869            0.000511180016           
       2.309014             0.00706603439            0.000495990473           
       2.311654             0.00736776094            0.000528524871           
       2.314294             0.00734604982            0.000486213946           
       2.316935             0.00795204219            0.000507961003           
       2.319575             0.00726776319            0.000508811333           
       2.322215             0.00703612709            0.000521748614           
       2.324856             0.00733804383            0.000489877354           
       2.327496             0.00753423565            0.000527810896           
       2.330137             0.00687650183            0.000482525779           
       2.332777             0.00625598364            0.000474556705           
       2.335417             0.00738793103            0.000500311402           
       2.338058             0.00762027107            0.000523296132           
       2.340698             0.00697049281            0.000496555403           
       2.343339             0.00720389298            0.000515908892           
       2.345979             0.00837684604            0.000526329004           
       2.348619             0.00696090484            0.000497326545           
       2.351260             0.00793518858            0.000527897631           
       2.353900             0.00653339014            0.000477487982           
       2.356540             0.00615814614            0.000462914959           
       2.359181             0.00760135624            0.000507095888           
       2.361821             0.00685255846            0.000465088997           
       2.364462             0.00770746261            0.000515875777           
       2.367102             0.00688491753            0.000501058265           
       2.369742             0.00695622082            0.000530122383           
       2.372383             0.00756020423            0.000500430185           
       2.375023             0.00695985255            0.000504741486           
       2.377663             0.00628816439            0.000458728283           
       2.380304             0.00699371096            0.000491845889           
       2.382944             0.00785715077            0.000496544645           
       2.385585             0.00735289765            0.000512298279           
       2.388225             0.00732494221            0.000508920796           
       2.390865             0.00744215619            0.000507707106           
       2.393506             0.00713331926            0.000487683355           
       2.396146             0.00729967955            0.000533418607           
       2.398787             0.00688141242            0.000477295091           
       2.401427             0.00640485454            0.000444461211           
       2.404067             0.00781190459            0.000501808986           
       2.406708              0.0073122026            0.000479672368           
       2.409348              0.0069463571            0.000495895221           
       2.411988             0.00604434505            0.000453225175           
       2.414629             0.00647103164            0.000483554484           
       2.417269             0.00632655663            0.000483708242           
       2.419910             0.00739365532            0.000524126333           
       2.422550             0.00683875755            0.000482267685           
       2.425190             0.00677660505            0.000506045168           
       2.427831             0.00676268364            0.000502683375           
       2.430471             0.00729171832            0.000497282272           
       2.433112             0.00706157555            0.000476531374           
       2.435752             0.00745575446            0.000518203449           
       2.438392              0.0068404259            0.000479088052           
       2.441033             0.00717405905            0.000519971747           
       2.443673             0.00601918323            0.000476650226           
       2.446313              0.0067683579            0.000505889219           
       2.448954             0.00709185415            0.000493053876           
       2.451594             0.00671838594             0.00051600013           
       2.454235             0.00634305494            0.000470421982           
       2.456875             0.00656624263            0.000500814974           
       2.459515              0.0076673786            0.000555190425           
       2.462156             0.00777559294            0.000527863137           
       2.464796             0.00800347543            0.000528633046           
       2.467436             0.00701933094            0.000511956105           
       2.470077             0.00697072304             0.00048355843           
       2.472717             0.00727366176            0.000496093806           
       2.475358             0.00754728693            0.000510608047           
       2.477998              0.0078460463            0.000511839331           
       2.480638             0.00631333243            0.000467290336           
       2.483279             0.00671959077            0.000503861784           
       2.485919             0.00739862976            0.000509530773           
       2.488560             0.00766601062            0.000517206881           
       2.491200             0.00747880854            0.000526043395           
       2.493840             0.00704405683            0.000540202028           
       2.496481             0.00744364538            0.000546229016           
       2.499121             0.00651464678             0.00049703651           
       2.501761             0.00801130096            0.000558484054           
       2.504402             0.00724270706            0.000523260425           
       2.507042             0.00681470338            0.000503804116           
       2.509683             0.00812282435            0.000541630334           
       2.512323             0.00749358683            0.000546369394           
       2.514963             0.00740914436            0.000536570292           
       2.517604             0.00714592186            0.000546794583           
       2.520244             0.00683671976            0.000501407798           
       2.522884             0.00751384336             0.00053316925           
       2.525525              0.0106702415            0.000642573356           
       2.528165             0.00734974025            0.000524987084           
       2.530806             0.00830355725            0.000567739821           
       2.533446             0.00739167606            0.000524226103           
       2.536086             0.00803454945             0.00054165573           
       2.538727             0.00639006251            0.000463416299           
       2.541367             0.00715299182            0.000495130511           
       2.544008             0.00671200099            0.000495335567           
       2.546648             0.00714852414            0.000519957507           
       2.549288              0.0071671715            0.000531243613           
       2.551929             0.00739151751            0.000530894391           
       2.554569             0.00660611563            0.000483535549           
       2.557209             0.00636332933            0.000478925303           
       2.559850             0.00673837398            0.000494419413           
       2.562490              0.0067307818            0.000510721051           
       2.565131             0.00858410771            0.000598015488           
       2.567771             0.00649046927            0.000501357564           
       2.570411             0.00644046892               0.000494019           
       2.573052             0.00667590085            0.000509301585           
       2.575692             0.00724832589            0.000527474028           
       2.578332             0.00641959689            0.000498457713           
       2.580973             0.00635610122            0.000491267337           
       2.583613             0.00647093203             0.00048388242           
       2.586254             0.00685328642            0.000497281016           
       2.588894             0.00782256576            0.000551713473           
       2.591534             0.00700473676            0.000540448069           
       2.594175             0.00609666524            0.000494687057           
       2.596815             0.00703441511            0.000534504736           
       2.599456             0.00643687483            0.000484862634           
       2.602096             0.00700509716             0.00050966038           
       2.604736             0.00742232699             0.00053705864           
       2.607377             0.00729441264            0.000518380004           
       2.610017             0.00753464449            0.000517627305           
       2.612657             0.00676182809            0.000521575187           
       2.615298             0.00678635206            0.000510144057           
       2.617938             0.00635314664            0.000528018473           
       2.620579             0.00589533891            0.000488287625           
       2.623219             0.00665305582            0.000517979289           
       2.625859             0.00681636967            0.000509764927           
       2.628500                0.00692761            0.000510539208           
       2.631140             0.00767375295            0.000545609596           
       2.633780             0.00736368559            0.000534008299           
       2.636421             0.00653881266            0.000515585576           
       2.639061             0.00648237859            0.000483265519           
       2.641702              0.0067000841             0.00050268776           
       2.644342             0.00741309401            0.000531012229           
       2.646982             0.00723899499            0.000516894944           
       2.649623             0.00701362747            0.000533186489           
       2.652263             0.00623292783             0.00049759235           
       2.654904               0.007047581            0.000529644393           
       2.657544             0.00744028503            0.000512580649           
       2.660184             0.00675898532            0.000517027159           
       2.662825             0.00724160022            0.000547583483           
       2.665465             0.00681452265            0.000513749282           
       2.668105             0.00679585614            0.000540769269           
       2.670746             0.00726498205            0.000516510216           
       2.673386              0.0107305612            0.000646926055           
       2.676027              0.0107961135            0.000638484693           
       2.678667             0.00854747886             0.00055433762           
       2.681307             0.00911004975            0.000562306895           
       2.683948              0.0122151403            0.000668997511           
       2.686588               0.011043717            0.000625561996           
       2.689229              0.0113928256             0.00062085978           
       2.691869              0.0101883162            0.000620530509           
       2.694509             0.00810722268            0.000553842853           
       2.697150             0.00769192169            0.000530718411           
       2.699790             0.00726974013            0.000540897653           
       2.702430             0.00746269065            0.000523849643           
       2.705071             0.00678354811            0.000516081814           
       2.707711             0.00736758906            0.000522013665           
       2.710352             0.00602329947            0.000498720649           
       2.712992             0.00707399394            0.000550464408           
       2.715632             0.00707675258            0.000510821333           
       2.718273             0.00720398935            0.000534135524           
       2.720913             0.00743313628            0.000541020236           
       2.723553             0.00726557464            0.000538476331           
       2.726194             0.00780472758            0.000583396426           
       2.728834             0.00759719861            0.000575857914           
       2.731475             0.00735116549            0.000522789842           
       2.734115             0.00714246715             0.00053130849           
       2.736755             0.00726837726            0.000540382557           
       2.739396             0.00606047969            0.000490583049           
       2.742036             0.00700503462             0.00055198816           
       2.744677             0.00692161204            0.000532382027           
       2.747317             0.00697801745             0.00053073515           
       2.749957               0.007479607            0.000553335298           
       2.752598             0.00722344253              0.0005496787           
       2.755238             0.00797102121            0.000587846384           
       2.757878             0.00819042334            0.000590671756           
       2.760519             0.00779427995            0.000570100626           
       2.763159              0.0074576265            0.000552079971           
       2.765800             0.00671610363            0.000499282292           
       2.768440             0.00824496177            0.000557274876           
       2.771080             0.00932157188            0.000597488804           
       2.773721             0.00720642012            0.000538897384           
       2.776361             0.00687053205            0.000533447938           
       2.779001             0.00811398145            0.000600352685           
       2.781642             0.00665090071            0.000539532109           
       2.784282             0.00714395728            0.000568368395           
       2.786923              0.0078262564            0.000600129073           
       2.789563             0.00728528209            0.000557660739           
       2.792203             0.00766536575            0.000546445101           
       2.794844              0.0069477092            0.000570170829           
       2.797484             0.00660765244            0.000524768201           
       2.800125             0.00708627907            0.000571429244           
       2.802765             0.00711498351            0.000562735016           
       2.805405             0.00671346967            0.000548476396           
       2.808046             0.00583417234            0.000520286327           
       2.810686             0.00684373676            0.000517797544           
       2.813326             0.00717865393            0.000550852112           
       2.815967             0.00741518849            0.000575772029           
       2.818607             0.00642704666            0.000511526746           
       2.821248             0.00795522633            0.000557285341           
       2.823888             0.00764357332            0.000567031943           
       2.826528             0.00704799626            0.000527314371           
       2.829169             0.00696971695            0.000549256415           
       2.831809              0.0061276694             0.00052201474           
       2.834449             0.00638865457            0.000536383961           
       2.837090             0.00616699505            0.000508995213           
       2.839730             0.00673670324            0.000529389102           
       2.842371             0.00730849309            0.000552193832           
       2.845011              0.0062194126            0.000513452589           
       2.847651             0.00625952317            0.000515738249           
       2.850292             0.00680244775             0.00054291616           
       2.852932             0.00637857867            0.000537186621           
       2.855573             0.00621501708            0.000514361853           
       2.858213             0.00618995998             0.00053905238           
       2.860853             0.00710287989            0.000537148665           
       2.863494             0.00604305259            0.000512975985           
       2.866134             0.00713607915            0.000579390513           
       2.868774             0.00681002935            0.000556261484           
       2.871415             0.00754775282            0.000594738367           
       2.874055             0.00741391597            0.000563433094           
       2.876696             0.00633020171            0.000534709979           
       2.879336             0.00689379002            0.000537810095           
       2.881976             0.00682273665             0.00055184795           
       2.884617             0.00639941635            0.000526604706           
       2.887257             0.00744404023            0.000570893083           
       2.889897             0.00717039912            0.000548770328           
       2.892538             0.00791560559             0.00063164761           
       2.895178             0.00795339274             0.00057201198           
       2.897819             0.00619530128            0.000514992594           
       2.900459             0.00707649455            0.000539693516           
       2.903099             0.00652455256            0.000512914616           
       2.905740             0.00725926933            0.000555021019           
       2.908380             0.00742401376            0.000567661092           
       2.911021             0.00677366565            0.000551043348           
       2.913661             0.00683953535            0.000553550253           
       2.916301             0.00691343566            0.000557063471           
       2.918942             0.00701623288            0.000536791779           
       2.921582             0.00669965503            0.000548821811           
       2.924222              0.0073443602            0.000556698045           
       2.926863             0.00678299612            0.000557263885           
       2.929503             0.00740210172             0.00058903713           
       2.932144             0.00734551054            0.000563274001           
       2.934784             0.00694509983            0.000538725763           
       2.937424             0.00692112404            0.000543316504           
       2.940065             0.00729930492            0.000532243905           
       2.942705             0.00682227446            0.000513912681           
       2.945346             0.00725234866            0.000562319368           
       2.947986              0.0078537473             0.00059667105           
       2.950626             0.00708138967            0.000563382833           
       2.953267             0.00623600342            0.000520143518           
       2.955907             0.00784885226            0.000605345989           
       2.958547             0.00699819623            0.000539621502           
       2.961188             0.00661877353            0.000547501738           
       2.963828             0.00636457161            0.000525172851           
       2.966469             0.00793816064            0.000575367192           
       2.969109             0.00635472317            0.000522421453           
       2.971749             0.00716218271            0.000551159907           
       2.974390             0.00806820564            0.000574853053           
       2.977030             0.00779689259            0.000577734075           
       2.979670             0.00785786522            0.000564150637           
       2.982311             0.00895577915            0.000624227225           
       2.984951             0.00772750542            0.000551482035           
       2.987592             0.00733200179            0.000547943254           
       2.990232             0.00838167985            0.000609282463           
       2.992872             0.00844087139            0.000575932561           
       2.995513             0.00989064414            0.000609923369           
       2.998153              0.0130190828            0.000711523521           
       3.000794              0.0107625368            0.000626616865           
       3.003434              0.0100585359            0.000606690754           
       3.006074              0.0215559656            0.000875696541           
       3.008715              0.0776515847               0.001604403           
       3.011355               0.247711989             0.00276334022           
       3.013995               0.193200722             0.00244706339           
       3.016636                0.10385196             0.00175685525           
       3.019276               0.135036743              0.0019692422           
       3.021917               0.501624204             0.00364950187           
       3.024557                1.19906097             0.00554746998           
       3.027197                 1.0864913             0.00514835662           
       3.029838               0.676666011             0.00412059257           
       3.032478                0.26789723             0.00259536213           
       3.035118              0.0726046706             0.00136925368           
       3.037759              0.0695520234              0.0013384305           
       3.040399              0.0943705815             0.00160819613           
       3.043040               0.332380157             0.00305512642           
       3.045680               0.386525366             0.00309973665           
       3.048320               0.126615769             0.00181270387           
       3.050961               0.148977811             0.00200091893           
       3.053601               0.113402395             0.00168136024           
       3.056242               0.111747726             0.00177455335           
       3.058882               0.137104907             0.00210851034           
       3.061522               0.110801772             0.00185970633           
       3.064163               0.130757673             0.00199480788           
       3.066803               0.173922546             0.00242206046           
       3.069443              0.0955584427             0.00187836333           
       3.072084              0.0482089475             0.00129911867           
       3.074724              0.0374449506              0.0012786333           
       3.077365              0.0250967197             0.00108360611           
       3.080005              0.0104382283             0.00070279771           
       3.082645               0.014540532            0.000871390477           
       3.085286              0.0123953588            0.000810896077           
       3.087926              0.0114369013            0.000772911365           
       3.090566              0.0101979955            0.000715110986           
       3.093207              0.0126359652            0.000828334075           
       3.095847             0.00956590492            0.000690795527           
       3.098488             0.00770745109            0.000687553333           
       3.101128             0.00989436958             0.00078402355           
       3.103768             0.00920178151             0.00074186101           
       3.106409             0.00966315756             0.00080909129           
       3.109049              0.0084753259            0.000727158831           
       3.111690              0.0082434372            0.000704831065           
       3.114330             0.00833319648            0.000723733467           
       3.116970             0.00754202663            0.000693806363           
       3.119611              0.0104507305            0.000869333322           
       3.122251              0.0169651939             0.00115861205           
       3.124891              0.0350291883               0.001680352           
       3.127532              0.0265452039             0.00143102216           
       3.130172              0.0183313019             0.00120973495           
       3.132813              0.0106268191            0.000906767037           
       3.135453             0.00759360982            0.000760196798           
       3.138093             0.00643458356            0.000758237426           
       3.140734             0.00646270703            0.000701059447           
       3.143374             0.00628007397            0.000730850125           
       3.146014             0.00678904855            0.000818055622           
       3.148655             0.00545379577            0.000681585697           
       3.151295             0.00648049102            0.000791757437           
       3.153936             0.00629962911            0.000754065816           
       3.156576             0.00676731383            0.000770924926           
       3.159216             0.00709107307            0.000793097806           
       3.161857             0.00693908649            0.000781359378           
       3.164497             0.00532126721            0.000718937018           
       3.167138              0.0083995004            0.000933282143           
       3.169778             0.00610802645            0.000782735222           
       3.172418             0.00628291389            0.000785787069           
       3.175059             0.00640081971            0.000703139668           
       3.177699              0.0061439486            0.000729488988           
       3.180339             0.00535526288             0.00072970294           
       3.182980             0.00635798844            0.000822040895           
       3.185620               0.006170629            0.000824751298           
       3.188261             0.00559351277            0.000799249574           
       3.190901             0.00628440766            0.000779153582           
       3.193541             0.00530884313            0.000752478147           
       3.196182             0.00625958875            0.000851519014           
       3.198822             0.00645914488             0.00086527569           
       3.201463              0.0076168056            0.000923434163           
       3.204103              0.0060925419            0.000820858678           
       3.206743             0.00563966842            0.000789687297           
       3.209384             0.00631807484             0.00090304876           
       3.212024             0.00605594798            0.000824274607           
       3.214664             0.00623849268            0.000951339591           
       3.217305             0.00536516205            0.000838630853           
       3.219945             0.00500117144            0.000833373301           
       3.222586             0.00566851609            0.000845076087           
       3.225226             0.00527772449            0.000904587972           
       3.227866             0.00514224521            0.000816103544           
       3.230507              0.0059597011            0.000910743697           
       3.233147             0.00752314718             0.00103151725           
       3.235787             0.00753360037             0.00105636215           
       3.238428             0.00741877013              0.0011312273           
       3.241068              0.0057011321            0.000927254951           
       3.243709             0.00658682061             0.00102973066           
       3.246349             0.00562980029            0.000867827313           
       3.248989             0.00615974342             0.00107185523           
       3.251630             0.00708368902             0.00110687493           
       3.254270             0.00371500233            0.000716397604           
       3.256911             0.00606911268            0.000999093431           
       3.259551              0.0057069421             0.00104302628           
       3.262191             0.00516147254             0.00101320532           
       3.264832             0.00650960791             0.00118889114           
       3.267472             0.00495510563            0.000973069256           
       3.270112             0.00696633969             0.00127506398           
       3.272753             0.00625842345             0.00110620829           
       3.275393             0.00568331607             0.00107560749           
       3.278034             0.00733755779             0.00122284981           
       3.280674              0.0072069226             0.00131509642           
       3.283314             0.00555006059             0.00103214602           
       3.285955             0.00573256164             0.00108231564           
       3.288595             0.00533590051              0.0011617109           
       3.291235             0.00424328323             0.00106496348           
       3.293876             0.00605266509             0.00129018915           
       3.296516             0.00328595944            0.000912625382           
       3.299157             0.00541444124             0.00115676921           
       3.301797             0.00546729309             0.00132593347           
       3.304437             0.00721952643             0.00132007556           
       3.307078             0.00612232894             0.00133909551           
       3.309718             0.00436159373             0.00116662459           
       3.312359             0.00498264229             0.00124721559           
       3.314999             0.00757841868             0.00151444253           
       3.317639             0.00638773185              0.0013297378           
       3.320280             0.00501112817             0.00125221241           
       3.322920             0.00714364315             0.00152026356           
       3.325560             0.00543764119             0.00132726987           
       3.328201             0.00836650414             0.00148274961           
       3.330841             0.00423544802             0.00128398032           
       3.333482             0.00484906603             0.00129859893           
       3.336122             0.00449667112             0.00125109746           
       3.338762             0.00554306109             0.00160457725           
       3.341403             0.00461353945             0.00139878766           
       3.344043             0.00621382345             0.00155855693           
       3.346683             0.00324295248             0.00114948835           
       3.349324             0.00411450351             0.00145574873           
       3.351964             0.00751433438             0.00208035771           
       3.354605              0.0075353036             0.00238252435           
       3.357245             0.00489167946             0.00173170426           
       3.359885             0.00825614086             0.00180060665           
       3.362526             0.00490531717             0.00173564971           
       3.365166             0.00438421539             0.00154765911           
       3.367807             0.00985371568             0.00296941148           
       3.370447             0.00613976734             0.00194432988           
       3.373087             0.00413490757             0.00170629514           
       3.375728             0.00531596855             0.00218349238           
       3.378368             0.00981891871             0.00440415109           
       3.381008             0.00327755008             0.00189706924           
       3.383649             0.00353095549             0.00157957079           
       3.386289             0.00196899525             0.00139603353           
       3.388930             0.00248494792             0.00248070702           
       3.391570             0.00738642246             0.00302549465           
       3.394210             0.00195958914             0.00197211301           
       3.396851              0.0098505411             0.00494598877           
       3.399491             0.00959909689             0.00488382801           
       3.402131             0.00977700558             0.00697340026           
       3.404772             0.00970986091             0.00983032656           
       3.407412                       nan                       nan           
       3.410053             0.00931241142              0.0096388827           
       3.412693                       nan                       nan           
       3.415333           -2.67009548e-05                         0           
