################################################################################
# EDF_DataBlockID                     0.Image.Psd
# EDF_BinarySize                      4366944
# EDF_HeaderSize                      2560
# ByteOrder                           LowByteFirst
# DataType                            FloatValue
# Dim_1                               1028
# Dim_2                               1062
# Image                               0
# HeaderID                            EH:000000:000000:000000
# Size                                4366944
# Center_1                            607.5200
# Center_2                            651.5500
# Comment                             Xenocs_Cell_Window - 20251028_20perc_iodine_1.23mg
# DDummy                              0.6
# Date                                2025-10-28T19:01:43
# Delta                               0
# Dummy                               -1.5
# ExposureTime                        360
# Gamma                               0
# Intensity1                          8.52159e-10
# PSize_1                             7.5e-05
# PSize_2                             7.5e-05
# Pressure                            0.0350828
# SampleDistance                      0.450002
# SampleEnvKind                       large
# SampleEnvPN                         ElectroChemical cell
# SampleEnvSN                         1141
# Thickness                           0
# Wavelength                          1.541891e-10
# Wavelength                          1.54189e-10
# aux                                 0
# aux_dial                            0.002375
# beamx                               588.434
# beamx_dial                          588.434
# beamz                               657.808
# beamz_dial                          657.808
# det0x                               0
# det0x_dial                          6.36945
# det0xvd                             0
# det0xvd_dial                        0
# det0y                               450.002
# det0y_dial                          481.635
# det0z                               0
# det0z_dial                          1.23302
# det0zvd                             0
# det0zvd_dial                        0
# mag                                 1.818
# mag_dial                            1.818
# om                                  0.2499
# om_dial                             -0.610199
# phi                                 -0.0120535
# phi_dial                            0
# ry                                  0.599993
# ry_dial                             0.599993
# s1bot                               0.8
# s1bot_dial                          -1.66094
# s1hl                                0.8
# s1hl_dial                           -0.608437
# s1hr                                0.8
# s1hr_dial                           0.970938
# s1top                               0.8
# s1top_dial                          -0.461562
# s2bot                               0.45
# s2bot_dial                          1.36109
# s2hl                                0.45
# s2hl_dial                           -0.83375
# s2hr                                0.45
# s2hr_dial                           -0.118594
# s2top                               0.45
# s2top_dial                          1.44734
# w2theta                             32
# w2theta_dial                        32
# waxsch                              19.2605
# waxsch_dial                         -32.7355
# waxsh                               137.085
# waxsh_dial                          -43.5338
# waxsth                              26.0607
# waxsth_dial                         -19.4086
# waxsz                               67.0407
# waxsz_dial                          -23.7954
# wind                                65.9854
# wind_dial                           66.0041
# wpsi                                124
# wpsi_dial                           124
# wstod                               115
# wstod_dial                          115
# x                                   0
# x_dial                              1.00969
# z                                   0
# z_dial                              13.3172
# CountCutoff                         15302352
# DetectorModel                       Dectris EIGER2 Si 1M, S/N E-02-0362
# ThresholdSetting                    4023.88989258
# Saturation                          0
# FlatField                           Corrected
# BackgroundReductionExtra            0.02
# BackgroundCorrectionConstant        0.0026712
# Detector                            0
# Monitor                             0
# Pil_Roi0                            0
# SumForIntensity1                    3.06777e+08
# TransmittedFlux                     852159
# det                                 0
# mon                                 0
# pilai0                              3.06777e+08
# pilai1                              799970
# pilct0                              5.31238e+08
# pilct1                              799970
# pilroi0                             0
# pilroi1                             0
# sec                                 1
# title                               20251028_20perc_iodine_1.23mg_0_00042.edf
# usaxs0                              0
# Operation                           Azimuthal average I(q)
# Error_model                         ErrorModel.poisson
# Geometrical_correction              True
# Transmission_correction             True
# Thickness_correction                False
# Binning mode                        Uniform
# Binning factor                      1.0
# Psi                                 0.0
# Omega                               0.2499
# MaskInvalidPixels                   True
# DetectorEdge                        3
# MaskFiles                           ['20251028_20perc_iodine_1.23mg_0_00012_mask.edf']
################################################################################
    q(A⁻¹)                Intensity(a.u.)            Sigma_I(a.u.)            
       0.000340                368274.756                120.023688           
       0.001019                358282.938                72.4952752           
       0.001698                349760.068                50.6485234           
       0.002377                330877.955                44.0616379           
       0.003056                308034.179                35.9304146           
       0.003735                  253635.2                28.7538096           
       0.004415                205368.661                25.8736571           
       0.005094                 153438.67                19.3681839           
       0.005773                101331.778                14.5720641           
       0.006452                59058.2471                10.6590324           
       0.007131                32334.3124                7.64042892           
       0.007810                16119.1452                5.35354958           
       0.008490                7976.45567                 3.3381692           
       0.009169                3831.11513                2.28642326           
       0.009848                1174.82302                1.22415334           
       0.010527                455.077805               0.761890725           
       0.011206                116.258811               0.367532973           
       0.011885                54.4996648                0.23380207           
       0.012564                 25.517575               0.164249065           
       0.013244                17.3993076               0.126797053           
       0.013923                12.6338834               0.109789618           
       0.014602                9.56693722              0.0886062237           
       0.015281                7.74039308              0.0811312464           
       0.015960                6.18568371              0.0720072828           
       0.016639                5.19510384              0.0623152448           
       0.017319                4.16518608              0.0549296928           
       0.017998                3.61192783              0.0489362698           
       0.018677                3.00968116              0.0462665081           
       0.019356                2.57498308              0.0422856269           
       0.020035                2.25467599              0.0371228159           
       0.020714                1.94632608              0.0348561067           
       0.021394                1.65491717              0.0304108851           
       0.022073                1.49368161              0.0300593307           
       0.022752                1.29360804               0.026759942           
       0.023431                1.12516737              0.0242253285           
       0.024110                1.03289893              0.0241989617           
       0.024789               0.949898194              0.0215519489           
       0.025469               0.848158806              0.0209864352           
       0.026148               0.793691149              0.0190748351           
       0.026827               0.693717426               0.018118456           
       0.027506               0.638600741              0.0176344784           
       0.028185               0.584721819              0.0160919574           
       0.028864               0.552921834              0.0155604589           
       0.029544               0.521987015              0.0146610861           
       0.030223               0.472251399              0.0141451081           
       0.030902               0.440065232              0.0137795299           
       0.031581               0.392195938              0.0123660058           
       0.032260               0.366226511               0.012153193           
       0.032939                0.33168306              0.0111519894           
       0.033619               0.324812629              0.0111980762           
       0.034298               0.281174454              0.0101391157           
       0.034977               0.263142762             0.00961585884           
       0.035656               0.243779832             0.00950026665           
       0.036335                0.24147889             0.00917048098           
       0.037014               0.203268165             0.00843880067           
       0.037693               0.209988104             0.00825111266           
       0.038373               0.188627622             0.00789694201           
       0.039052               0.183857899             0.00782963145           
       0.039731               0.167418744             0.00729728648           
       0.040410               0.164656517             0.00718831787           
       0.041089               0.166323695             0.00711144926           
       0.041768               0.164617903             0.00711185114           
       0.042448               0.137691676             0.00645379112           
       0.043127               0.138498555             0.00631980208           
       0.043806               0.134548968             0.00627548401           
       0.044485               0.134513936             0.00614576437           
       0.045164               0.123485947             0.00600450659           
       0.045843               0.113819882             0.00552905805           
       0.046523               0.112277547             0.00551043187           
       0.047202               0.112216972             0.00554744084           
       0.047881              0.0993638668             0.00511942025           
       0.048560               0.109041558             0.00541181724           
       0.049239              0.0985859481             0.00494091601           
       0.049918              0.0898225295             0.00480840104           
       0.050598               0.099363756             0.00498146262           
       0.051277              0.0895426132             0.00471386856           
       0.051956              0.0928014143             0.00476874468           
       0.052635              0.0793697467             0.00431656648           
       0.053314              0.0876908969             0.00466985709           
       0.053993               0.086766328              0.0045177696           
       0.054673               0.093783657             0.00459228189           
       0.055352               0.079780919             0.00429781017           
       0.056031              0.0808806619             0.00423640715           
       0.056710              0.0779395015             0.00426057496           
       0.057389              0.0703115427             0.00390229279           
       0.058068              0.0724314702             0.00400151201           
       0.058748              0.0793493586             0.00424049072           
       0.059427              0.0669295687             0.00382857771           
       0.060106              0.0720535664             0.00401002707           
       0.060785              0.0685858225             0.00379511843           
       0.061464              0.0645859793             0.00377156173           
       0.062143              0.0661443612             0.00377802036           
       0.062822              0.0582219762             0.00350295748           
       0.063502              0.0590946536             0.00352280723           
       0.064181              0.0635019531             0.00361324896           
       0.064860              0.0673113592               0.003776708           
       0.065539              0.0652553954             0.00368222065           
       0.066218              0.0588504519             0.00342197217           
       0.066897              0.0551178962             0.00333724137           
       0.067577              0.0578449156             0.00345164674           
       0.068256              0.0587768834             0.00356480965           
       0.068935              0.0479468154             0.00316762133           
       0.069614              0.0489023113              0.0032308739           
       0.070293              0.0541791857             0.00343208373           
       0.070972              0.0495241796             0.00325730738           
       0.071652              0.0520839062             0.00334655321           
       0.072331              0.0462929632             0.00309879962           
       0.073010              0.0434109343             0.00306935484           
       0.073689              0.0459765921             0.00314139704           
       0.074368              0.0427911861             0.00302510912           
       0.075047              0.0469670143             0.00313521336           
       0.075727              0.0477729951              0.0031424701           
       0.076406              0.0409071618             0.00296592021           
       0.077085              0.0447389259             0.00304375289           
       0.077764              0.0428482008             0.00296830455           
       0.078443              0.0430988674             0.00299540592           
       0.079122               0.044705749             0.00302142735           
       0.079802              0.0454697881             0.00307945424           
       0.080481              0.0405622617             0.00281041893           
       0.081160              0.0435980205             0.00297347923           
       0.081839              0.0398987227             0.00279899345           
       0.082518               0.041117524             0.00284381584           
       0.083197              0.0396867974             0.00275048978           
       0.083876               0.038739371             0.00267230601           
       0.084556              0.0366382581             0.00267110295           
       0.085235              0.0412478636             0.00277940021           
       0.085914              0.0380433624             0.00269518315           
       0.086593              0.0340018433             0.00253160466           
       0.087272              0.0367885454             0.00259608134           
       0.087951              0.0330045839              0.0025144918           
       0.088631              0.0404033017             0.00268733272           
       0.089310              0.0398528902             0.00272557243           
       0.089989              0.0354578951             0.00254083876           
       0.090668              0.0360996179             0.00259202687           
       0.091347              0.0357659742             0.00259446604           
       0.092026              0.0333566711             0.00239490738           
       0.092706              0.0345629119              0.0025263111           
       0.093385              0.0316755582             0.00238134824           
       0.094064              0.0359567858             0.00256670869           
       0.094743              0.0326669385             0.00240919059           
       0.095422              0.0300823521             0.00228613976           
       0.096101              0.0271634339             0.00221713826           
       0.096781              0.0358122098             0.00250930047           
       0.097460              0.0333163276             0.00235425841           
       0.098139              0.0352841274             0.00240414492           
       0.098818              0.0291281918             0.00215747732           
       0.099497              0.0305553774             0.00221423678           
       0.100176               0.026958887             0.00202525992           
       0.100856              0.0304533145             0.00215114006           
       0.101535              0.0306235664             0.00215298438           
       0.102214              0.0301943661             0.00213785696           
       0.102893              0.0316671917             0.00216443124           
       0.103572              0.0302267946             0.00208339408           
       0.104251              0.0338602525             0.00221320632           
       0.104931              0.0270275692             0.00195933345           
       0.105610              0.0300508076             0.00207482539           
       0.106289              0.0277280001             0.00195985788           
       0.106968              0.0276221965             0.00196192044           
       0.107647              0.0280706973             0.00197897116           
       0.108326              0.0263905497             0.00189316269           
       0.109005              0.0298112605             0.00199946035           
       0.109685              0.0279132259             0.00191306023           
       0.110364              0.0268550631             0.00189776139           
       0.111043              0.0258160588             0.00185331019           
       0.111722              0.0257242265             0.00182739876           
       0.112401              0.0258542522             0.00183710585           
       0.113080              0.0238576006             0.00174452035           
       0.113760               0.027302096             0.00189738137           
       0.114439              0.0256598726             0.00181318072           
       0.115118              0.0225083172             0.00168538166           
       0.115797              0.0265116365             0.00184607712           
       0.116476              0.0264475778             0.00181624848           
       0.117155              0.0270385257             0.00185123912           
       0.117835              0.0270069725             0.00181337793           
       0.118514              0.0245589846             0.00175116709           
       0.119193              0.0254229674             0.00178171664           
       0.119872              0.0275226344             0.00183064794           
       0.120551              0.0251086071              0.0017368751           
       0.121230              0.0222611289             0.00161896809           
       0.121910              0.0252294026             0.00174018478           
       0.122589              0.0256030161             0.00175482874           
       0.123268              0.0255510978             0.00171908618           
       0.123947              0.0242525355             0.00168566449           
       0.124626              0.0250340351             0.00169166831           
       0.125305              0.0227135572             0.00161926662           
       0.125985               0.025337056             0.00169695694           
       0.126664              0.0217310459             0.00155659779           
       0.127343              0.0205320301             0.00153058385           
       0.128022              0.0256227539              0.0016967201           
       0.128701              0.0225544653             0.00158359941           
       0.129380              0.0227671712             0.00157112203           
       0.130059              0.0241225044             0.00162096632           
       0.130739              0.0234969229             0.00161105987           
       0.131418              0.0232782252             0.00159905536           
       0.132097              0.0207714302             0.00149113169           
       0.132776              0.0220189848             0.00152832706           
       0.133455              0.0237620966             0.00160000411           
       0.134134              0.0210895471             0.00150254366           
       0.134814              0.0247205148             0.00160999366           
       0.135493               0.022054886             0.00152686922           
       0.136172              0.0209851888             0.00147813775           
       0.136851              0.0179936277             0.00137669054           
       0.137530              0.0236426897             0.00154057463           
       0.138209              0.0227894208             0.00153027713           
       0.138889              0.0196840461             0.00142846894           
       0.139568              0.0223537664             0.00152160256           
       0.140247              0.0203991446             0.00145165142           
       0.140926              0.0203112442             0.00140710303           
       0.141605              0.0209946854             0.00146692552           
       0.142284              0.0190097121             0.00137272738           
       0.142964              0.0193455223             0.00139009561           
       0.143643               0.020072286             0.00141417739           
       0.144322              0.0219075409             0.00144649892           
       0.145001              0.0221667118             0.00148489612           
       0.145680              0.0194668265             0.00135860992           
       0.146359              0.0179287546             0.00130860327           
       0.147039              0.0192680381             0.00136776833           
       0.147718              0.0193089734             0.00134662665           
       0.148397              0.0233113463             0.00150261613           
       0.149076              0.0191953707             0.00132122469           
       0.149755              0.0210509843             0.00140497683           
       0.150434              0.0205152544             0.00138754997           
       0.151114              0.0203642537              0.0013747877           
       0.151793              0.0212123827              0.0014031372           
       0.152472              0.0218774404             0.00139979254           
       0.153151              0.0207541842             0.00137656519           
       0.153830              0.0194497608             0.00132289482           
       0.154509              0.0190257783             0.00130293754           
       0.155188              0.0177634681             0.00125850722           
       0.155868              0.0188485057             0.00128714882           
       0.156547              0.0185364945              0.0012846502           
       0.157226              0.0190493416             0.00127049202           
       0.157905              0.0192902116             0.00128923803           
       0.158584              0.0188796389             0.00127312704           
       0.159263              0.0212862114             0.00135681027           
       0.159943              0.0208820078             0.00134486858           
       0.160622              0.0184017887             0.00123811375           
       0.161301              0.0173974812             0.00121995557           
       0.161980              0.0193267135             0.00126395921           
       0.162659              0.0186782629             0.00125634658           
       0.163338              0.0172983587             0.00119919389           
       0.164018              0.0198340731             0.00127734286           
       0.164697              0.0178384965             0.00122693525           
       0.165376              0.0195999313             0.00125798599           
       0.166055              0.0176749565              0.0012024928           
       0.166734              0.0212586934             0.00131287018           
       0.167413              0.0185166107             0.00122613477           
       0.168093              0.0201850602             0.00129229395           
       0.168772              0.0187710909             0.00120976417           
       0.169451              0.0201207941              0.0012755462           
       0.170130              0.0184983085             0.00120698085           
       0.170809              0.0170998172             0.00117430871           
       0.171488              0.0178980172             0.00119045171           
       0.172168              0.0163045749             0.00112530887           
       0.172847              0.0175267451              0.0011820487           
       0.173526              0.0165503962             0.00112674087           
       0.174205              0.0174842788             0.00116342736           
       0.174884              0.0181971258             0.00118072208           
       0.175563              0.0195041737             0.00122760992           
       0.176243               0.017731446             0.00118220658           
       0.176922              0.0182874465             0.00116931106           
       0.177601              0.0175692432              0.0011587155           
       0.178280              0.0161952409             0.00110006626           
       0.178959              0.0179402802             0.00116712923           
       0.179638              0.0167333749              0.0011239414           
       0.180317              0.0177751203              0.0011499601           
       0.180997              0.0154778483             0.00107890368           
       0.181676              0.0177977025             0.00114458256           
       0.182355              0.0188961969             0.00118645943           
       0.183034              0.0182127906             0.00114611267           
       0.183713               0.018224843             0.00116045434           
       0.184392              0.0193020683             0.00119389653           
       0.185072              0.0172119175             0.00111455495           
       0.185751              0.0170088388             0.00111104257           
       0.186430              0.0178409491             0.00112992552           
       0.187109               0.018413853             0.00116070827           
       0.187788               0.016795034             0.00110578111           
       0.188467              0.0171493108             0.00110415975           
       0.189147              0.0159294192             0.00107494067           
       0.189826               0.018022973             0.00112317927           
       0.190505              0.0173845844             0.00112126662           
       0.191184               0.016884536             0.00108909705           
       0.191863              0.0163243927             0.00107313533           
       0.192542               0.017652608             0.00112646247           
       0.193222              0.0167149472             0.00107157227           
       0.193901              0.0176579544             0.00111614751           
       0.194580              0.0171029584             0.00107925208           
       0.195259              0.0166778049             0.00107799337           
       0.195938              0.0158538748             0.00105353724           
       0.196617              0.0180481115             0.00110839154           
       0.197297              0.0143761993            0.000993273924           
       0.197976              0.0158475419             0.00102684583           
       0.198655               0.016678726             0.00106493653           
       0.199334              0.0158235246             0.00102812756           
       0.200013              0.0167796508             0.00105814693           
       0.200692              0.0176436811             0.00109157496           
       0.201371              0.0182920669             0.00109893374           
       0.202051               0.015819919             0.00102515774           
       0.202730              0.0154451243             0.00100282415           
       0.203409              0.0157019656             0.00101791541           
       0.204088              0.0160478104             0.00102792621           
       0.204767              0.0158358852             0.00101574947           
       0.205446               0.016747404             0.00104661513           
       0.206126              0.0148291006            0.000971470973           
       0.206805              0.0148716601            0.000990699045           
       0.207484              0.0162162582             0.00101591824           
       0.208163              0.0148167058            0.000976924866           
       0.208842               0.014871441            0.000976075481           
       0.209521              0.0181368891             0.00106896609           
       0.210201              0.0154052225            0.000996175976           
       0.210880              0.0170690504             0.00102801595           
       0.211559              0.0154356089            0.000992044426           
       0.212238              0.0145747608            0.000959079043           
       0.212917              0.0151382672            0.000973812115           
       0.213596               0.015899846               0.001003908           
       0.214276              0.0151178631            0.000958515626           
       0.214955              0.0163287505             0.00101711176           
       0.215634              0.0126169583            0.000887658187           
       0.216313               0.014674757            0.000955302636           
       0.216992              0.0161415365             0.00100165734           
       0.217671              0.0155619678            0.000976848625           
       0.218351              0.0168737198             0.00102713436           
       0.219030              0.0163796168            0.000996010255           
       0.219709              0.0151346169             0.00096338142           
       0.220388              0.0154021049            0.000970608976           
       0.221067              0.0154787154            0.000973791319           
       0.221746              0.0127067393             0.00088139465           
       0.222426              0.0146885431            0.000933476179           
       0.223105               0.016199648            0.000993672647           
       0.223784              0.0146186295            0.000934575787           
       0.224463              0.0148442223            0.000949259153           
       0.225142              0.0157883863             0.00096349258           
       0.225821              0.0145531268            0.000928759995           
       0.226500              0.0151674576            0.000954188978           
       0.227180              0.0152759394            0.000942842241           
       0.227859              0.0145932557             0.00092566772           
       0.228538              0.0159642118            0.000958450667           
       0.229217              0.0142274486            0.000911976534           
       0.229896              0.0150998703            0.000939069271           
       0.230575              0.0134205382            0.000871198794           
       0.231255              0.0152280363            0.000941907393           
       0.231934              0.0145508884              0.0009144369           
       0.232613              0.0136809875            0.000889952962           
       0.233292              0.0163047817            0.000962164512           
       0.233971              0.0144929699            0.000906708762           
       0.234650              0.0153456181            0.000943973601           
       0.235330              0.0140490342            0.000895327316           
       0.236009              0.0160924103            0.000956163162           
       0.236688               0.015366219            0.000930996322           
       0.237367              0.0151227881            0.000924933923           
       0.238046              0.0155714778            0.000945164674           
       0.238725              0.0144565136            0.000896647846           
       0.239405              0.0136851068            0.000877806827           
       0.240084              0.0156803497            0.000933637894           
       0.240763              0.0145851252            0.000909063861           
       0.241442              0.0147552259            0.000901465922           
       0.242121              0.0153595823            0.000921478245           
       0.242800               0.014797097            0.000908729927           
       0.243480              0.0150750596            0.000912930722           
       0.244159              0.0141505107            0.000884920896           
       0.244838              0.0131634343            0.000839454938           
       0.245517              0.0137738287            0.000871049354           
       0.246196              0.0143900772            0.000890751056           
       0.246875              0.0153862416            0.000908227168           
       0.247554              0.0131298164             0.00084751832           
       0.248234              0.0149369619            0.000890256609           
       0.248913               0.013571392            0.000858105487           
       0.249592              0.0138740349            0.000859376162           
       0.250271              0.0151240441            0.000894649612           
       0.250950              0.0131791161            0.000840260648           
       0.251629              0.0147253151            0.000880635453           
       0.252309              0.0127849204            0.000822230186           
       0.252988              0.0132510865            0.000822666955           
       0.253667              0.0131006949            0.000827542467           
       0.254346              0.0145131295            0.000870831799           
       0.255025              0.0135152902            0.000838521196           
       0.255704              0.0131276939            0.000822624998           
       0.256384              0.0125344126            0.000801040758           
       0.257063              0.0161382727            0.000914113711           
       0.257742               0.015160273            0.000879843818           
       0.258421              0.0139294102            0.000841747193           
       0.259100              0.0131489269            0.000819251322           
       0.259779              0.0132787042            0.000822586425           
       0.260459              0.0129227676            0.000813080378           
       0.261138              0.0107723082            0.000727845061           
       0.261817              0.0133929745            0.000827946682           
       0.262496              0.0131822271            0.000813351065           
       0.263175              0.0143182001            0.000849492734           
       0.263854              0.0139364892            0.000834199157           
       0.264534              0.0121921973            0.000773586531           
       0.265213              0.0124283445            0.000793350606           
       0.265892              0.0122197624            0.000776586558           
       0.266571              0.0124571831             0.00078231141           
       0.267250               0.011414432            0.000750115048           
       0.267929              0.0121629349            0.000773525029           
       0.268609              0.0143428668             0.00084458734           
       0.269288              0.0117284778            0.000751055823           
       0.269967              0.0118600445            0.000763393982           
       0.270646              0.0132565029             0.00080359758           
       0.271325              0.0117388455            0.000757463255           
       0.272004              0.0121005464            0.000761378211           
       0.272683              0.0124560659            0.000773436545           
       0.273363              0.0108094686            0.000725099313           
       0.274042              0.0127045678            0.000781457499           
       0.274721              0.0131434456            0.000794369338           
       0.275400              0.0132920268            0.000793557539           
       0.276079                 0.0121628            0.000763411413           
       0.276758              0.0116962387            0.000758073488           
       0.277438              0.0127799423            0.000783519919           
       0.278117               0.012364293             0.00078468683           
       0.278796              0.0118710919            0.000761072967           
       0.279475              0.0121190901            0.000781684799           
       0.280154              0.0127350118            0.000789776045           
       0.280833              0.0122682328            0.000779881032           
       0.281513              0.0114914449             0.00076662906           
       0.282192             0.00983415089            0.000697097064           
       0.282871               0.010974566            0.000741553862           
       0.283550              0.0118387131            0.000774323475           
       0.284229               0.011348924            0.000769271747           
       0.284908              0.0112762834            0.000774893922           
       0.285588              0.0113212719            0.000767346012           
       0.286267               0.010024357            0.000733619089           
       0.286946             0.00985321389            0.000722599818           
       0.287625             0.00995388978            0.000738648236           
       0.288304              0.0106520874             0.00075388745           
       0.288983              0.0103813459             0.00075366995           
       0.289663             0.00962490878            0.000729939945           
       0.290342             0.00935319235            0.000715732542           
       0.291021              0.0105370324            0.000763771526           
       0.291700              0.0104089806            0.000749199676           
       0.292379              0.0116718167            0.000811510628           
       0.293058             0.00984881141            0.000742631416           
       0.293738             0.00996526964            0.000740736223           
       0.294417             0.00931186372            0.000724362811           
       0.295096              0.0105900418            0.000763986892           
       0.295775             0.00915389337            0.000721144645           
       0.296454              0.0092347639            0.000714954433           
       0.297133             0.00820824006            0.000677236396           
       0.297812              0.0097733326            0.000742693054           
       0.298492             0.00969418528            0.000741108799           
       0.299171             0.00978143579            0.000743028024           
       0.299850             0.00953130376            0.000728457557           
       0.300529              0.0113990628             0.00080561477           
       0.301208             0.00963766941            0.000742564831           
       0.301887              0.0102956164            0.000766581179           
       0.302567             0.00814408621            0.000678379306           
       0.303246             0.00991812518            0.000753515885           
       0.303925             0.00971248858            0.000755237633           
       0.304604             0.00828137896            0.000682321886           
       0.305283             0.00915332118            0.000727982812           
       0.305962             0.00915807361            0.000723772777           
       0.306642             0.00883922894            0.000720719093           
       0.307321             0.00999272924            0.000763856695           
       0.308000             0.00908826408             0.00071983299           
       0.308679             0.00835172591            0.000704991556           
       0.309358             0.00807696217            0.000683919489           
       0.310037             0.00815982955            0.000688950557           
       0.310717             0.00925117787            0.000732871758           
       0.311396              0.0098963266            0.000763078848           
       0.312075             0.00824774043             0.00070546038           
       0.312754             0.00934390412            0.000735856181           
       0.313433              0.0103452077             0.00078101455           
       0.314112              0.0093975291            0.000744211978           
       0.314792             0.00810217785            0.000695899927           
       0.315471              0.0077823572            0.000673592511           
       0.316150              0.0085775725            0.000713714853           
       0.316829              0.0083349481            0.000708194338           
       0.317508             0.00795927799            0.000684284934           
       0.318187             0.00789133623            0.000690346313           
       0.318866             0.00771649005            0.000673459454           
       0.319546             0.00669868678            0.000636880616           
       0.320225             0.00821381972            0.000705251906           
       0.320904             0.00777501967            0.000675545934           
       0.321583             0.00818893273            0.000708571087           
       0.322262              0.0080014788            0.000689798699           
       0.322941             0.00773953335            0.000687105331           
       0.323621              0.0081196594            0.000699481641           
       0.324300             0.00818557494            0.000702865562           
       0.324979             0.00796898943            0.000694758294           
       0.325658             0.00800385229            0.000697539517           
       0.326337             0.00826175735            0.000709613717           
       0.327016             0.00743896224            0.000669076838           
       0.327696             0.00710997091            0.000661389337           
       0.328375             0.00644073942            0.000624181445           
       0.329054             0.00762280676            0.000682730915           
       0.329733             0.00769174402            0.000688315681           
       0.330412             0.00828029046            0.000708312598           
       0.331091             0.00695424684            0.000660898096           
       0.331771             0.00730120083            0.000659439421           
       0.332450             0.00790500266             0.00069948737           
       0.333129             0.00853172011            0.000724811492           
       0.333808             0.00720790465            0.000667090747           
       0.334487             0.00570614923            0.000596356868           
       0.335166             0.00693965451            0.000648038176           
       0.335846             0.00586441915            0.000606191478           
       0.336525              0.0066803808            0.000640602774           
       0.337204             0.00745440777            0.000678471877           
       0.337883             0.00723005422             0.00066906968           
       0.338562             0.00669017242            0.000647176305           
       0.339241             0.00546497519            0.000586018178           
       0.339921             0.00600234067            0.000603854733           
       0.340600             0.00838259279             0.00072716248           
       0.341279             0.00604358582            0.000610821033           
       0.341958             0.00583996861            0.000608914365           
       0.342637             0.00602413625              0.0006097043           
       0.343316             0.00605087969            0.000612825309           
       0.343995             0.00581736063            0.000610722669           
       0.344675             0.00709336283            0.000661990166           
       0.345354              0.0056117009            0.000592690558           
       0.346033             0.00702880474            0.000661588432           
       0.346712             0.00661279433            0.000645805914           
       0.347391             0.00567521365            0.000601979065           
       0.348070             0.00600616029            0.000610487682           
       0.348750             0.00707919661            0.000672358439           
       0.349429             0.00545229024            0.000582445361           
       0.350108             0.00592635149            0.000614545837           
       0.350787             0.00634638151            0.000625146938           
       0.351466             0.00643303221            0.000640994516           
       0.352145             0.00595452185            0.000617205998           
       0.352825             0.00525054947            0.000576949031           
       0.353504             0.00544453053            0.000587365955           
       0.354183              0.0053087546            0.000573313644           
       0.354862             0.00629241681            0.000638676698           
       0.355541             0.00480323234            0.000550698417           
       0.356220             0.00583308517            0.000608017044           
       0.356900             0.00658327863            0.000652068707           
       0.357579             0.00603463466            0.000616651139           
       0.358258             0.00589088498            0.000617693602           
       0.358937             0.00727509739            0.000673534136           
       0.359616             0.00683825407            0.000662118139           
       0.360295             0.00551916277            0.000595334591           
       0.360975             0.00611388828            0.000623909946           
       0.361654             0.00386061301            0.000498338622           
       0.362333             0.00559754737            0.000597009691           
       0.363012             0.00594419675            0.000623133654           
       0.363691             0.00526142923            0.000574688624           
       0.364370             0.00449897615            0.000538012165           
       0.365050             0.00641937219            0.000639221486           
       0.365729             0.00577182277            0.000611903545           
       0.366408             0.00565845426            0.000607205829           
       0.367087             0.00534816611            0.000580854629           
       0.367766             0.00512719414            0.000580578323           
       0.368445             0.00551242208             0.00059130586           
       0.369124             0.00521867086            0.000579854809           
       0.369804             0.00640651916             0.00064143832           
       0.370483             0.00498633577            0.000568369368           
       0.371162             0.00525412488            0.000586814363           
       0.371841             0.00536992589            0.000582902259           
       0.372520             0.00434698676            0.000534964448           
       0.373199             0.00449287709            0.000537369622           
       0.373879             0.00599277438            0.000627804059           
       0.374558             0.00458365143            0.000541043123           
       0.375237             0.00442424694            0.000532423374           
       0.375916             0.00407797204            0.000520955707           
       0.376595             0.00504716411            0.000568237988           
       0.377274             0.00509001572             0.00057977942           
       0.377954             0.00427835052            0.000523196611           
       0.378633             0.00427054894            0.000529325108           
       0.379312             0.00452287302            0.000544600692           
       0.379991             0.00486731305            0.000562033199           
       0.380670             0.00451491682            0.000550872636           
       0.381349             0.00470096075            0.000554036899           
       0.382029             0.00424510464             0.00053403301           
       0.382708             0.00443321696            0.000533819539           
       0.383387             0.00364561794            0.000495054247           
       0.384066             0.00429477131            0.000532395051           
       0.384745             0.00498987596            0.000576119747           
       0.385424             0.00529695666            0.000595598567           
       0.386104             0.00458906679             0.00054824732           
       0.386783             0.00413242269            0.000531508583           
       0.387462             0.00474064759            0.000555119131           
       0.388141             0.00390045611            0.000511571878           
       0.388820             0.00456193891            0.000549253604           
       0.389499             0.00507826586            0.000582765605           
       0.390178             0.00386422157            0.000510379503           
       0.390858             0.00385731613             0.00050579713           
       0.391537             0.00373697956            0.000502928592           
       0.392216             0.00436389067            0.000536667092           
       0.392895             0.00452392458            0.000548259723           
       0.393574             0.00428925497            0.000532527142           
       0.394253             0.00367493364            0.000495136518           
       0.394933             0.00431814941            0.000542854803           
       0.395612             0.00360311263            0.000481472829           
       0.396291             0.00409973058            0.000524038734           
       0.396970             0.00375416524            0.000497024116           
       0.397649             0.00484249976            0.000566227096           
       0.398328             0.00315779674            0.000455234082           
       0.399008             0.00463915028            0.000550575691           
       0.399687             0.00362161921            0.000488354153           
       0.400366             0.00392390011            0.000506381921           
       0.401045              0.0034535749            0.000474167472           
       0.401724             0.00353285613            0.000480379662           
       0.402403             0.00359358162            0.000488266797           
       0.403083             0.00335297487            0.000464836936           
       0.403762             0.00417399784            0.000521192194           
       0.404441             0.00455315512            0.000547816715           
       0.405120             0.00341189486            0.000472661658           
       0.405799             0.00337380068            0.000467973699           
       0.406478             0.00382627402            0.000498380082           
       0.407158             0.00322935409            0.000456998359           
       0.407837             0.00401584905            0.000514116954           
       0.408516             0.00380418054            0.000496031383           
       0.409195              0.0037545307            0.000498373916           
       0.409874             0.00415275533            0.000531430449           
       0.410553             0.00356069513            0.000497383739           
       0.411233             0.00365683887            0.000501442248           
       0.411912             0.00341133382            0.000491179813           
       0.412591             0.00352946749            0.000502918727           
       0.413270             0.00371117411            0.000513252082           
       0.413949             0.00359884869            0.000510945425           
       0.414628             0.00358152391            0.000508798937           
       0.415307             0.00358830318             0.00051494524           
       0.415987             0.00323528506            0.000484930058           
       0.416666             0.00297071507            0.000461883529           
       0.417345             0.00316269935            0.000484533081           
       0.418024             0.00279216619            0.000455277486           
       0.418703             0.00366730827            0.000520811625           
       0.419382             0.00267628328            0.000442730622           
       0.420062             0.00297437146            0.000468043501           
       0.420741             0.00206506828            0.000392066106           
       0.421420             0.00328556226            0.000496410421           
       0.422099              0.0034227553            0.000506681739           
       0.422778             0.00157258035            0.000345302119           
       0.423457             0.00236033969            0.000425627991           
       0.424137             0.00300963342            0.000472785193           
       0.424816             0.00230132805             0.00042206489           
       0.425495             0.00330493766            0.000505313096           
       0.426174              0.0025364998            0.000442841564           
       0.426853             0.00188848431            0.000379788307           
       0.427532             0.00301948921            0.000484292829           
       0.428212             0.00188197583            0.000384862647           
       0.428891             0.00163849275            0.000358287847           
       0.429570             0.00265813521            0.000456662335           
       0.430249             0.00332345415            0.000507973193           
       0.430928             0.00243271399            0.000444105349           
       0.431607             0.00295247418             0.00048084651           
       0.432287             0.00221648991            0.000419677288           
       0.432966             0.00250953958            0.000450487738           
       0.433645             0.00202180534            0.000404770552           
       0.434324              0.0024724068            0.000444911251           
       0.435003             0.00185317193            0.000385844581           
       0.435682             0.00260445223            0.000461169029           
       0.436361             0.00195062478            0.000398572357           
       0.437041              0.0021086093            0.000413845652           
       0.437720             0.00237779613            0.000441588122           
       0.438399              0.0023290094            0.000439315048           
       0.439078             0.00142696348            0.000353843689           
       0.439757             0.00244424864            0.000460250204           
       0.440436             0.00349451782            0.000562721854           
       0.441116             0.00172904369            0.000402297444           
       0.441795              0.0025834194            0.000492339486           
       0.442474             0.00325620835            0.000554284353           
       0.443153             0.00353415131            0.000590928096           
       0.443832             0.00472711437            0.000684575805           
       0.444511             0.00212382542            0.000456795298           
       0.445191             0.00234910672            0.000492096868           
       0.445870              0.0022529245            0.000481930493           
       0.446549             0.00210722199            0.000471001107           
       0.447228             0.00196285678            0.000452012143           
       0.447907             0.00222811014             0.00048736502           
       0.448586             0.00225537312            0.000502135681           
       0.449266             0.00362865601            0.000631061312           
       0.449945              0.0025961989            0.000531609337           
       0.450624              0.0020401852            0.000478741402           
       0.451303              0.0018681331            0.000464048717           
       0.451982             0.00218704497            0.000498994117           
       0.452661             0.00133117906             0.00039655306           
       0.453341             0.00310953402            0.000608205047           
       0.454020             0.00351529654            0.000647656403           
       0.454699             0.00257917013            0.000559824869           
       0.455378            0.000884397702            0.000327996339           
       0.456057             0.00169636568            0.000462339258           
       0.456736             0.00193060275            0.000491689691           
       0.457416             0.00256647019            0.000566924317           
       0.458095             0.00199332625            0.000506857929           
       0.458774             0.00086411974            0.000338131742           
       0.459453             0.00127431005            0.000412687569           
       0.460132            0.000827069244            0.000325291682           
       0.460811             0.00228353924            0.000560679471           
       0.461490             0.00251602109            0.000582542968           
       0.462170             0.00189604478            0.000513594212           
       0.462849             0.00122767499            0.000415953928           
       0.463528             0.00221095472            0.000556910203           
       0.464207             0.00185432329            0.000519563964           
       0.464886              0.0011160322            0.000399935287           
       0.465565             0.00202249733            0.000544302221           
       0.466245             0.00217446608            0.000566132417           
       0.466924             0.00136152183            0.000458557244           
       0.467603            0.000860795714            0.000356878557           
       0.468282             0.00245722257            0.000617263961           
       0.468961             0.00108141206            0.000412180985           
       0.469640            0.000940515761            0.000385926395           
       0.470320             0.00124942814            0.000445120047           
       0.470999              0.0017734213            0.000535308961           
       0.471678             0.00100200675            0.000406245354           
       0.472357            0.000667347083            0.000332460233           
       0.473036             0.00152499781            0.000505744453           
       0.473715            0.000704898737             0.00034653259           
       0.474395            0.000896868768            0.000396284766           
       0.475074            0.000727159248            0.000356837381           
       0.475753             0.00122842121            0.000459796387           
       0.476432             0.00203214103            0.000612912849           
       0.477111            0.000406224865            0.000270720524           
       0.477790             0.00149560088            0.000522227858           
       0.478470            0.000616083046            0.000339607612           
       0.479149            0.000621601465            0.000344653544           
       0.479828             0.00136828368            0.000510142186           
       0.480507             0.00159486714            0.000555204239           
       0.481186            0.000883349641            0.000422511114           
       0.481865             0.00105891478            0.000456868023           
       0.482545             0.00108288745            0.000467437488           
       0.483224             0.00028236053             0.00024032078           
       0.483903            9.95751876e-05            0.000144961429           
       0.484582             0.00116988351            0.000504956342           
       0.485261              0.0011114982            0.000479724575           
       0.485940            0.000338811102            0.000275544622           
       0.486619           -0.000104442611                         0           
       0.487299            0.000317851564            0.000268157707           
       0.487978             0.00143166023            0.000563314115           
       0.488657            0.000861297069            0.000454955108           
       0.489336             0.00127518324            0.000543871623           
       0.490015           -8.46311999e-05                         0           
       0.490694            0.000177462995            0.000210141684           
       0.491374           -7.94276561e-05                         0           
       0.492053           -6.38254453e-05                         0           
       0.492732           -0.000320441648                         0           
       0.493411           -0.000320461276                         0           
       0.494090            0.000200740182             0.00022832009           
       0.494769           -0.000320500409                         0           
       0.495449           -0.000320520057                         0           
       0.496128            0.000225403733            0.000246540513           
       0.496807           -4.21213529e-05                         0           
       0.497486           -0.000320578931                         0           
       0.498165            0.000256074804            0.000269870239           
       0.498844           -0.000320618541                         0           
       0.499524           -4.16327405e-05                         0           
       0.500203           -0.000320658349                         0           
       0.500882           -0.000320678014                         0           
       0.501561           -0.000320697742                         0           
       0.502240           -0.000320717733                         0           
       0.502919           -0.000320737635                         0           
       0.503599           -0.000320757617                         0           
       0.504278           -4.19842175e-06                         0           
       0.504957            2.59156629e-07              9.134595e-06           
       0.505636            0.000334408476            0.000330362503           
       0.506315            6.00041012e-06            4.44358756e-05           
       0.506994            1.56240918e-05            7.29143801e-05           
       0.507673           -0.000320877709                         0           
       0.508353            0.000350537541            0.000341541851           
       0.509032           -0.000320918103                         0           
       0.509711           -0.000320938264                         0           
       0.510390            0.000411423027            0.000385875007           
       0.511069           -0.000320979153                         0           
       0.511748           -0.000320999482                         0           
       0.512428           -0.000321019955                         0           
       0.513107            0.000450668863            0.000414667444           
       0.513786           -0.000321060335                         0           
       0.514465           -0.000321080902                         0           
       0.515144           -0.000321101454                         0           
       0.515823           -0.000321121819                         0           
       0.516503           -0.000321142376                         0           
       0.517182            -0.00032116293                         0           
       0.517861            0.000104917931            0.000211882485           
       0.518540             0.00151356837            0.000825624726           
       0.519219             0.00143718424            0.000792758732           
       0.519898           -0.000321245263                         0           
       0.520578           -0.000321266095                         0           
       0.521257           -0.000321286659                         0           
       0.521936           -0.000321307271                         0           
       0.522615            -0.00032132813                         0           
       0.523294           -0.000321349068                         0           
       0.523973           -0.000321369715                         0           
       0.524653            0.000191946023            0.000316188946           
       0.525332            0.000155606159            0.000272038453           
       0.526011            0.000198585977             0.00032093846           
       0.526690            0.000180546383            0.000297794792           
       0.527369            0.000207249142            0.000332209502           
       0.528048           -0.000321495375                         0           
       0.528728           -0.000321516456                         0           
       0.529407           -0.000321537439                         0           
       0.530086           -0.000321558314                         0           
       0.530765           -0.000321579218                         0           
       0.531444           -0.000321600348                         0           
       0.532123           -0.000321621852                         0           
       0.532802            0.000221267482            0.000347213517           
       0.533482           -0.000321664436                         0           
       0.534161           -0.000321685726                         0           
       0.534840           -0.000321706833                         0           
       0.535519           -0.000321728331                         0           
       0.536198           -0.000321749607                         0           
       0.536877           -0.000321770589                         0           
       0.537557            0.000258277025            0.000386763593           
       0.538236            0.000977370221            0.000797797342           
       0.538915            0.000876510459            0.000726652843           
       0.539594           -0.000321856495                         0           
       0.540273            -0.00032187833                         0           
       0.540952           -0.000321899921                         0           
       0.541632            0.000351359488            0.000493313207           
       0.542311            -0.00032194251                         0           
       0.542990           -0.000321964141                         0           
       0.543669           -0.000321985952                         0           
       0.544348           -0.000322007738                         0           
       0.545027           -0.000322029477                         0           
       0.545707           -0.000322051282                         0           
       0.546386           -0.000322073147                         0           
       0.547065           -0.000322094751                         0           
       0.547744           -0.000322116452                         0           
       0.548423           -0.000322138393                         0           
       0.549102           -0.000322160356                         0           
       0.549782           -0.000322182208                         0           
       0.550461            -0.00032220432                         0           
       0.551140           -0.000322226565                         0           
       0.551819           -0.000322248547                         0           
       0.552498            0.000493223165             0.00063841417           
       0.553177           -0.000322292506                         0           
       0.553856           -0.000322314373                         0           
       0.554536           -0.000322336313                         0           
       0.555215           -0.000322358587                         0           
       0.555894           -0.000322380808                         0           
       0.556573           -0.000322403161                         0           
       0.557252           -0.000322425496                         0           
       0.557931            -0.00032244773                         0           
       0.558611            0.000639914799            0.000783010488           
       0.559290           -0.000322492658                         0           
       0.559969           -0.000322514287                         0           
       0.560648            -0.00032253649                         0           
       0.561327           -0.000322559188                         0           
       0.562006            -0.00032258178                         0           
       0.562686           -0.000322604385                         0           
       0.563365           -0.000322627073                         0           
       0.564044           -0.000322649647                         0           
       0.564723           -0.000322672171                         0           
       0.565402            0.000881521917             0.00103195077           
       0.566081           -0.000322716526                         0           
       0.566761           -0.000322739017                         0           
       0.567440           -0.000322761965                         0           
       0.568119           -0.000322784731                         0           
       0.568798           -0.000322807818                         0           
       0.569477           -0.000322830756                         0           
       0.570156           -0.000322853805                         0           
       0.570836           -0.000322876768                         0           
       0.571515             0.00117896127             0.00133470437           
       0.572194           -0.000322922375                         0           
       0.572873           -0.000322944974                         0           
       0.573552           -0.000322967441                         0           
       0.574231             0.00265980412             0.00200503245           
       0.574911           -0.000323013864                         0           
       0.575590           -0.000323036912                         0           
       0.576269           -0.000323059889                         0           
       0.576948           -0.000323083308                         0           
       0.577627           -0.000323106013                         0           
       0.578306           -0.000323129038                         0           
       0.578985            -0.00032315226                         0           
       0.579665           -0.000323175348                         0           
       0.580344           -0.000323198785                         0           
       0.581023           -0.000323222197                         0           
       0.581702           -0.000323245393                         0           
       0.582381           -0.000323268378                         0           
       0.583060           -0.000323292048                         0           
       0.583740           -0.000323315347                         0           
       0.584419           -0.000323338723                         0           
       0.585098           -0.000323362071                         0           
       0.585777           -0.000323385602                         0           
       0.586456           -0.000323409515                         0           
       0.587135           -0.000323432792                         0           
       0.587815           -0.000323455818                         0           
       0.588494           -0.000323479561                         0           
       0.589173            -0.00032350385                         0           
       0.589852           -0.000323526848                         0           
       0.590531           -0.000323550713                         0           
       0.591210           -0.000323574027                         0           
       0.591890           -0.000323597792                         0           
       0.592569           -0.000323620761                         0           
       0.593248           -0.000323645874                         0           
       0.593927            -0.00032366975                         0           
       0.594606           -0.000323694117                         0           
       0.595285           -0.000323717033                         0           
       0.595965           -0.000323738417                         0           
       0.596644           -0.000323760421                         0           
