################################################################################
# EDF_DataBlockID                     0.Image.Psd
# EDF_BinarySize                      4366944
# EDF_HeaderSize                      2560
# ByteOrder                           LowByteFirst
# DataType                            FloatValue
# Dim_1                               1028
# Dim_2                               1062
# Image                               0
# HeaderID                            EH:000000:000000:000000
# Size                                4366944
# Center_1                            607.5200
# Center_2                            651.5500
# Comment                             Xenocs_Cell_Window - 20251028_20perc_iodine_1.23mg
# DDummy                              0.6
# Date                                2025-11-02T02:57:43
# Delta                               0
# Dummy                               -1.5
# ExposureTime                        360
# Gamma                               0
# Intensity1                          8.80453e-10
# PSize_1                             7.5e-05
# PSize_2                             7.5e-05
# Pressure                            0.0327005
# SampleDistance                      0.450002
# SampleEnvKind                       large
# SampleEnvPN                         ElectroChemical cell
# SampleEnvSN                         1141
# Thickness                           0
# Wavelength                          1.541891e-10
# Wavelength                          1.54189e-10
# aux                                 0
# aux_dial                            0.002375
# beamx                               588.434
# beamx_dial                          588.434
# beamz                               657.808
# beamz_dial                          657.808
# det0x                               0
# det0x_dial                          6.36945
# det0xvd                             0
# det0xvd_dial                        0
# det0y                               450.002
# det0y_dial                          481.635
# det0z                               0
# det0z_dial                          1.23302
# det0zvd                             0
# det0zvd_dial                        0
# mag                                 1.818
# mag_dial                            1.818
# om                                  0.2499
# om_dial                             -0.610199
# phi                                 -0.0120535
# phi_dial                            0
# ry                                  0.599993
# ry_dial                             0.599993
# s1bot                               0.8
# s1bot_dial                          -1.66094
# s1hl                                0.8
# s1hl_dial                           -0.608437
# s1hr                                0.8
# s1hr_dial                           0.970938
# s1top                               0.8
# s1top_dial                          -0.461562
# s2bot                               0.45
# s2bot_dial                          1.36109
# s2hl                                0.45
# s2hl_dial                           -0.83375
# s2hr                                0.45
# s2hr_dial                           -0.118594
# s2top                               0.45
# s2top_dial                          1.44734
# w2theta                             32
# w2theta_dial                        32
# waxsch                              19.2605
# waxsch_dial                         -32.7355
# waxsh                               137.085
# waxsh_dial                          -43.5338
# waxsth                              26.0607
# waxsth_dial                         -19.4086
# waxsz                               67.0407
# waxsz_dial                          -23.7954
# wind                                65.9854
# wind_dial                           66.0041
# wpsi                                124
# wpsi_dial                           124
# wstod                               115
# wstod_dial                          115
# x                                   0
# x_dial                              1.00969
# z                                   0
# z_dial                              13.3172
# CountCutoff                         15302352
# DetectorModel                       Dectris EIGER2 Si 1M, S/N E-02-0362
# ThresholdSetting                    4023.88989258
# Saturation                          0
# FlatField                           Corrected
# BackgroundReductionExtra            0.02
# BackgroundCorrectionConstant        0.0026712
# Detector                            0
# Monitor                             0
# Pil_Roi0                            0
# SumForIntensity1                    3.16963e+08
# TransmittedFlux                     880453
# det                                 0
# mon                                 0
# pilai0                              3.16963e+08
# pilai1                              793975
# pilct0                              5.47228e+08
# pilct1                              793975
# pilroi0                             0
# pilroi1                             0
# sec                                 1
# title                               20251028_20perc_iodine_1.23mg_0_00987.edf
# usaxs0                              0
# Operation                           Azimuthal average I(q)
# Error_model                         ErrorModel.poisson
# Geometrical_correction              True
# Transmission_correction             True
# Thickness_correction                False
# Binning mode                        Uniform
# Binning factor                      1.0
# Psi                                 0.0
# Omega                               0.2499
# MaskInvalidPixels                   True
# DetectorEdge                        3
# MaskFiles                           ['20251028_20perc_iodine_1.23mg_0_00012_mask.edf']
################################################################################
    q(A⁻¹)                Intensity(a.u.)            Sigma_I(a.u.)            
       0.000340                372545.268                118.762066           
       0.001019                359771.974                71.4689716           
       0.001698                350228.046                49.8613882           
       0.002377                 331109.15                 43.363022           
       0.003056                307440.347                35.3142863           
       0.003735                253627.265                28.2875821           
       0.004415                204395.724                25.3941607           
       0.005094                151991.977                18.9643974           
       0.005773                99782.6369                14.2260051           
       0.006452                57887.9283                10.3819454           
       0.007131                32228.5691                7.50436009           
       0.007810                16286.0061                5.29401724           
       0.008490                8272.47876                3.34447864           
       0.009169                4015.48279                2.30287381           
       0.009848                1255.72379                1.24509901           
       0.010527                492.016883               0.779376112           
       0.011206                123.017749                0.37194137           
       0.011885                55.7806061               0.232702088           
       0.012564                25.0524166               0.160108816           
       0.013244                16.5861645               0.121793298           
       0.013923                 12.202722               0.106152061           
       0.014602                 9.2251385              0.0855995423           
       0.015281                7.34961987              0.0777761261           
       0.015960                6.05211335              0.0700718081           
       0.016639                4.97017639              0.0599639618           
       0.017319                 4.0040632              0.0529843556           
       0.017998                3.28314106              0.0459000681           
       0.018677                2.78731182              0.0438032653           
       0.019356                2.39612328              0.0401298367           
       0.020035                2.05155302               0.034837537           
       0.020714                 1.8314632              0.0332642246           
       0.021394                1.59351242              0.0293579607           
       0.022073                1.37791016              0.0284032456           
       0.022752                1.21492093              0.0255132068           
       0.023431                1.05733857              0.0231033722           
       0.024110               0.976344397              0.0231460329           
       0.024789               0.901120945              0.0206512711           
       0.025469               0.853018881              0.0207055436           
       0.026148               0.729509112              0.0179910956           
       0.026827               0.634330196              0.0170449136           
       0.027506               0.616097465              0.0170404026           
       0.028185               0.563334854              0.0155390607           
       0.028864               0.505620145              0.0146389506           
       0.029544               0.461840181              0.0135671736           
       0.030223               0.467486949              0.0138455949           
       0.030902               0.412613692              0.0131266807           
       0.031581               0.356687419              0.0116018975           
       0.032260               0.348336777              0.0116606403           
       0.032939               0.305964964              0.0105374076           
       0.033619               0.279691036              0.0102228848           
       0.034298                0.26395824             0.00966466908           
       0.034977               0.258693435             0.00937977234           
       0.035656               0.244844067             0.00936675002           
       0.036335               0.217859087              0.0085693444           
       0.037014               0.208368866             0.00840561875           
       0.037693               0.197172443             0.00786584726           
       0.038373               0.176218966             0.00750913403           
       0.039052               0.172057219             0.00745150251           
       0.039731               0.161441094             0.00704974861           
       0.040410               0.159829568             0.00696744586           
       0.041089               0.151020121             0.00666661982           
       0.041768               0.129059548             0.00619507294           
       0.042448               0.134111665             0.00626616126           
       0.043127               0.133548358             0.00610530496           
       0.043806               0.129181554             0.00604943092           
       0.044485               0.111183767             0.00549692973           
       0.045164               0.116059835             0.00572686258           
       0.045843               0.110225694             0.00535291976           
       0.046523               0.114897029             0.00548404245           
       0.047202               0.102243455             0.00520940827           
       0.047881               0.102631055             0.00511862326           
       0.048560               0.107549091             0.00528758911           
       0.049239              0.0908417074             0.00466605481           
       0.049918              0.0929145121             0.00481124027           
       0.050598              0.0974003936             0.00485210802           
       0.051277              0.0842838615             0.00449926971           
       0.051956              0.0872344693             0.00454860332           
       0.052635              0.0778465067             0.00420569457           
       0.053314              0.0769753818             0.00430436895           
       0.053993              0.0819572899             0.00431965929           
       0.054673              0.0783437036             0.00412927907           
       0.055352              0.0731687431              0.0040491861           
       0.056031              0.0712539157             0.00391189276           
       0.056710              0.0727350304             0.00404919266           
       0.057389              0.0709845688             0.00385740946           
       0.058068              0.0737665583             0.00397280696           
       0.058748              0.0708589746             0.00394229452           
       0.059427               0.069685393             0.00384332011           
       0.060106              0.0627683757             0.00368211406           
       0.060785              0.0639106325             0.00360414242           
       0.061464              0.0648930797             0.00371927693           
       0.062143              0.0550411191             0.00339053894           
       0.062822              0.0622955012             0.00356473266           
       0.063502               0.053267141              0.0032904228           
       0.064181              0.0527346043             0.00323936153           
       0.064860              0.0508386568             0.00322904049           
       0.065539               0.049243046             0.00314688795           
       0.066218              0.0567113539             0.00330478955           
       0.066897               0.052987784             0.00321911439           
       0.067577              0.0496435367             0.00314580886           
       0.068256               0.056890665             0.00345033133           
       0.068935              0.0450152684             0.00301953819           
       0.069614              0.0469335988             0.00311389864           
       0.070293              0.0465506851             0.00312976626           
       0.070972              0.0498618512             0.00321544826           
       0.071652              0.0517068673             0.00328040377           
       0.072331               0.045389545             0.00301870829           
       0.073010              0.0426690401             0.00299372013           
       0.073689              0.0438065152             0.00301669237           
       0.074368              0.0387520253             0.00283216345           
       0.075047              0.0408415959             0.00287626705           
       0.075727              0.0420405288             0.00290015516           
       0.076406              0.0419193387             0.00295375336           
       0.077085              0.0469449252             0.00306738414           
       0.077764              0.0408616932             0.00285172452           
       0.078443              0.0379567058             0.00276550368           
       0.079122              0.0432706978             0.00292438566           
       0.079802              0.0365827024             0.00271742403           
       0.080481              0.0362164942              0.0026125849           
       0.081160               0.041445407             0.00285218017           
       0.081839              0.0304047038             0.00240380925           
       0.082518              0.0375484005              0.0026735662           
       0.083197              0.0383993393             0.00266168167           
       0.083876              0.0371056271             0.00257298362           
       0.084556              0.0307949668             0.00240918592           
       0.085235              0.0350259084             0.00251972003           
       0.085914               0.033500875             0.00248819344           
       0.086593              0.0357670586               0.002554427           
       0.087272              0.0326143228             0.00240476919           
       0.087951              0.0297053419             0.00234686225           
       0.088631              0.0335853147             0.00241043237           
       0.089310              0.0299147848             0.00232315392           
       0.089989              0.0367735058             0.00254563056           
       0.090668              0.0308535035             0.00235747811           
       0.091347              0.0299166325             0.00233440682           
       0.092026              0.0309745122             0.00227042331           
       0.092706              0.0281151998             0.00224160705           
       0.093385              0.0317430105             0.00234526573           
       0.094064              0.0257658928              0.0021375485           
       0.094743              0.0286057257              0.0022179444           
       0.095422              0.0315895826             0.00230476184           
       0.096101              0.0339926922             0.00244005969           
       0.096781              0.0330298874             0.00237081618           
       0.097460               0.029220255             0.00216907614           
       0.098139               0.029791084             0.00217330827           
       0.098818              0.0327186062             0.00224954198           
       0.099497              0.0281816798             0.00209204442           
       0.100176              0.0277223843             0.00202046953           
       0.100856              0.0284358368             0.00204499212           
       0.101535              0.0303845512             0.00210982599           
       0.102214               0.025279321              0.0019244455           
       0.102893              0.0276627584             0.00199018747           
       0.103572              0.0266199384             0.00192347315           
       0.104251               0.025751577              0.0018988294           
       0.104931              0.0281924139             0.00196869401           
       0.105610              0.0252915672             0.00187261535           
       0.106289              0.0264030442              0.0018814797           
       0.106968              0.0305164454             0.00202874045           
       0.107647              0.0294596727             0.00199450006           
       0.108326              0.0250607747             0.00181496474           
       0.109005              0.0280979549             0.00190970907           
       0.109685              0.0249140315              0.0017780864           
       0.110364               0.025327873             0.00181315573           
       0.111043              0.0245847408             0.00177927546           
       0.111722              0.0255162274              0.0017905136           
       0.112401              0.0264053928             0.00182650865           
       0.113080              0.0228403748             0.00167927375           
       0.113760              0.0231417082             0.00171854763           
       0.114439              0.0237049353             0.00171451173           
       0.115118              0.0278722478             0.00184510028           
       0.115797               0.026636312             0.00182043781           
       0.116476              0.0239050169             0.00169876799           
       0.117155              0.0230886565             0.00168297465           
       0.117835               0.023221692             0.00165426292           
       0.118514              0.0235595678             0.00168738146           
       0.119193              0.0241539142             0.00170854532           
       0.119872               0.023583413             0.00166713353           
       0.120551               0.022912654             0.00163230836           
       0.121230              0.0222099397             0.00159091001           
       0.121910              0.0204532666             0.00154145358           
       0.122589              0.0229235703             0.00163356918           
       0.123268              0.0233950652             0.00161831189           
       0.123947              0.0233466853             0.00162709311           
       0.124626              0.0218131526              0.0015535178           
       0.125305              0.0222373499             0.00157624793           
       0.125985              0.0217910552             0.00154824293           
       0.126664               0.021640756             0.00152819769           
       0.127343              0.0205395963             0.00150606723           
       0.128022              0.0197833242             0.00146674348           
       0.128701              0.0199879494             0.00146662949           
       0.129380              0.0212791476             0.00149430663           
       0.130059              0.0193561347             0.00142849703           
       0.130739              0.0213313418             0.00151015839           
       0.131418              0.0228299454             0.00155793104           
       0.132097              0.0216082434             0.00149623483           
       0.132776               0.023807074             0.00156342804           
       0.133455              0.0190702519             0.00141014627           
       0.134134              0.0214113292             0.00148943829           
       0.134814              0.0229125591             0.00152489324           
       0.135493              0.0203435538              0.0014426802           
       0.136172              0.0210248392             0.00145556645           
       0.136851              0.0222875813              0.0015073554           
       0.137530              0.0219148788             0.00145918738           
       0.138209              0.0234337296             0.00152662152           
       0.138889              0.0227473352              0.0015107274           
       0.139568              0.0198307305             0.00140994594           
       0.140247              0.0193763442             0.00139187269           
       0.140926               0.019931821             0.00137131855           
       0.141605              0.0199376748             0.00140636439           
       0.142284              0.0208805565             0.00141538566           
       0.142964              0.0211361739             0.00142946939           
       0.143643              0.0190667662             0.00135597356           
       0.144322              0.0193514531              0.0013374739           
       0.145001              0.0203124121             0.00139840643           
       0.145680              0.0183895522              0.0012990923           
       0.146359              0.0213913084             0.00140623804           
       0.147039               0.022881554             0.00146637073           
       0.147718              0.0209299809             0.00137930166           
       0.148397              0.0186936322             0.00132378801           
       0.149076              0.0168539451              0.0012179696           
       0.149755              0.0189203343             0.00131040213           
       0.150434              0.0195656522             0.00133310566           
       0.151114              0.0212148886             0.00138047643           
       0.151793              0.0175455722             0.00125544129           
       0.152472              0.0174407055               0.001229574           
       0.153151              0.0170723887             0.00122828267           
       0.153830               0.017957567             0.00125054452           
       0.154509              0.0188580105              0.0012761671           
       0.155188              0.0192654326              0.0012894023           
       0.155868              0.0182465561             0.00124591376           
       0.156547              0.0195200183             0.00129693564           
       0.157226                0.01689859             0.00117723841           
       0.157905              0.0157536184             0.00114620422           
       0.158584              0.0177961054             0.00121603091           
       0.159263              0.0177660432             0.00121947394           
       0.159943              0.0172825436             0.00120366264           
       0.160622              0.0177413387             0.00119599937           
       0.161301              0.0188612787             0.00124966505           
       0.161980               0.016870324             0.00116177759           
       0.162659              0.0186519415             0.00123512375           
       0.163338                0.01811921             0.00120743515           
       0.164018              0.0185400553             0.00121496641           
       0.164697              0.0200192859             0.00127871583           
       0.165376              0.0205459267             0.00126712256           
       0.166055              0.0169298501             0.00115780946           
       0.166734               0.017792804             0.00118163385           
       0.167413              0.0169950772             0.00115564984           
       0.168093              0.0173740139             0.00117951535           
       0.168772              0.0171285038             0.00113690167           
       0.169451              0.0165008671             0.00113640791           
       0.170130              0.0171502099             0.00114334242           
       0.170809              0.0183297304             0.00119611192           
       0.171488              0.0194436714             0.00122069085           
       0.172168              0.0174996053             0.00114693381           
       0.172847              0.0174389416             0.00115998407           
       0.173526               0.018684736             0.00117779732           
       0.174205              0.0165372777             0.00111315245           
       0.174884              0.0155495182             0.00107377177           
       0.175563              0.0180720765              0.0011625399           
       0.176243              0.0173976024             0.00115205503           
       0.176922              0.0169178992             0.00110645554           
       0.177601              0.0184228496             0.00116730923           
       0.178280              0.0158122602             0.00106937331           
       0.178959              0.0151864216             0.00105642651           
       0.179638               0.016710881             0.00110499115           
       0.180317              0.0184514344             0.00115265355           
       0.180997              0.0166353613             0.00110040037           
       0.181676              0.0153519467             0.00104581318           
       0.182355              0.0162019125             0.00108082669           
       0.183034               0.017003452             0.00108946892           
       0.183713              0.0166424619             0.00109096841           
       0.184392              0.0159824342             0.00106879265           
       0.185072              0.0159735572             0.00105631855           
       0.185751              0.0180303975             0.00112539051           
       0.186430              0.0173401396             0.00109590868           
       0.187109              0.0180848372              0.0011316582           
       0.187788              0.0146904429             0.00101742732           
       0.188467              0.0173684575             0.00109319196           
       0.189147              0.0171582823             0.00109756097           
       0.189826              0.0156748099             0.00103049107           
       0.190505              0.0158130962             0.00105206464           
       0.191184              0.0156036365              0.0010300117           
       0.191863               0.016685263             0.00106735708           
       0.192542              0.0169499596             0.00108593505           
       0.193222              0.0163686951             0.00104323758           
       0.193901              0.0166722761              0.0010669795           
       0.194580               0.016542626             0.00104423135           
       0.195259              0.0173443206             0.00108151493           
       0.195938              0.0159394392              0.0010392641           
       0.196617              0.0165988596             0.00104573989           
       0.197297               0.016242014              0.0010386618           
       0.197976               0.016767645             0.00103912443           
       0.198655              0.0164725201             0.00104118893           
       0.199334              0.0183712284             0.00108986251           
       0.200013               0.014541281            0.000969087698           
       0.200692              0.0190401174             0.00111558074           
       0.201371              0.0170673575             0.00104431253           
       0.202051              0.0153600497            0.000993784243           
       0.202730              0.0163289778             0.00101441534           
       0.203409              0.0160360895             0.00101202477           
       0.204088              0.0159737025             0.00100893705           
       0.204767              0.0153339175            0.000983329852           
       0.205446              0.0160230062             0.00100714613           
       0.206126              0.0143025591            0.000938612919           
       0.206805              0.0153330945            0.000989655752           
       0.207484               0.015833801            0.000987604933           
       0.208163              0.0148314637            0.000961578116           
       0.208842              0.0172476957             0.00103414074           
       0.209521              0.0160413354            0.000989031264           
       0.210201              0.0162034201             0.00100510782           
       0.210880              0.0153897224            0.000960324026           
       0.211559              0.0175820187             0.00104162366           
       0.212238              0.0152700724            0.000965787235           
       0.212917              0.0133323245            0.000899077763           
       0.213596              0.0152668938            0.000967787541           
       0.214276              0.0166747069            0.000990353694           
       0.214955              0.0153824199            0.000971206896           
       0.215634              0.0154117779            0.000965166029           
       0.216313              0.0148505324            0.000945439529           
       0.216992              0.0154377866            0.000963710267           
       0.217671               0.016496444            0.000989458105           
       0.218351              0.0149865655            0.000952313912           
       0.219030               0.013452885            0.000888028459           
       0.219709              0.0157054151            0.000965482681           
       0.220388              0.0160123609             0.00097361931           
       0.221067              0.0140904809            0.000914047105           
       0.221746              0.0160767308            0.000975347668           
       0.222426              0.0164452743            0.000971721179           
       0.223105              0.0149071755            0.000937768105           
       0.223784              0.0136371535            0.000888035422           
       0.224463              0.0126750399            0.000862954631           
       0.225142              0.0137986474            0.000886145405           
       0.225821              0.0164953127            0.000972776003           
       0.226500              0.0164894654            0.000978787733           
       0.227180               0.016021181            0.000949925531           
       0.227859              0.0147576575            0.000915788037           
       0.228538              0.0144934749            0.000898440897           
       0.229217              0.0151402349            0.000925536791           
       0.229896              0.0129677118            0.000856150126           
       0.230575              0.0150652564              0.0009080877           
       0.231255              0.0145662675            0.000906290909           
       0.231934              0.0163729518            0.000954288538           
       0.232613              0.0143670611            0.000897221202           
       0.233292              0.0158421837            0.000933053596           
       0.233971               0.015383079            0.000919005226           
       0.234650               0.015916726            0.000945805322           
       0.235330               0.014099157            0.000882393705           
       0.236009              0.0150201671            0.000908795297           
       0.236688              0.0143154864            0.000884045747           
       0.237367              0.0165990247            0.000953330064           
       0.238046               0.013172298            0.000855225355           
       0.238725              0.0148662591            0.000894536781           
       0.239405               0.013295206            0.000851196095           
       0.240084              0.0144088483            0.000880486012           
       0.240763              0.0160292473            0.000937568711           
       0.241442              0.0129634108            0.000831272192           
       0.242121               0.016157722            0.000929806714           
       0.242800              0.0152481032            0.000907531506           
       0.243480              0.0131701355             0.00083948058           
       0.244159              0.0149934393             0.00089614081           
       0.244838              0.0147653028            0.000874663876           
       0.245517               0.014346425            0.000874569846           
       0.246196              0.0138094378            0.000858459896           
       0.246875              0.0158780324             0.00090768213           
       0.247554              0.0133860865            0.000841887012           
       0.248234              0.0144241404            0.000860669216           
       0.248913              0.0136582242            0.000846901356           
       0.249592              0.0150405037            0.000880278977           
       0.250271              0.0139698892            0.000845907198           
       0.250950               0.014039175            0.000853196187           
       0.251629              0.0138585658            0.000840485526           
       0.252309              0.0129373558            0.000813718881           
       0.252988              0.0145717176            0.000848713108           
       0.253667              0.0144670805            0.000855540951           
       0.254346              0.0140513236            0.000842984502           
       0.255025               0.014145378            0.000843948342           
       0.255704              0.0139524694            0.000834334977           
       0.256384              0.0142534606            0.000840368973           
       0.257063              0.0140804731            0.000840015985           
       0.257742              0.0131353464            0.000805712441           
       0.258421              0.0133726374            0.000811392662           
       0.259100              0.0145946679            0.000849134201           
       0.259779              0.0120176336             0.00076987532           
       0.260459              0.0118128432            0.000764786409           
       0.261138              0.0130089775            0.000786888804           
       0.261817              0.0113133752            0.000748629905           
       0.262496              0.0140562655            0.000826277354           
       0.263175              0.0136433661            0.000815799527           
       0.263854              0.0136973141            0.000813613209           
       0.264534              0.0136075277            0.000804016112           
       0.265213              0.0137434874            0.000820756289           
       0.265892              0.0129341159            0.000786020893           
       0.266571              0.0116318805            0.000743707113           
       0.267250              0.0122896643             0.00076573406           
       0.267929              0.0127289886            0.000778501326           
       0.268609              0.0138951308            0.000817833945           
       0.269288               0.013953976            0.000805949084           
       0.269967              0.0136583519            0.000805957146           
       0.270646              0.0124580326            0.000766401059           
       0.271325              0.0112838203            0.000730607603           
       0.272004              0.0115569548            0.000732026645           
       0.272683              0.0133057206            0.000786431078           
       0.273363              0.0143632855            0.000822298403           
       0.274042              0.0122500513            0.000754921157           
       0.274721              0.0140202435            0.000807147421           
       0.275400               0.011953424            0.000740348515           
       0.276079              0.0121722799            0.000751337489           
       0.276758              0.0107471351            0.000714894211           
       0.277438              0.0114867883            0.000730789221           
       0.278117              0.0117191557            0.000751565975           
       0.278796              0.0114323817            0.000734778686           
       0.279475              0.0104561513            0.000714315076           
       0.280154              0.0120411309            0.000755518578           
       0.280833              0.0115232954            0.000743588953           
       0.281513              0.0127511049            0.000794472918           
       0.282192              0.0121434085            0.000762083136           
       0.282871              0.0114868335            0.000746373851           
       0.283550              0.0111776259            0.000740205301           
       0.284229              0.0118517897            0.000773395492           
       0.284908              0.0102422103            0.000726546366           
       0.285588              0.0118497553            0.000772334705           
       0.286267             0.00970054411            0.000709982488           
       0.286946              0.0118235972            0.000778737222           
       0.287625              0.0109182738            0.000761071519           
       0.288304              0.0117174877            0.000777881844           
       0.288983              0.0105845353            0.000748682178           
       0.289663              0.0100675411             0.00073444242           
       0.290342              0.0102222845            0.000736125803           
       0.291021              0.0109350494            0.000765458954           
       0.291700              0.0100563982            0.000724472559           
       0.292379             0.00825831337            0.000671549283           
       0.293058              0.0102950703             0.00074697023           
       0.293738              0.0110311612            0.000766720191           
       0.294417              0.0107505973            0.000765704792           
       0.295096              0.0108326371            0.000760171173           
       0.295775              0.0107816167            0.000769960829           
       0.296454             0.00970061584            0.000720895554           
       0.297133              0.0108916106            0.000767482615           
       0.297812              0.0108161354            0.000768654741           
       0.298492              0.0105945527             0.00076221037           
       0.299171             0.00973531784             0.00072926637           
       0.299850              0.0105045055            0.000752355557           
       0.300529             0.00976018499            0.000733380066           
       0.301208              0.0107461853            0.000771405542           
       0.301887              0.0108410437             0.00077388201           
       0.302567             0.00947946886            0.000720030082           
       0.303246             0.00930873169            0.000718174704           
       0.303925             0.00883640994            0.000708701771           
       0.304604             0.00937039578            0.000714042675           
       0.305283             0.00865520227             0.00069643023           
       0.305962             0.00975085886            0.000734731811           
       0.306642             0.00984835136            0.000748424218           
       0.307321             0.00888164452            0.000708473731           
       0.308000              0.0111079753            0.000782917427           
       0.308679             0.00768982247            0.000665520112           
       0.309358             0.00877836271            0.000701447133           
       0.310037             0.00896504691            0.000710445919           
       0.310717             0.00990594461            0.000746078709           
       0.311396             0.00793395578            0.000672178353           
       0.312075              0.0100706443            0.000766903983           
       0.312754             0.00830819238            0.000682636108           
       0.313433             0.00778860128              0.0006666939           
       0.314112              0.0110264034            0.000793074496           
       0.314792             0.00932774349            0.000734583943           
       0.315471             0.00837651909            0.000687512645           
       0.316150              0.0114757711            0.000812158332           
       0.316829             0.00701876551            0.000639349891           
       0.317508             0.00878725124            0.000707349241           
       0.318187             0.00804105642            0.000685575863           
       0.318866             0.00787936009            0.000669505666           
       0.319546             0.00969237882            0.000753677611           
       0.320225              0.0085231565             0.00070677169           
       0.320904             0.00893788456            0.000712571971           
       0.321583             0.00763041815            0.000672900999           
       0.322262             0.00831710208            0.000691879537           
       0.322941             0.00764752685            0.000671944903           
       0.323621             0.00801430859            0.000683671811           
       0.324300             0.00880060288            0.000716986719           
       0.324979             0.00858886498            0.000709589583           
       0.325658             0.00863448521            0.000712762327           
       0.326337             0.00770463916              0.0006741696           
       0.327016             0.00719995924            0.000647577971           
       0.327696             0.00760456259            0.000672926491           
       0.328375             0.00873773613             0.00071523652           
       0.329054             0.00843696102            0.000706630475           
       0.329733             0.00827445705            0.000702347813           
       0.330412             0.00818561205            0.000692843246           
       0.331091              0.0067427922            0.000640230805           
       0.331771             0.00735065689            0.000650950646           
       0.332450             0.00782790051            0.000684792105           
       0.333129             0.00659445495            0.000626907481           
       0.333808             0.00685678997            0.000640100332           
       0.334487              0.0076418684            0.000678956059           
       0.335166             0.00695045053            0.000638036279           
       0.335846             0.00659717895            0.000632533726           
       0.336525             0.00651608727            0.000622427654           
       0.337204             0.00704394291             0.00064884419           
       0.337883             0.00723855704            0.000658618313           
       0.338562             0.00749118124            0.000673730695           
       0.339241             0.00728323263            0.000665558616           
       0.339921             0.00662607462            0.000624176688           
       0.340600             0.00695289025            0.000651526663           
       0.341279             0.00637672037            0.000617266278           
       0.341958             0.00675089647            0.000644078669           
       0.342637             0.00655155871            0.000625534709           
       0.343316             0.00675909832            0.000637204808           
       0.343995             0.00725701131            0.000671068998           
       0.344675             0.00579124778            0.000588462447           
       0.345354             0.00659186977            0.000631963928           
       0.346033             0.00679920835            0.000640152679           
       0.346712             0.00645565256            0.000627750133           
       0.347391             0.00635290316            0.000626590241           
       0.348070             0.00659078226            0.000629149936           
       0.348750             0.00655816499            0.000636659569           
       0.349429             0.00613934041            0.000608042301           
       0.350108             0.00658790103            0.000637442977           
       0.350787             0.00661840016             0.00062806235           
       0.351466             0.00692024687            0.000654055307           
       0.352145              0.0068736463            0.000652390323           
       0.352825             0.00576027704              0.0005945166           
       0.353504             0.00514415564            0.000561685006           
       0.354183             0.00640143499            0.000619358141           
       0.354862             0.00502254994            0.000561360293           
       0.355541             0.00529128156             0.00056863645           
       0.356220             0.00601165895            0.000607254848           
       0.356900             0.00699542537            0.000661281743           
       0.357579             0.00676249643            0.000642206653           
       0.358258             0.00564276872            0.000594752376           
       0.358937             0.00632322938            0.000617755901           
       0.359616             0.00637892184            0.000629134844           
       0.360295             0.00645767249            0.000633533745           
       0.360975             0.00517053019            0.000564466182           
       0.361654             0.00441450692            0.000524257608           
       0.362333             0.00503972232             0.00055730511           
       0.363012             0.00600217047              0.0006160217           
       0.363691             0.00666723476            0.000636444937           
       0.364370             0.00522267075            0.000570280869           
       0.365050             0.00505298216            0.000557938329           
       0.365729             0.00615104014            0.000621452565           
       0.366408              0.0049160395            0.000556803476           
       0.367087              0.0056167439            0.000585618181           
       0.367766             0.00547296567            0.000590118902           
       0.368445             0.00490569747            0.000548780361           
       0.369124              0.0056839344            0.000595348231           
       0.369804             0.00572082379             0.00059632134           
       0.370483             0.00401237557            0.000501588905           
       0.371162             0.00539755798            0.000585135472           
       0.371841             0.00514025545            0.000561062409           
       0.372520             0.00530013938             0.00058114116           
       0.373199             0.00528726188            0.000573500079           
       0.373879             0.00452824287            0.000536886199           
       0.374558             0.00481454057            0.000545520082           
       0.375237             0.00502210716             0.00055806868           
       0.375916             0.00440006857             0.00053237252           
       0.376595             0.00450574013            0.000528198118           
       0.377274              0.0042312837            0.000520051718           
       0.377954             0.00376759992            0.000483021385           
       0.378633             0.00489447869             0.00055749515           
       0.379312             0.00487913818             0.00055648028           
       0.379991             0.00465565594            0.000540772997           
       0.380670             0.00540215665            0.000592812208           
       0.381349             0.00537873976            0.000583032645           
       0.382029             0.00449539168            0.000540648373           
       0.382708             0.00435639995             0.00052060229           
       0.383387             0.00280870918             0.00042749184           
       0.384066             0.00478401104             0.00055279907           
       0.384745             0.00503761529            0.000569491983           
       0.385424             0.00526736963            0.000584311671           
       0.386104             0.00451052578            0.000534730728           
       0.386783             0.00478110507            0.000562443998           
       0.387462              0.0041496568            0.000510952675           
       0.388141             0.00462089173            0.000547796294           
       0.388820             0.00550966342            0.000593837947           
       0.389499             0.00325198949            0.000458794275           
       0.390178             0.00405836086            0.000514570369           
       0.390858             0.00456733554            0.000541467547           
       0.391537                0.00422456            0.000526070483           
       0.392216             0.00504183191            0.000567504677           
       0.392895             0.00451000097            0.000538547744           
       0.393574             0.00550431162            0.000593484733           
       0.394253             0.00395098887            0.000505080196           
       0.394933             0.00366322959            0.000491896973           
       0.395612             0.00392221935            0.000494203745           
       0.396291             0.00415739442            0.000519162809           
       0.396970             0.00350126479            0.000472215759           
       0.397649             0.00448716825            0.000536227707           
       0.398328             0.00292787719            0.000431247252           
       0.399008             0.00418562529            0.000514499804           
       0.399687             0.00394321215             0.00050132088           
       0.400366             0.00487735019            0.000555416041           
       0.401045             0.00484664659            0.000552618251           
       0.401724             0.00486643657            0.000554669644           
       0.402403             0.00315841355             0.00045033444           
       0.403083             0.00430853267            0.000518390942           
       0.403762             0.00409823956            0.000508074844           
       0.404441             0.00447787552             0.00053446872           
       0.405120             0.00267137809            0.000411459849           
       0.405799             0.00465073824            0.000540542582           
       0.406478             0.00345644203             0.00046600922           
       0.407158             0.00474533388            0.000545001155           
       0.407837             0.00376081674            0.000489464896           
       0.408516             0.00499618811            0.000559248997           
       0.409195             0.00408059526            0.000511147761           
       0.409874             0.00362573696            0.000488521451           
       0.410553             0.00324868701            0.000467396388           
       0.411233             0.00327581503             0.00046691188           
       0.411912             0.00282355898            0.000439626699           
       0.412591              0.0038234415            0.000514964947           
       0.413270             0.00318442642            0.000467732872           
       0.413949             0.00382360802            0.000518127486           
       0.414628             0.00409151809            0.000535009798           
       0.415307             0.00341107004            0.000493934122           
       0.415987             0.00285470121             0.00044813657           
       0.416666             0.00391421068            0.000521592458           
       0.417345             0.00234250442            0.000410243697           
       0.418024              0.0036366213            0.000511165824           
       0.418703             0.00317678966            0.000476879243           
       0.419382             0.00293890272            0.000456429131           
       0.420062             0.00325048858            0.000481360188           
       0.420741             0.00343900952            0.000497755434           
       0.421420             0.00331479931            0.000490537132           
       0.422099             0.00244723798            0.000421495224           
       0.422778             0.00262160548             0.00043861524           
       0.423457             0.00250687398            0.000431535379           
       0.424137             0.00285215807            0.000452794446           
       0.424816             0.00267130467            0.000447361804           
       0.425495             0.00327448341            0.000494831735           
       0.426174             0.00236561042            0.000420736123           
       0.426853             0.00294833222            0.000466853196           
       0.427532             0.00231460366            0.000417144809           
       0.428212             0.00204944931             0.00039511595           
       0.428891             0.00249040903            0.000434562638           
       0.429570             0.00188922486            0.000378752679           
       0.430249             0.00245980237            0.000429935479           
       0.430928             0.00203383779            0.000399489954           
       0.431607             0.00188746343            0.000378233434           
       0.432287             0.00245173467            0.000434236725           
       0.432966             0.00304969918            0.000488564244           
       0.433645             0.00235988872            0.000430221619           
       0.434324             0.00247969447            0.000438348717           
       0.435003             0.00162669817            0.000355643819           
       0.435682             0.00182000209            0.000379267045           
       0.436361             0.00190096336             0.00038709219           
       0.437041             0.00158155074             0.00035260554           
       0.437720             0.00309729665            0.000495825326           
       0.438399             0.00193718308            0.000394169505           
       0.439078              0.0027472292             0.00048301398           
       0.439757             0.00336182105            0.000531026046           
       0.440436             0.00257168599            0.000474915507           
       0.441116             0.00275614002            0.000499691723           
       0.441795             0.00267700106            0.000493058796           
       0.442474             0.00233642314            0.000461912276           
       0.443153             0.00275071831            0.000512887787           
       0.443832             0.00351931758            0.000581112141           
       0.444511             0.00215311748            0.000452484086           
       0.445191             0.00197856749            0.000444305706           
       0.445870              0.0017805692            0.000421500161           
       0.446549             0.00264714802            0.000519353575           
       0.447228             0.00220424637            0.000471241025           
       0.447907             0.00298820403            0.000555262546           
       0.448586             0.00120096069            0.000360481935           
       0.449266             0.00190021594            0.000449269942           
       0.449945             0.00189927083            0.000447326161           
       0.450624             0.00323238266            0.000592836322           
       0.451303             0.00292030778            0.000570796379           
       0.451982             0.00211211925            0.000482428565           
       0.452661             0.00357794902            0.000639598402           
       0.453341             0.00244986231            0.000531105049           
       0.454020             0.00187692476            0.000465580027           
       0.454699             0.00226495522            0.000516118267           
       0.455378             0.00228109832            0.000518232236           
       0.456057             0.00163261873            0.000446221662           
       0.456736             0.00160865424            0.000441553392           
       0.457416             0.00234181498            0.000532770896           
       0.458095             0.00168441581            0.000458383456           
       0.458774             0.00276089201            0.000594608232           
       0.459453               0.002003949             0.00050913669           
       0.460132             0.00165111662            0.000452166232           
       0.460811             0.00207063682            0.000525254293           
       0.461490             0.00229773806            0.000547681805           
       0.462170             0.00169804502            0.000478164857           
       0.462849             0.00158222377            0.000464563094           
       0.463528             0.00131450548            0.000422458137           
       0.464207              0.0016507429            0.000482273325           
       0.464886             0.00176376483            0.000494628265           
       0.465565              0.0018131532            0.000507014765           
       0.466245            0.000971173196             0.00037221792           
       0.466924            0.000725611748            0.000329337084           
       0.467603             0.00199049775             0.00053389823           
       0.468282             0.00118869065            0.000422367336           
       0.468961             0.00105944165            0.000401363705           
       0.469640             0.00121749471            0.000431978582           
       0.470320            0.000921736226            0.000376124886           
       0.470999             0.00156103703            0.000494097191           
       0.471678             0.00111722193             0.00042201709           
       0.472357              0.0020841416            0.000578009081           
       0.473036             0.00131000899             0.00046114859           
       0.473715              0.0019769609             0.00057093542           
       0.474395             0.00222527161            0.000614103638           
       0.475074              0.0010464278            0.000421131221           
       0.475753            0.000514199905            0.000292661185           
       0.476432             0.00199360156            0.000597239076           
       0.477111             0.00108633445            0.000435538886           
       0.477790            0.000746235695            0.000362908732           
       0.478470            0.000950270874             0.00041494327           
       0.479149              0.0018898033            0.000591210672           
       0.479828             0.00153302685             0.00053123328           
       0.480507            0.000232284956            0.000208453067           
       0.481186            0.000639700548            0.000353726347           
       0.481865            0.000835178895            0.000399169401           
       0.482545            -0.00030986397                         0           
       0.483224           -0.000114465059                         0           
       0.483903           -0.000109852057                         0           
       0.484582           -0.000113705773                         0           
       0.485261            0.000685266769            0.000370573748           
       0.485940           -0.000105497466                         0           
       0.486619             0.00114575891            0.000493018412           
       0.487299            0.000547329641            0.000346186254           
       0.487978            0.000331601051            0.000266714011           
       0.488657            0.000153884596            0.000189189428           
       0.489336           -8.64967251e-05                         0           
       0.490015           -8.27576492e-05                         0           
       0.490694            -0.00031008769                         0           
       0.491374             0.00037665723            0.000297517024           
       0.492053            0.000156785739            0.000197217622           
       0.492732           -0.000310144022                         0           
       0.493411           -0.000310163019                         0           
       0.494090           -0.000310182142                         0           
       0.494769           -0.000310200895                         0           
       0.495449           -0.000310219911                         0           
       0.496128           -4.49988446e-05                         0           
       0.496807            0.000508638467             0.00037283641           
       0.497486           -0.000310276893                         0           
       0.498165           -0.000310296207                         0           
       0.498844            0.000248223264            0.000261714948           
       0.499524           -0.000310334343                         0           
       0.500203           -3.04947874e-05                         0           
       0.500882           -1.91798439e-05                         0           
       0.501561           -1.83555913e-05                         0           
       0.502240             0.00026284581            0.000274963693           
       0.502919           -0.000310430497                         0           
       0.503599           -0.000310449837                         0           
       0.504278           -0.000310469449                         0           
       0.504957            -0.00031048883                         0           
       0.505636           -0.000310508087                         0           
       0.506315              0.0003297309            0.000324063656           
       0.506994           -0.000310546885                         0           
       0.507673            3.23300522e-06            3.30078661e-05           
       0.508353           -0.000310585659                         0           
       0.509032           -0.000310605165                         0           
       0.509711            3.22501756e-05            0.000103661645           
       0.510390            4.27482552e-05            0.000122368258           
       0.511069           -0.000310664254                         0           
       0.511748           -0.000310683929                         0           
       0.512428           -0.000310703745                         0           
       0.513107           -0.000310723255                         0           
       0.513786            8.06852685e-05            0.000177474654           
       0.514465            6.26999751e-05             0.00015145422           
       0.515144           -0.000310782624                         0           
       0.515823            7.90932497e-05            0.000175145107           
       0.516503            9.06267873e-05            0.000192357307           
       0.517182           -0.000310842124                         0           
       0.517861            0.000102312764            0.000205845955           
       0.518540           -0.000310881927                         0           
       0.519219           -0.000310901769                         0           
       0.519898           -0.000310921812                         0           
       0.520578            0.000132287097            0.000239259433           
       0.521257           -0.000310961877                         0           
       0.521936           -0.000310981827                         0           
       0.522615           -0.000311002016                         0           
       0.523294           -0.000311022281                         0           
       0.523973           -0.000311042265                         0           
       0.524653           -0.000311062105                         0           
       0.525332            0.000150847302            0.000263507455           
       0.526011           -0.000311102724                         0           
       0.526690            0.000638355682             0.00055088544           
       0.527369            0.000728778995            0.000612873484           
       0.528048           -0.000311163886                         0           
       0.528728            -0.00031118429                         0           
       0.529407           -0.000311204598                         0           
       0.530086           -0.000311224803                         0           
       0.530765            0.000240173179            0.000365920817           
       0.531444            0.000206222502            0.000322533114           
       0.532123           -0.000311286299                         0           
       0.532802            0.000219839206            0.000340484723           
       0.533482           -0.000311327514                         0           
       0.534161            -0.00031134812                         0           
       0.534840           -0.000311368549                         0           
       0.535519           -0.000311389356                         0           
       0.536198           -0.000311409948                         0           
       0.536877           -0.000311430256                         0           
       0.537557           -0.000311450914                         0           
       0.538236            0.000312836123            0.000444046764           
       0.538915           -0.000311492593                         0           
       0.539594           -0.000311513401                         0           
       0.540273           -0.000311534534                         0           
       0.540952           -0.000311555432                         0           
       0.541632           -0.000311575948                         0           
       0.542311           -0.000311596652                         0           
       0.542990           -0.000311617588                         0           
       0.543669           -0.000311638698                         0           
       0.544348             0.00115330662             0.00091138538           
       0.545027            0.000346718322            0.000475404965           
       0.545707           -0.000311701929                         0           
       0.546386           -0.000311723092                         0           
       0.547065           -0.000311744001                         0           
       0.547744           -0.000311765005                         0           
       0.548423           -0.000311786241                         0           
       0.549102           -0.000311807498                         0           
       0.549782           -0.000311828648                         0           
       0.550461           -0.000311850049                         0           
       0.551140           -0.000311871579                         0           
       0.551819           -0.000311892854                         0           
       0.552498           -0.000311914312                         0           
       0.553177           -0.000311935401                         0           
       0.553856           -0.000311956566                         0           
       0.554536            0.000495252315             0.00062942714           
       0.555215           -0.000311999358                         0           
       0.555894           -0.000312020865                         0           
       0.556573             -0.0003120425                         0           
       0.557252           -0.000312064118                         0           
       0.557931           -0.000312085637                         0           
       0.558611           -0.000312107659                         0           
       0.559290            0.000635790988            0.000777174537           
       0.559969            0.000784228746            0.000929815848           
       0.560648           -0.000312171545                         0           
       0.561327           -0.000312193513                         0           
       0.562006           -0.000312215379                         0           
       0.562686           -0.000312237257                         0           
       0.563365           -0.000312259217                         0           
       0.564044             0.00208685665             0.00156981447           
       0.564723           -0.000312302865                         0           
       0.565402           -0.000312324259                         0           
       0.566081           -0.000312345795                         0           
       0.566761           -0.000312367563                         0           
       0.567440             0.00243054076             0.00181801484           
       0.568119           -0.000312411808                         0           
       0.568798           -0.000312434153                         0           
       0.569477           -0.000312456354                         0           
       0.570156             0.00111875804             0.00126333385           
       0.570836           -0.000312500888                         0           
       0.571515           -0.000312522643                         0           
       0.572194           -0.000312545028                         0           
       0.572873           -0.000312566902                         0           
       0.573552           -0.000312588646                         0           
       0.574231           -0.000312610832                         0           
       0.574911           -0.000312633577                         0           
       0.575590           -0.000312655885                         0           
       0.576269           -0.000312678124                         0           
       0.576948            -0.00031270079                         0           
       0.577627           -0.000312722765                         0           
       0.578306            -0.00031274505                         0           
       0.578985           -0.000312767526                         0           
       0.579665           -0.000312789872                         0           
       0.580344           -0.000312812556                         0           
       0.581023           -0.000312835216                         0           
       0.581702             0.00200877865             0.00216920816           
       0.582381           -0.000312879912                         0           
       0.583060           -0.000312902822                         0           
       0.583740           -0.000312925372                         0           
       0.584419           -0.000312947997                         0           
       0.585098           -0.000312970595                         0           
       0.585777           -0.000312993369                         0           
       0.586456           -0.000313016514                         0           
       0.587135           -0.000313039043                         0           
       0.587815           -0.000313061329                         0           
       0.588494           -0.000313084309                         0           
       0.589173           -0.000313107817                         0           
       0.589852           -0.000313130076                         0           
       0.590531           -0.000313153174                         0           
       0.591210           -0.000313175739                         0           
       0.591890            -0.00031319874                         0           
       0.592569           -0.000313220972                         0           
       0.593248           -0.000313245278                         0           
       0.593927           -0.000313268386                         0           
       0.594606           -0.000313291971                         0           
       0.595285            -0.00031331415                         0           
       0.595965           -0.000313334846                         0           
       0.596644           -0.000313356144                         0           
