################################################################################
# EDF_DataBlockID                     0.Image.Psd
# EDF_BinarySize                      2105344
# EDF_HeaderSize                      2560
# ByteOrder                           LowByteFirst
# DataType                            FloatValue
# Dim_1                               512
# Dim_2                               1028
# Image                               0
# HeaderID                            EH:000000:000000:000000
# Size                                2105344
# Center_1                            304.9000
# Center_2                            588.7000
# Comment                             Xenocs_Cell_Window - 20251028_20perc_iodine_1.23mg
# DDummy                              0.6
# Date                                2025-10-31T02:05:38
# Delta                               21.910000
# Dummy                               -1.5
# ExposureTime                        360
# Gamma                               15.360000
# Intensity1                          8.55198e-10
# PSize_1                             7.5e-05
# PSize_2                             7.5e-05
# Pressure                            0.0327978
# SampleDistance                      0.115750
# SampleEnvKind                       large
# SampleEnvPN                         ElectroChemical cell
# SampleEnvSN                         1141
# Thickness                           0
# Wavelength                          1.541891e-10
# Wavelength                          1.54189e-10
# aux                                 0
# aux_dial                            0.002375
# beamx                               588.434
# beamx_dial                          588.434
# beamz                               657.808
# beamz_dial                          657.808
# det0x                               0
# det0x_dial                          6.36945
# det0xvd                             0
# det0xvd_dial                        0
# det0y                               450.002
# det0y_dial                          481.635
# det0z                               0
# det0z_dial                          1.23302
# det0zvd                             0
# det0zvd_dial                        0
# mag                                 1.818
# mag_dial                            1.818
# om                                  0.2499
# om_dial                             -0.610199
# phi                                 -0.0120535
# phi_dial                            0
# ry                                  0.599993
# ry_dial                             0.599993
# s1bot                               0.8
# s1bot_dial                          -1.66094
# s1hl                                0.8
# s1hl_dial                           -0.608437
# s1hr                                0.8
# s1hr_dial                           0.970938
# s1top                               0.8
# s1top_dial                          -0.461562
# s2bot                               0.45
# s2bot_dial                          1.36109
# s2hl                                0.45
# s2hl_dial                           -0.83375
# s2hr                                0.45
# s2hr_dial                           -0.118594
# s2top                               0.45
# s2top_dial                          1.44734
# w2theta                             32
# w2theta_dial                        32
# waxsch                              19.2605
# waxsch_dial                         -32.7355
# waxsh                               137.085
# waxsh_dial                          -43.5338
# waxsth                              26.0607
# waxsth_dial                         -19.4086
# waxsz                               67.0407
# waxsz_dial                          -23.7954
# wind                                65.9854
# wind_dial                           66.0041
# wpsi                                124
# wpsi_dial                           124
# wstod                               115
# wstod_dial                          115
# x                                   0
# x_dial                              1.00969
# z                                   0
# z_dial                              13.3172
# CountCutoff                         6807993
# DetectorModel                       Dectris EIGER2 Si 500K, S/N E-01-0554
# ThresholdSetting                    4023.88989258
# Saturation                          0
# FlatField                           Corrected
# BackgroundReductionExtra            0.02
# BackgroundCorrectionConstant        0.0026712
# Detector                            0
# Monitor                             0
# Pil_Roi0                            0
# SumForIntensity1                    3.07871e+08
# TransmittedFlux                     855198
# det                                 0
# mon                                 0
# pilai0                              3.07871e+08
# pilai1                              773554
# pilct0                              5.33203e+08
# pilct1                              773554
# pilroi0                             0
# pilroi1                             0
# sec                                 1
# title                               20251028_20perc_iodine_1.23mg_1_00543.edf
# usaxs0                              0
# Operation                           Azimuthal average I(q)
# Error_model                         ErrorModel.poisson
# Geometrical_correction              True
# Transmission_correction             True
# Thickness_correction                False
# Binning mode                        Uniform
# Binning factor                      1.0
# Psi                                 0.0
# Omega                               0.2499
# MaskInvalidPixels                   True
# DetectorEdge                        3
# MaskFiles                           ['WAXS_corrected.edf']
################################################################################
    q(A⁻¹)                Intensity(a.u.)            Sigma_I(a.u.)            
       0.693100             0.00411812658             0.00427789948           
       0.695741             0.00555583711             0.00405474177           
       0.698381              0.0170537343             0.00870183918           
       0.701021             0.00881416861             0.00884390702           
       0.703662             0.00849161688             0.00501058172           
       0.706302             0.00860813618             0.00390575208           
       0.708942             0.00863309635             0.00504840813           
       0.711583             0.00661881279             0.00382778032           
       0.714223             0.00872830499             0.00507483391           
       0.716864                0.01121989             0.00376462707           
       0.719504              0.0118104552             0.00416801078           
       0.722144              0.0100437495             0.00355951044           
       0.724785             0.00638085943             0.00226314993           
       0.727425             0.00728344562             0.00327101267           
       0.730065             0.00726553494             0.00231094069           
       0.732706             0.00871862751             0.00212582646           
       0.735346             0.00610165981             0.00231820508           
       0.737987             0.00699960537             0.00175453367           
       0.740627              0.0116940322             0.00338371327           
       0.743267             0.00655099213             0.00169631738           
       0.745908             0.00569472656             0.00171592671           
       0.748548             0.00737577577             0.00180003348           
       0.751189             0.00399521384             0.00178510297           
       0.753829             0.00943349444             0.00252147498           
       0.756469             0.00735741615             0.00179561974           
       0.759110              0.0126336147             0.00247962531           
       0.761750             0.00719957177             0.00165514575           
       0.764390             0.00662284883             0.00166153999           
       0.767031             0.00592801579             0.00136126354           
       0.769671             0.00534790902             0.00161285076           
       0.772312             0.00925498916             0.00161525646           
       0.774952             0.00618124489             0.00178258899           
       0.777592             0.00735262179             0.00141609226           
       0.780233             0.00715065831             0.00168487319           
       0.782873             0.00762735269             0.00166426987           
       0.785513             0.00828464137              0.0018542892           
       0.788154              0.0077919887             0.00150434913           
       0.790794             0.00829251715             0.00185535367           
       0.793435             0.00802286425             0.00163945106           
       0.796075             0.00838157616             0.00161422008           
       0.798715             0.00736728838             0.00178840748           
       0.801356             0.00606240984             0.00139627578           
       0.803996             0.00367150639             0.00110780524           
       0.806637             0.00610798078             0.00113710959           
       0.809277             0.00869867692             0.00146879582           
       0.811917             0.00694554581             0.00122694661           
       0.814558              0.0091028594             0.00145986014           
       0.817198             0.00571298648              0.0010987502           
       0.819838             0.00645444574              0.0011819771           
       0.822479             0.00959505946             0.00169228116           
       0.825119             0.00538712711             0.00107924741           
       0.827760             0.00799851753             0.00133210971           
       0.830400             0.00822429482             0.00127133435           
       0.833040             0.00624731651             0.00116088944           
       0.835681             0.00615426167             0.00130986692           
       0.838321             0.00786337415             0.00124273172           
       0.840961             0.00791159817             0.00135816025           
       0.843602             0.00524298285             0.00101390392           
       0.846242             0.00761211419             0.00122150557           
       0.848883              0.0076075971             0.00124966421           
       0.851523             0.00660516681             0.00114996056           
       0.854163             0.00722806563             0.00127929666           
       0.856804             0.00622378757             0.00106736643           
       0.859444             0.00561236565            0.000993115089           
       0.862085             0.00879087336             0.00129543208           
       0.864725             0.00680920988             0.00116678556           
       0.867365             0.00514922008             0.00094086933           
       0.870006             0.00779104275             0.00110284445           
       0.872646             0.00755966732             0.00113918318           
       0.875286             0.00807351442             0.00113259996           
       0.877927             0.00795623402             0.00108493903           
       0.880567             0.00875245977             0.00117892151           
       0.883208             0.00652445382             0.00100827982           
       0.885848             0.00770450649             0.00113763945           
       0.888488             0.00736719969             0.00104341652           
       0.891129             0.00635923798            0.000995385276           
       0.893769             0.00782559569             0.00105674723           
       0.896410              0.0077683388            0.000981647708           
       0.899050             0.00718710708             0.00103837439           
       0.901690             0.00583930273             0.00101953268           
       0.904331             0.00896832359             0.00112016501           
       0.906971             0.00710136539             0.00106040481           
       0.909611             0.00878663386             0.00107375732           
       0.912252             0.00797861602             0.00105685357           
       0.914892             0.00851822111             0.00119333106           
       0.917533             0.00700889886              0.0010240021           
       0.920173             0.00642097117            0.000909352504           
       0.922813             0.00794215241             0.00106129676           
       0.925454             0.00793305172            0.000955120799           
       0.928094             0.00640087502            0.000915925224           
       0.930734              0.0066661658             0.00100632219           
       0.933375             0.00979197826             0.00120765727           
       0.936015             0.00661606784            0.000901564054           
       0.938656              0.0069457688             0.00099097078           
       0.941296             0.00954219581             0.00105265249           
       0.943936             0.00759470045            0.000920942325           
       0.946577             0.00693376827            0.000874140105           
       0.949217             0.00876230212            0.000903649607           
       0.951858             0.00671768756            0.000828256288           
       0.954498             0.00574163464            0.000886312739           
       0.957138             0.00786482177            0.000982720776           
       0.959779             0.00727875108            0.000931966936           
       0.962419             0.00738914148            0.000932761535           
       0.965059             0.00780993207             0.00100856752           
       0.967700             0.00709502088            0.000984560248           
       0.970340             0.00704680099            0.000868272733           
       0.972981             0.00841543325            0.000864495059           
       0.975621             0.00764545855            0.000876591658           
       0.978261             0.00907169543            0.000907285113           
       0.980902             0.00672631103            0.000934722343           
       0.983542             0.00774375988            0.000888158788           
       0.986182             0.00707411765            0.000833433836           
       0.988823             0.00723043857            0.000818158251           
       0.991463             0.00885825257            0.000966164273           
       0.994104              0.0085262725            0.000924678326           
       0.996744             0.00877830641            0.000957002801           
       0.999384             0.00943746442            0.000887432845           
       1.002025             0.00718227391             0.00086408093           
       1.004665             0.00782502641            0.000824240113           
       1.007306             0.00721153876            0.000787220044           
       1.009946              0.0072408219             0.00080448269           
       1.012586               0.007964085            0.000821719156           
       1.015227             0.00870620897            0.000922998233           
       1.017867             0.00695866874            0.000793056349           
       1.020507             0.00789549124            0.000818259588           
       1.023148              0.0075098537            0.000861092314           
       1.025788             0.00720160386            0.000773179938           
       1.028429              0.0082873764            0.000868953841           
       1.031069             0.00848253384            0.000827291077           
       1.033709             0.00771493457            0.000838679319           
       1.036350             0.00925729698             0.00082511476           
       1.038990             0.00915437722            0.000835593358           
       1.041630               0.007967665            0.000813082524           
       1.044271             0.00842970421            0.000786533616           
       1.046911             0.00640940369            0.000721409433           
       1.049552             0.00888742456            0.000892502569           
       1.052192             0.00710457522            0.000728654482           
       1.054832             0.00745888212            0.000753394258           
       1.057473             0.00702934942            0.000720986134           
       1.060113              0.0100696844             0.00084159471           
       1.062754             0.00792200224            0.000762133041           
       1.065394             0.00860772939            0.000839921693           
       1.068034             0.00712149986            0.000695114227           
       1.070675             0.00826272133            0.000781029536           
       1.073315             0.00844402841            0.000800869206           
       1.075955             0.00683786698            0.000680370336           
       1.078596             0.00794855183            0.000779616919           
       1.081236             0.00869565121            0.000780830355           
       1.083877             0.00770605285            0.000728464092           
       1.086517              0.0076666843            0.000779128832           
       1.089157             0.00946761148             0.00089838129           
       1.091798              0.0104053539            0.000825711025           
       1.094438              0.0089786849            0.000764543219           
       1.097078             0.00964135062             0.00075985502           
       1.099719              0.0100748349            0.000840172929           
       1.102359             0.00964704393             0.00076994583           
       1.105000             0.00830103415            0.000798631881           
       1.107640             0.00856442604            0.000775642203           
       1.110280             0.00833865493            0.000698323847           
       1.112921             0.00748223805            0.000710585498           
       1.115561             0.00774359725            0.000687046011           
       1.118202              0.0088761985            0.000736269782           
       1.120842             0.00816745884            0.000742287834           
       1.123482             0.00856100452            0.000756641643           
       1.126123             0.00928733292            0.000755906118           
       1.128763             0.00915740425            0.000755746328           
       1.131403             0.00897308113            0.000720860075           
       1.134044             0.00901874566            0.000743651825           
       1.136684              0.0102559542            0.000845497748           
       1.139325             0.00798461517            0.000687234278           
       1.141965             0.00897602335            0.000733468432           
       1.144605             0.00912501686            0.000705144824           
       1.147246             0.00802711239            0.000676849789           
       1.149886              0.0087251778            0.000703161857           
       1.152527             0.00937950857            0.000739653361           
       1.155167             0.00992118731            0.000723552559           
       1.157807             0.00873409577            0.000727887385           
       1.160448             0.00932095327            0.000734292373           
       1.163088             0.00815101509            0.000654977046           
       1.165728             0.00981499433            0.000737932802           
       1.168369              0.0100982783            0.000755421434           
       1.171009             0.00903157427            0.000693315271           
       1.173650             0.00929770097            0.000721913394           
       1.176290             0.00914984075            0.000699839335           
       1.178930              0.0105916582            0.000737972164           
       1.181571             0.00908570484            0.000697052118           
       1.184211              0.0080577201            0.000658762894           
       1.186851             0.00910677122            0.000684706526           
       1.189492             0.00894521175            0.000674040465           
       1.192132             0.00956569676            0.000689205329           
       1.194773             0.00906496102            0.000673855386           
       1.197413             0.00873622868            0.000633833834           
       1.200053             0.00899074212            0.000659337981           
       1.202694             0.00974957017            0.000652916196           
       1.205334             0.00907590247            0.000678894462           
       1.207975             0.00978789037            0.000672962197           
       1.210615             0.00933870721            0.000725156773           
       1.213255              0.0100670561             0.00067420846           
       1.215896              0.0103825431            0.000697097243           
       1.218536             0.00992590869            0.000655383117           
       1.221176              0.0101233467            0.000719587606           
       1.223817              0.0102221714            0.000678778171           
       1.226457             0.00974265937            0.000676016815           
       1.229098             0.00933183156            0.000661577957           
       1.231738              0.0101724517            0.000694132847           
       1.234378             0.00954445286            0.000631788262           
       1.237019              0.0105706992            0.000685159836           
       1.239659             0.00872319954            0.000616990144           
       1.242299              0.0104836449            0.000667795294           
       1.244940              0.0102565004             0.00064239834           
       1.247580               0.010584039            0.000672532043           
       1.250221              0.0102039179            0.000656270206           
       1.252861               0.010205614            0.000624824313           
       1.255501              0.0112350784            0.000711835738           
       1.258142              0.0110235926            0.000662571915           
       1.260782              0.0110480051            0.000677657268           
       1.263423             0.00975079111            0.000611730825           
       1.266063              0.0107120332            0.000657185714           
       1.268703              0.0110497439            0.000661925984           
       1.271344              0.0103327393            0.000661783144           
       1.273984              0.0102726628            0.000637291181           
       1.276624              0.0108344493            0.000642189665           
       1.279265              0.0100597245            0.000629079952           
       1.281905              0.0108682029            0.000656772365           
       1.284546             0.00960196822            0.000596703712           
       1.287186               0.010627196            0.000615891108           
       1.289826              0.0110643045            0.000662313366           
       1.292467              0.0104208185            0.000628607798           
       1.295107             0.00935893648            0.000589802245           
       1.297747             0.00980124633            0.000577574576           
       1.300388              0.0109087261            0.000664249489           
       1.303028              0.0109881676            0.000636437237           
       1.305669              0.0101888824            0.000627445454           
       1.308309              0.0103055609            0.000624813694           
       1.310949               0.009098192            0.000586483233           
       1.313590             0.00968254886            0.000586112033           
       1.316230              0.0108913014            0.000663355923           
       1.318871              0.0111874003            0.000658447736           
       1.321511              0.0100139754            0.000611413009           
       1.324151              0.0098976806            0.000589831807           
       1.326792             0.00970974647            0.000587816987           
       1.329432              0.0101911957            0.000597964172           
       1.332072              0.0106435673            0.000601984304           
       1.334713              0.0102902694            0.000610908816           
       1.337353               0.011199152            0.000611199837           
       1.339994              0.0107078728            0.000627167406           
       1.342634              0.0121132252            0.000639664044           
       1.345274              0.0114820074            0.000644513282           
       1.347915              0.0107708009            0.000606995211           
       1.350555              0.0108333539             0.00061941691           
       1.353195              0.0105985067            0.000615675321           
       1.355836              0.0110931725            0.000620057449           
       1.358476              0.0112618996            0.000606732143           
       1.361117              0.0105841513            0.000588999477           
       1.363757              0.0117427224            0.000639342894           
       1.366397              0.0120156224            0.000627158553           
       1.369038               0.010961128            0.000604971367           
       1.371678              0.0107829103            0.000594743151           
       1.374319              0.0117595825             0.00061574595           
       1.376959              0.0104612074            0.000574919325           
       1.379599              0.0115967967            0.000648719736           
       1.382240              0.0111814453            0.000598681108           
       1.384880              0.0115063793            0.000643287418           
       1.387520              0.0104485726            0.000582190004           
       1.390161              0.0112204341             0.00057300032           
       1.392801              0.0114519274            0.000603137937           
       1.395442              0.0104551606            0.000584162983           
       1.398082              0.0111330638            0.000564499552           
       1.400722              0.0114542636            0.000599769466           
       1.403363               0.011635912            0.000636316543           
       1.406003              0.0109451831            0.000577561238           
       1.408644              0.0105248789            0.000593302347           
       1.411284                0.01022094            0.000553633323           
       1.413924              0.0110021127            0.000572271095           
       1.416565               0.010936554            0.000568322303           
       1.419205              0.0119500739            0.000619712835           
       1.421845              0.0116193282            0.000610717858           
       1.424486             0.00971640754            0.000536821901           
       1.427126              0.0111607009            0.000597664976           
       1.429767              0.0114104659             0.00056858746           
       1.432407              0.0115958354             0.00059985397           
       1.435047                0.01082444            0.000544301569           
       1.437688               0.011371818            0.000566235661           
       1.440328              0.0104479457            0.000553934605           
       1.442968              0.0104687672            0.000566909871           
       1.445609              0.0119455987            0.000586367603           
       1.448249              0.0120984902            0.000605049268           
       1.450890              0.0114661938            0.000585181887           
       1.453530             0.00988150891            0.000568339781           
       1.456170              0.0111271853            0.000585322365           
       1.458811              0.0103964509            0.000541007655           
       1.461451              0.0107190409            0.000550778009           
       1.464092              0.0120986687             0.00058897589           
       1.466732               0.010965553            0.000555898964           
       1.469372              0.0103161752            0.000526569019           
       1.472013              0.0103273034            0.000568221439           
       1.474653              0.0116729765            0.000594789366           
       1.477293              0.0106013393            0.000578776794           
       1.479934              0.0104970418            0.000549550581           
       1.482574              0.0116218225            0.000559360972           
       1.485215             0.00996183841             0.00052752035           
       1.487855              0.0110118203            0.000561940884           
       1.490495              0.0111455242            0.000563259987           
       1.493136              0.0117976873            0.000571561668           
       1.495776              0.0112084019            0.000554567609           
       1.498416              0.0114979953            0.000580062926           
       1.501057              0.0114056694            0.000564997055           
       1.503697              0.0108010518            0.000537534629           
       1.506338              0.0101959008            0.000531802856           
       1.508978              0.0103977653            0.000531760102           
       1.511618              0.0108522466            0.000578566374           
       1.514259              0.0104413189            0.000547901195           
       1.516899               0.011026885            0.000548229137           
       1.519540               0.010223933            0.000536404168           
       1.522180              0.0107557683            0.000555011856           
       1.524820              0.0104148146             0.00054308006           
       1.527461              0.0101774925            0.000539511948           
       1.530101             0.00975152419            0.000522819343           
       1.532741              0.0102576531            0.000533103683           
       1.535382              0.0105274577             0.00054876368           
       1.538022              0.0108270906            0.000524269751           
       1.540663              0.0108621036             0.00056479551           
       1.543303              0.0113148233            0.000535238929           
       1.545943              0.0111497766            0.000562363926           
       1.548584              0.0105524053            0.000556912306           
       1.551224             0.00966910912            0.000492896372           
       1.553864              0.0100545746            0.000531117423           
       1.556505             0.00978356033            0.000506111176           
       1.559145              0.0114373721            0.000553921641           
       1.561786               0.010421355            0.000529153469           
       1.564426             0.00965629663            0.000493516819           
       1.567066              0.0110549939            0.000553296117           
       1.569707             0.00963582397            0.000507283322           
       1.572347             0.00940159982            0.000517665697           
       1.574988              0.0097293276             0.00050124537           
       1.577628             0.00877238129            0.000496305785           
       1.580268             0.00984736397            0.000509479395           
       1.582909             0.00991913162            0.000541992189           
       1.585549             0.00996596796            0.000527498075           
       1.588189             0.00906729012            0.000492171296           
       1.590830             0.00997880308            0.000515669355           
       1.593470             0.00880403982            0.000503544257           
       1.596111              0.0103463841            0.000532940807           
       1.598751             0.00910239724            0.000484363406           
       1.601391              0.0096824667            0.000510580238           
       1.604032             0.00972976443            0.000522525584           
       1.606672              0.0096439262              0.0005054388           
       1.609312             0.00928931647            0.000517827801           
       1.611953             0.00895871389            0.000497628006           
       1.614593             0.00942359119            0.000500638384           
       1.617234              0.0104716818            0.000546942663           
       1.619874             0.00895812467            0.000503875406           
       1.622514             0.00991980678            0.000522999195           
       1.625155             0.00947963654            0.000514284342           
       1.627795             0.00938702078            0.000499226722           
       1.630436             0.00831620338            0.000467436694           
       1.633076             0.00857100726            0.000480767497           
       1.635716             0.00872819825            0.000477607454           
       1.638357             0.00937792532            0.000496369865           
       1.640997             0.00881519169            0.000495824797           
       1.643637             0.00818390023            0.000464895852           
       1.646278             0.00917549553             0.00050772186           
       1.648918             0.00867392135            0.000494996301           
       1.651559             0.00906033069            0.000509828362           
       1.654199              0.0095897102            0.000510133147           
       1.656839             0.00832628226             0.00047550812           
       1.659480             0.00866173867            0.000503204747           
       1.662120             0.00868439829            0.000474555492           
       1.664761             0.00817142554            0.000478160497           
       1.667401             0.00904543015            0.000480839354           
       1.670041              0.0093266375            0.000495701204           
       1.672682             0.00960966282            0.000501098147           
       1.675322             0.00903367359            0.000482724319           
       1.677962               0.008530463            0.000463912247           
       1.680603             0.00876148399            0.000471598865           
       1.683243             0.00914514161            0.000502682726           
       1.685884             0.00891101909            0.000499870785           
       1.688524             0.00922772334            0.000498843342           
       1.691164             0.00847286544            0.000478113069           
       1.693805             0.00899933697            0.000498156267           
       1.696445             0.00816790504            0.000477339773           
       1.699085             0.00999443087            0.000510328153           
       1.701726             0.00836098277            0.000449647501           
       1.704366             0.00856904948            0.000479549103           
       1.707007             0.00772181033            0.000445077767           
       1.709647             0.00862050551            0.000475575793           
       1.712287             0.00889155197            0.000487198573           
       1.714928             0.00841079993            0.000477664947           
       1.717568             0.00808074576            0.000441045276           
       1.720209             0.00774950234            0.000452396914           
       1.722849             0.00833036166            0.000466633747           
       1.725489             0.00824169075            0.000464533344           
       1.728130             0.00913613953            0.000519767187           
       1.730770             0.00894786632            0.000488526319           
       1.733410             0.00800787913            0.000454889661           
       1.736051             0.00874281015            0.000478613837           
       1.738691             0.00860022228            0.000465072218           
       1.741332             0.00887024783              0.0004861277           
       1.743972             0.00895472873            0.000504394327           
       1.746612             0.00785572925            0.000453652989           
       1.749253             0.00874373493            0.000488058681           
       1.751893             0.00840547898            0.000475012707           
       1.754533             0.00830295202             0.00047166591           
       1.757174             0.00788366803            0.000455298564           
       1.759814             0.00821468683            0.000457713959           
       1.762455              0.0076851186            0.000450843874           
       1.765095             0.00908456407            0.000468913899           
       1.767735             0.00952800394            0.000495036809           
       1.770376             0.00823655617            0.000461479882           
       1.773016             0.00777433523            0.000445341087           
       1.775657             0.00795251741            0.000443934758           
       1.778297             0.00887805255            0.000465018085           
       1.780937             0.00813760114            0.000469912801           
       1.783578             0.00797003325            0.000453421251           
       1.786218             0.00875121718             0.00049584281           
       1.788858             0.00721364768            0.000427563416           
       1.791499             0.00837977451            0.000455652875           
       1.794139             0.00831037846             0.00045008078           
       1.796780             0.00837160517            0.000449557946           
       1.799420             0.00901570267              0.0004639481           
       1.802060             0.00899417818            0.000467136915           
       1.804701              0.0088440178            0.000444527959           
       1.807341             0.00846002802            0.000456849345           
       1.809981              0.0100856652            0.000500477924           
       1.812622              0.0087727856            0.000458365017           
       1.815262             0.00843996453            0.000459136494           
       1.817903             0.00882652739            0.000462576328           
       1.820543              0.0090221071            0.000474960574           
       1.823183             0.00936014907            0.000483510752           
       1.825824             0.00903211671            0.000453760144           
       1.828464             0.00916257689            0.000476468799           
       1.831105             0.00874391987            0.000452587242           
       1.833745             0.00821512324            0.000448057572           
       1.836385             0.00849561363            0.000468645753           
       1.839026             0.00821662815            0.000459430498           
       1.841666             0.00873419582            0.000471999733           
       1.844306             0.00860788798            0.000455789157           
       1.846947             0.00829423458            0.000451329961           
       1.849587             0.00796285128            0.000488320252           
       1.852228             0.00903473059            0.000470343886           
       1.854868             0.00882481022            0.000491042733           
       1.857508             0.00874504741            0.000484024276           
       1.860149             0.00814468354            0.000475601104           
       1.862789             0.00816724613            0.000459700471           
       1.865429             0.00856603886            0.000491432636           
       1.868070             0.00790177168            0.000465702864           
       1.870710             0.00813152065            0.000461533102           
       1.873351             0.00823059941            0.000470076628           
       1.875991             0.00748953247            0.000455733382           
       1.878631             0.00798461878            0.000461543032           
       1.881272             0.00806448858            0.000460737789           
       1.883912             0.00812003218            0.000481142439           
       1.886553             0.00830496841            0.000481150585           
       1.889193              0.0088142677             0.00049483732           
       1.891833             0.00792222034            0.000487209328           
       1.894474             0.00859661859             0.00050310326           
       1.897114             0.00792372084            0.000467400593           
       1.899754             0.00802385238            0.000472312536           
       1.902395             0.00806106149            0.000464150737           
       1.905035             0.00868625272            0.000510321478           
       1.907676             0.00720678881            0.000438108047           
       1.910316             0.00830657677            0.000482838846           
       1.912956             0.00824378527            0.000470428146           
       1.915597             0.00786047632            0.000461928597           
       1.918237             0.00834173618            0.000491446963           
       1.920878             0.00846646524            0.000493080694           
       1.923518              0.0083641081            0.000490298971           
       1.926158             0.00805754818            0.000474985246           
       1.928799             0.00831966396            0.000477062365           
       1.931439             0.00845184982            0.000493449171           
       1.934079              0.0085768828             0.00051819962           
       1.936720             0.00765891165            0.000453706417           
       1.939360             0.00832451934             0.00050463647           
       1.942001             0.00836502992            0.000463649235           
       1.944641             0.00780047025            0.000456549271           
       1.947281             0.00689634208            0.000425319199           
       1.949922             0.00798079908            0.000472598033           
       1.952562             0.00806343824            0.000489928927           
       1.955202             0.00690417037            0.000452792253           
       1.957843             0.00785693223            0.000470498914           
       1.960483             0.00880377723            0.000520703053           
       1.963124             0.00806047528            0.000488015402           
       1.965764              0.0085122131            0.000472932371           
       1.968404             0.00797484975            0.000453436171           
       1.971045             0.00755780155            0.000450051566           
       1.973685             0.00714455914            0.000458983248           
       1.976326             0.00810815731            0.000482236387           
       1.978966             0.00820358382             0.00048932272           
       1.981606             0.00876126817            0.000516227803           
       1.984247             0.00773270087            0.000481791138           
       1.986887             0.00796587938            0.000483143691           
       1.989527             0.00796575614            0.000477936834           
       1.992168             0.00794723389            0.000495323094           
       1.994808               0.008546763            0.000511464824           
       1.997449             0.00918810287            0.000519416939           
       2.000089             0.00766563105            0.000472554478           
       2.002729             0.00815421564             0.00048767368           
       2.005370             0.00806981488            0.000479923273           
       2.008010             0.00699127764               0.000466198           
       2.010650             0.00857421091            0.000520137081           
       2.013291             0.00798438893            0.000481572304           
       2.015931             0.00718236466            0.000453516928           
       2.018572             0.00742661219            0.000493258227           
       2.021212             0.00729470007            0.000480074776           
       2.023852              0.0077711471            0.000468971808           
       2.026493             0.00771923678             0.00048828543           
       2.029133             0.00784724664            0.000482410044           
       2.031774              0.0073164302            0.000488855554           
       2.034414             0.00815026236            0.000474755638           
       2.037054             0.00805309535            0.000483878696           
       2.039695             0.00741519272            0.000460812039           
       2.042335             0.00843860114            0.000510863796           
       2.044975             0.00639934016            0.000439479372           
       2.047616             0.00774812839            0.000482379834           
       2.050256             0.00820370853            0.000501056266           
       2.052897             0.00694534836            0.000469528509           
       2.055537             0.00731515783            0.000465705724           
       2.058177             0.00822007381            0.000483436992           
       2.060818             0.00766457206             0.00048902619           
       2.063458             0.00784071937             0.00051543658           
       2.066098             0.00774526526             0.00048326058           
       2.068739             0.00757863636            0.000485464521           
       2.071379             0.00791621116             0.00050909872           
       2.074020             0.00842852073            0.000513897494           
       2.076660             0.00802651248            0.000505546333           
       2.079300             0.00741702203            0.000497880504           
       2.081941             0.00747809468            0.000457739301           
       2.084581             0.00761226798            0.000487463397           
       2.087222             0.00701859929            0.000451408148           
       2.089862              0.0077521541            0.000516706703           
       2.092502             0.00818981948            0.000514818234           
       2.095143             0.00870141745             0.00054798002           
       2.097783             0.00703376195            0.000476995654           
       2.100423             0.00756676508            0.000476726091           
       2.103064             0.00720276272            0.000482622655           
       2.105704             0.00735108596            0.000485151505           
       2.108345              0.0072094555            0.000461588939           
       2.110985             0.00718342342            0.000492119497           
       2.113625             0.00854427315            0.000541396956           
       2.116266              0.0073034927            0.000507647044           
       2.118906             0.00770261909            0.000485853771           
       2.121546             0.00783392101            0.000480622127           
       2.124187             0.00717596787            0.000482854127           
       2.126827             0.00656834292            0.000467115001           
       2.129468             0.00775766127            0.000508943101           
       2.132108             0.00618844398             0.00044225569           
       2.134748              0.0082701378            0.000509273203           
       2.137389             0.00801719729            0.000523110529           
       2.140029             0.00723003258            0.000444735692           
       2.142670             0.00762991086            0.000488265631           
       2.145310             0.00663241849            0.000443085054           
       2.147950             0.00680274723            0.000461874177           
       2.150591             0.00658350524            0.000449778583           
       2.153231             0.00746657682            0.000493050846           
       2.155871             0.00743204306            0.000475217113           
       2.158512             0.00775150759            0.000506400344           
       2.161152             0.00654233214             0.00045065027           
       2.163793             0.00716964532            0.000469637334           
       2.166433             0.00802370813            0.000510184466           
       2.169073             0.00820393376            0.000504397141           
       2.171714             0.00770255809            0.000485087721           
       2.174354             0.00761443828            0.000503964129           
       2.176995             0.00744798092            0.000496327919           
       2.179635               0.007439478            0.000524177779           
       2.182275             0.00708902401            0.000483109511           
       2.184916             0.00657995714            0.000449554786           
       2.187556             0.00737062917            0.000471029975           
       2.190196             0.00667196791            0.000468310538           
       2.192837              0.0085538465            0.000527373512           
       2.195477             0.00667678685            0.000444209599           
       2.198118             0.00730814285            0.000476645697           
       2.200758             0.00690217736            0.000475233325           
       2.203398             0.00669368795            0.000470994729           
       2.206039             0.00702764536            0.000456741007           
       2.208679             0.00777400493            0.000491562693           
       2.211319             0.00763803141            0.000490054267           
       2.213960             0.00733390069            0.000486632546           
       2.216600             0.00847979851            0.000541311855           
       2.219241             0.00774480935            0.000494419122           
       2.221881             0.00732147167            0.000481704945           
       2.224521             0.00789335862            0.000506293398           
       2.227162             0.00707617089            0.000469771518           
       2.229802             0.00800198408            0.000515196683           
       2.232443               0.007624106             0.00049495304           
       2.235083             0.00752743526            0.000506312029           
       2.237723             0.00690243038            0.000465271485           
       2.240364             0.00658653644            0.000465697034           
       2.243004             0.00780609892            0.000502934326           
       2.245644             0.00661911971            0.000467756466           
       2.248285             0.00743454773            0.000485801026           
       2.250925             0.00687709963            0.000470071578           
       2.253566             0.00737752343            0.000520505638           
       2.256206              0.0079369745             0.00052908554           
       2.258846             0.00718711052            0.000478941404           
       2.261487             0.00729077761            0.000506305884           
       2.264127             0.00775144296            0.000504193695           
       2.266767             0.00704889431              0.0004936123           
       2.269408             0.00737763848            0.000507059557           
       2.272048              0.0071309358            0.000495533963           
       2.274689             0.00696097052            0.000496043877           
       2.277329             0.00730319058            0.000478400433           
       2.279969             0.00717798531            0.000504845897           
       2.282610              0.0076195097            0.000505674429           
       2.285250             0.00697238901            0.000462990293           
       2.287891             0.00710751779            0.000501182628           
       2.290531             0.00690294519            0.000500556883           
       2.293171             0.00739136537            0.000504542593           
       2.295812             0.00687477724            0.000484635898           
       2.298452             0.00624238274            0.000482928454           
       2.301092              0.0067403473            0.000466253267           
       2.303733             0.00610869514             0.00046177899           
       2.306373             0.00706284344            0.000504354529           
       2.309014             0.00789370794            0.000522794284           
       2.311654             0.00721035502            0.000521411773           
       2.314294             0.00699128638             0.00047302475           
       2.316935             0.00736044739            0.000487357869           
       2.319575             0.00858323055            0.000551425217           
       2.322215             0.00789391773            0.000551119282           
       2.324856             0.00710658019            0.000480764493           
       2.327496             0.00701405851            0.000507865002           
       2.330137             0.00646755189            0.000466671782           
       2.332777             0.00708772067            0.000503730735           
       2.335417             0.00677391604            0.000477753339           
       2.338058             0.00700757685            0.000500438935           
       2.340698             0.00725143198            0.000505071311           
       2.343339             0.00709014886             0.00051041321           
       2.345979             0.00628064744            0.000454489743           
       2.348619             0.00742394813            0.000512190004           
       2.351260             0.00673738649             0.00048508926           
       2.353900             0.00768141914            0.000516319731           
       2.356540             0.00713203953            0.000496807258           
       2.359181             0.00746797009            0.000501245715           
       2.361821             0.00671035258            0.000458973068           
       2.364462             0.00732870796            0.000501658266           
       2.367102             0.00720780462            0.000511263988           
       2.369742             0.00731879569            0.000542268173           
       2.372383             0.00675555498            0.000471750199           
       2.375023             0.00682137212             0.00049832158           
       2.377663             0.00805924901            0.000517899752           
       2.380304             0.00741154601            0.000504933811           
       2.382944             0.00683997607            0.000462016932           
       2.385585             0.00774598898            0.000524368888           
       2.388225             0.00791492029            0.000527565286           
       2.390865             0.00727252864             0.00050050845           
       2.393506             0.00673976772            0.000472736797           
       2.396146             0.00623977456            0.000491819285           
       2.398787              0.0065926256            0.000465888749           
       2.401427             0.00652837793            0.000447493484           
       2.404067             0.00712498431            0.000477921718           
       2.406708             0.00691923054            0.000465322803           
       2.409348             0.00678986091            0.000488929961           
       2.411988             0.00550456853            0.000431326245           
       2.414629             0.00726402743            0.000510919211           
       2.417269             0.00632318592             0.00048225041           
       2.419910             0.00661982069            0.000494577477           
       2.422550             0.00731049057            0.000497253285           
       2.425190             0.00733563791            0.000525057637           
       2.427831             0.00825413413            0.000553828868           
       2.430471             0.00675530119            0.000477326159           
       2.433112             0.00617447468            0.000444370831           
       2.435752              0.0066989389            0.000489849141           
       2.438392             0.00753385416            0.000501403332           
       2.441033             0.00772580696             0.00053811369           
       2.443673             0.00818892831            0.000554433416           
       2.446313             0.00664499979            0.000499880384           
       2.448954             0.00741761992            0.000502865232           
       2.451594             0.00811593868            0.000565576762           
       2.454235             0.00713613587            0.000497593579           
       2.456875             0.00769364566            0.000540617096           
       2.459515             0.00763624495            0.000552539437           
       2.462156              0.0086661999            0.000555742703           
       2.464796             0.00764073049             0.00051509494           
       2.467436             0.00809833059            0.000548387389           
       2.470077             0.00870965302            0.000539032951           
       2.472717             0.00821573832             0.00052579372           
       2.475358             0.00765643428            0.000512873602           
       2.477998             0.00746706686            0.000497952691           
       2.480638              0.0077874086            0.000517557724           
       2.483279              0.0081215943            0.000552415041           
       2.485919             0.00718588186            0.000500771551           
       2.488560             0.00804762622            0.000528467551           
       2.491200             0.00743950867            0.000523217587           
       2.493840              0.0067929988            0.000529030115           
       2.496481             0.00693503597            0.000525788557           
       2.499121              0.0068872667            0.000509648966           
       2.501761             0.00630048391            0.000493913674           
       2.504402             0.00645465428            0.000492616284           
       2.507042             0.00748919923            0.000526696905           
       2.509683             0.00670868425            0.000490877319           
       2.512323              0.0075992072            0.000548694335           
       2.514963             0.00756158004            0.000540572208           
       2.517604             0.00598557139            0.000499059953           
       2.520244             0.00745441272            0.000522130128           
       2.522884             0.00683775754            0.000507219236           
       2.525525             0.00940526072            0.000601624966           
       2.528165             0.00868420766            0.000569092111           
       2.530806             0.00823062637            0.000563687689           
       2.533446              0.0102065663            0.000614316035           
       2.536086             0.00836121753            0.000551038802           
       2.538727              0.0122554513            0.000640012193           
       2.541367             0.00970071389            0.000575019424           
       2.544008             0.00670997959            0.000493899912           
       2.546648             0.00737187488            0.000526566806           
       2.549288             0.00669235002            0.000511934017           
       2.551929              0.0070898245            0.000518518095           
       2.554569             0.00636637913            0.000473376194           
       2.557209              0.0075309716            0.000519584192           
       2.559850             0.00753244816            0.000521303784           
       2.562490             0.00704571575            0.000521096798           
       2.565131             0.00771231039            0.000565277819           
       2.567771              0.0065112392            0.000500779093           
       2.570411             0.00670345586             0.00050261926           
       2.573052             0.00787694308            0.000551701017           
       2.575692             0.00594896067            0.000476549058           
       2.578332             0.00684636286            0.000513344886           
       2.580973             0.00770672036            0.000539463581           
       2.583613             0.00654584347            0.000485337753           
       2.586254             0.00707556787            0.000503892544           
       2.588894             0.00766625644            0.000544672554           
       2.591534             0.00651459724            0.000519764588           
       2.594175             0.00783111463            0.000559114823           
       2.596815             0.00698554542            0.000531181039           
       2.599456             0.00768238283            0.000528243303           
       2.602096             0.00736757883            0.000521243953           
       2.604736             0.00652378043            0.000502118446           
       2.607377             0.00765817348            0.000529688469           
       2.610017             0.00656513332            0.000481850608           
       2.612657             0.00716383836            0.000535380552           
       2.615298             0.00717036425            0.000522937866           
       2.617938             0.00628776093            0.000523850701           
       2.620579             0.00634679549            0.000505246628           
       2.623219             0.00662075858             0.00051530046           
       2.625859             0.00643560915            0.000493961449           
       2.628500             0.00770778211             0.00053704038           
       2.631140             0.00806711256            0.000557881543           
       2.633780             0.00728628003            0.000529734379           
       2.636421             0.00755688115            0.000552748343           
       2.639061             0.00738099215            0.000514257728           
       2.641702             0.00693140575            0.000509886703           
       2.644342               0.007334485            0.000526737724           
       2.646982             0.00675521902            0.000497952257           
       2.649623             0.00705446244            0.000533266858           
       2.652263             0.00741760741            0.000541332884           
       2.654904             0.00775940851            0.000554221655           
       2.657544             0.00750965258            0.000513549351           
       2.660184             0.00645174334            0.000503751078           
       2.662825             0.00702708428             0.00053792966           
       2.665465             0.00654929056            0.000502267965           
       2.668105             0.00709278588            0.000550938575           
       2.670746             0.00747693937            0.000522550677           
       2.673386             0.00844444696            0.000572313344           
       2.676027             0.00824928481            0.000556582772           
       2.678667              0.0105672235            0.000614668028           
       2.681307              0.0109697222            0.000615340771           
       2.683948              0.0147814037            0.000733901802           
       2.686588              0.0100588487            0.000595376518           
       2.689229              0.0107266248            0.000600778232           
       2.691869              0.0101289713            0.000617020285           
       2.694509             0.00904851979            0.000583504376           
       2.697150             0.00734192545            0.000517078588           
       2.699790             0.00715963631            0.000535310764           
       2.702430             0.00808871193            0.000543880464           
       2.705071             0.00716757166            0.000529030809           
       2.707711             0.00713643918            0.000512347712           
       2.710352             0.00772281726            0.000563161353           
       2.712992             0.00707089436            0.000548831359           
       2.715632             0.00774044452            0.000532770063           
       2.718273             0.00689425113            0.000521090701           
       2.720913             0.00700492879            0.000523762217           
       2.723553             0.00731396547            0.000538781814           
       2.726194             0.00675956855            0.000541438608           
       2.728834             0.00724826172            0.000560932204           
       2.731475             0.00764410904            0.000531639596           
       2.734115              0.0080880357            0.000563831067           
       2.736755             0.00675118427            0.000519370662           
       2.739396             0.00626055389             0.00049724481           
       2.742036             0.00739340804            0.000565524988           
       2.744677             0.00708627473            0.000537197018           
       2.747317             0.00677615893            0.000521565023           
       2.749957             0.00658461722            0.000517748791           
       2.752598             0.00799289584             0.00057662533           
       2.755238             0.00770481648            0.000576358709           
       2.757878             0.00771702974            0.000571772099           
       2.760519             0.00837128773            0.000589202382           
       2.763159             0.00969830107            0.000627847761           
       2.765800             0.00831995661            0.000554182544           
       2.768440             0.00770722923            0.000537315193           
       2.771080              0.0082550458            0.000560724821           
       2.773721             0.00659819811            0.000514237572           
       2.776361             0.00696322214            0.000535558385           
       2.779001             0.00753991146            0.000577135006           
       2.781642             0.00805229497            0.000592027313           
       2.784282             0.00690867027             0.00055739436           
       2.786923             0.00673358165            0.000555131074           
       2.789563              0.0072769953            0.000555811812           
       2.792203             0.00622742355            0.000491178265           
       2.794844              0.0068310621             0.00056381047           
       2.797484             0.00732883075            0.000551145293           
       2.800125             0.00727513755            0.000577402664           
       2.802765             0.00583233131            0.000508092666           
       2.805405                0.00757008            0.000580817246           
       2.808046              0.0071418876             0.00057406905           
       2.810686             0.00673228642            0.000512152707           
       2.813326             0.00731937781            0.000554696512           
       2.815967             0.00808689549            0.000599632581           
       2.818607             0.00707585982            0.000535250489           
       2.821248             0.00658628086            0.000505680625           
       2.823888             0.00718336679             0.00054818629           
       2.826528             0.00681143859            0.000516964879           
       2.829169             0.00674083282            0.000538677936           
       2.831809             0.00724215422            0.000565944481           
       2.834449             0.00567135467             0.00050398699           
       2.837090             0.00801915626            0.000578823397           
       2.839730             0.00690874683             0.00053463301           
       2.842371             0.00638984964             0.00051490581           
       2.845011             0.00681620918            0.000536045877           
       2.847651             0.00609693976            0.000507597541           
       2.850292             0.00676011652             0.00053973688           
       2.852932              0.0062945731             0.00053217101           
       2.855573             0.00660412958            0.000528761984           
       2.858213             0.00652864341            0.000552081714           
       2.860853             0.00806954812            0.000570961356           
       2.863494             0.00787109436            0.000583836508           
       2.866134             0.00644709365            0.000549197285           
       2.868774             0.00713654877            0.000567875927           
       2.871415             0.00717464262              0.0005782586           
       2.874055             0.00720357061             0.00055385652           
       2.876696              0.0063306279            0.000533258456           
       2.879336             0.00777162038            0.000569456501           
       2.881976             0.00670580865            0.000545595211           
       2.884617              0.0076058563            0.000572523678           
       2.887257             0.00775850495            0.000581225002           
       2.889897             0.00784977918            0.000572601548           
       2.892538             0.00656307085            0.000573576266           
       2.895178             0.00703916133            0.000536653803           
       2.897819             0.00753527113            0.000566401053           
       2.900459             0.00510415083            0.000457093141           
       2.903099             0.00721795602            0.000537999244           
       2.905740              0.0066947998            0.000531540811           
       2.908380             0.00625498551            0.000519622251           
       2.911021             0.00811954216              0.0006016508           
       2.913661             0.00627518113            0.000528763818           
       2.916301             0.00692266284            0.000555903169           
       2.918942             0.00662432959            0.000520151274           
       2.921582             0.00670304488            0.000547452001           
       2.924222             0.00603905074            0.000503421655           
       2.926863             0.00636660174            0.000538404645           
       2.929503             0.00778387619              0.0006023764           
       2.932144             0.00526574638            0.000475601837           
       2.934784              0.0064334625            0.000517077603           
       2.937424             0.00713539185            0.000550146479           
       2.940065             0.00707076857            0.000522405928           
       2.942705             0.00716012496            0.000525036969           
       2.945346             0.00641972053            0.000527602212           
       2.947986             0.00694475046            0.000559538108           
       2.950626             0.00640960362            0.000534521023           
       2.953267             0.00755471292            0.000570931288           
       2.955907             0.00715195602            0.000576259173           
       2.958547             0.00669715156            0.000526436622           
       2.961188             0.00707136092             0.00056435592           
       2.963828              0.0086229774            0.000609608683           
       2.966469             0.00730876891            0.000550569451           
       2.969109             0.00769465625            0.000573287059           
       2.971749             0.00657899328            0.000526792379           
       2.974390             0.00787451867            0.000566350402           
       2.977030             0.00754451767             0.00056674512           
       2.979670             0.00822169431            0.000575477436           
       2.982311             0.00864182312            0.000611502936           
       2.984951             0.00701233309            0.000523899303           
       2.987592             0.00639077583            0.000510159451           
       2.990232              0.0066579414            0.000541536795           
       2.992872             0.00684250497             0.00051711888           
       2.995513             0.00934810287            0.000591329532           
       2.998153              0.0107461677            0.000644659988           
       3.000794              0.0112498092            0.000638884241           
       3.003434               0.011090118            0.000635291313           
       3.006074              0.0402485734             0.00119330093           
       3.008715               0.115142889             0.00194832637           
       3.011355               0.209245373             0.00253275754           
       3.013995               0.114533014             0.00187893187           
       3.016636              0.0714276941             0.00145300392           
       3.019276               0.138185276             0.00198659292           
       3.021917               0.507159104             0.00365949622           
       3.024557                1.50837192             0.00620488003           
       3.027197                1.14608354             0.00527312997           
       3.029838               0.538667827             0.00366638321           
       3.032478               0.266318866             0.00258059386           
       3.035118              0.0699972687             0.00134074759           
       3.037759               0.085342922             0.00147852795           
       3.040399               0.119937121             0.00180801633           
       3.043040                 0.4922447             0.00370772067           
       3.045680               0.394694803             0.00312371458           
       3.048320              0.0955343648             0.00157024571           
       3.050961               0.108029845             0.00169920359           
       3.053601              0.0852688699             0.00145395094           
       3.056242              0.0594703571              0.0012909958           
       3.058882              0.0542583096             0.00132277874           
       3.061522              0.0415959198              0.0011363215           
       3.064163              0.0476732917             0.00120118499           
       3.066803               0.111994944             0.00193825578           
       3.069443               0.112172958              0.0020295231           
       3.072084              0.0462673139             0.00126919101           
       3.074724              0.0390885692             0.00130280408           
       3.077365              0.0828357008             0.00196325441           
       3.080005              0.0156452041            0.000858049616           
       3.082645              0.0118788062            0.000785441604           
       3.085286              0.0134953857            0.000843787604           
       3.087926             0.00985608265            0.000715537693           
       3.090566              0.0106963731             0.00073036366           
       3.093207              0.0106329534            0.000757762507           
       3.095847             0.00862444278            0.000654119131           
       3.098488             0.00854595005            0.000721998043           
       3.101128              0.0106354436              0.0008106207           
       3.103768             0.00975611694            0.000761780635           
       3.106409              0.0092894137             0.00079111021           
       3.109049             0.00960421616            0.000771945934           
       3.111690             0.00826435432            0.000703785276           
       3.114330             0.00685909938            0.000654803865           
       3.116970             0.00894494182            0.000753507968           
       3.119611               0.011699064            0.000917262001           
       3.122251              0.0200147159             0.00125498398           
       3.124891               0.032980359             0.00162598959           
       3.127532              0.0245967672             0.00137371672           
       3.130172              0.0152629201             0.00110082233           
       3.132813              0.0114293604            0.000937799257           
       3.135453             0.00776979517            0.000766851945           
       3.138093             0.00701494575            0.000789517926           
       3.140734             0.00666408376            0.000709941685           
       3.143374             0.00591702991            0.000707461271           
       3.146014             0.00735020198            0.000848853718           
       3.148655             0.00736477647            0.000789870074           
       3.151295             0.00662191501            0.000798150588           
       3.153936             0.00619626113            0.000745798424           
       3.156576             0.00391465381            0.000584730102           
       3.159216             0.00571061456            0.000709769012           
       3.161857             0.00602036315            0.000725798164           
       3.164497             0.00694679658            0.000819182082           
       3.167138             0.00896407594            0.000961487924           
       3.169778             0.00686642574            0.000827626957           
       3.172418             0.00703182716            0.000829016663           
       3.175059             0.00591233969            0.000673919982           
       3.177699             0.00550286575            0.000688484638           
       3.180339             0.00732486866            0.000851060554           
       3.182980             0.00537797502            0.000753959103           
       3.185620             0.00679494722             0.00086309018           
       3.188261             0.00555344424            0.000794193167           
       3.190901             0.00585641089            0.000750086775           
       3.193541             0.00541113831            0.000757605476           
       3.196182             0.00679645955            0.000884845934           
       3.198822             0.00608028989            0.000837209165           
       3.201463             0.00634156531            0.000840277198           
       3.204103             0.00573531639            0.000794241661           
       3.206743             0.00648455103            0.000844448492           
       3.209384             0.00539125175            0.000831894907           
       3.212024             0.00645922459            0.000848937832           
       3.214664             0.00663362449            0.000978308933           
       3.217305             0.00544895929            0.000842832041           
       3.219945             0.00650487153            0.000947824467           
       3.222586             0.00601675024            0.000868254324           
       3.225226             0.00663741968             0.00101165384           
       3.227866             0.00527349009            0.000824181348           
       3.230507             0.00550891677            0.000873216398           
       3.233147             0.00673947529            0.000973631469           
       3.235787             0.00718258108               0.001028624           
       3.238428             0.00617225723             0.00102898909           
       3.241068             0.00582882582            0.000935005122           
       3.243709              0.0064067746             0.00101276875           
       3.246349              0.0055864792            0.000862106174           
       3.248989             0.00630169642              0.0010811561           
       3.251630             0.00549095172            0.000971846022           
       3.254270             0.00616735565            0.000920510862           
       3.256911             0.00537856432            0.000937953976           
       3.259551             0.00663897993             0.00112188679           
       3.262191              0.0065170209             0.00113537689           
       3.264832             0.00584983275             0.00112393512           
       3.267472             0.00548990926             0.00102142085           
       3.270112             0.00647908897             0.00122628514           
       3.272753             0.00701358428             0.00116782909           
       3.275393             0.00546414603             0.00105176546           
       3.278034             0.00443875001            0.000948489526           
       3.280674             0.00503005239             0.00109565484           
       3.283314             0.00688641635             0.00114655201           
       3.285955             0.00549515801             0.00105675546           
       3.288595              0.0042905932             0.00103886165           
       3.291235              0.0058118179             0.00124292392           
       3.293876             0.00409095431             0.00105778456           
       3.296516             0.00580088109             0.00120924212           
       3.299157             0.00739236211             0.00134792695           
       3.301797             0.00512622946             0.00128038158           
       3.304437             0.00429599331             0.00101550268           
       3.307078             0.00609018344             0.00133190501           
       3.309718             0.00278903618             0.00093033731           
       3.312359             0.00527301725             0.00127951716           
       3.314999             0.00567065616             0.00130642655           
       3.317639             0.00441989259             0.00110307077           
       3.320280              0.0046705697             0.00120559105           
       3.322920             0.00772854957             0.00157693158           
       3.325560             0.00605049406             0.00139622118           
       3.328201             0.00390246052             0.00100988031           
       3.330841             0.00773717346             0.00173063188           
       3.333482             0.00728010266             0.00158679047           
       3.336122              0.0065717858             0.00150831525           
       3.338762             0.00551304188             0.00159582875           
       3.341403             0.00546757092             0.00151857669           
       3.344043             0.00657468818              0.0015987687           
       3.346683             0.00607902495             0.00156948108           
       3.349324              0.0041110236             0.00145113403           
       3.351964             0.00739938426             0.00205871103           
       3.354605             0.00299104195             0.00149693542           
       3.357245             0.00659671954             0.00200545805           
       3.359885             0.00430390314             0.00129648169           
       3.362526             0.00660488267             0.00200847269           
       3.365166             0.00432083883             0.00153220982           
       3.367807             0.00175334128             0.00124913231           
       3.370447              0.0110062828             0.00259608657           
       3.373087              0.0104087787              0.0026997651           
       3.375728             0.00893014191             0.00282224363           
       3.378368           -2.62389749e-05                         0           
       3.381008             0.00325987931             0.00188674895           
       3.383649             0.00205337991             0.00120124743           
       3.386289             0.00687509138             0.00260146265           
       3.388930             0.00496300242             0.00349618106           
       3.391570             0.00612460775              0.0027474089           
       3.394210             0.00394771977              0.0027914335           
       3.396851              0.0145738112             0.00599949222           
       3.399491             0.00726316375             0.00423655582           
       3.402131           -2.64258779e-05                         0           
       3.404772               0.019339569              0.0138353349           
       3.407412                       nan                       nan           
       3.410053             0.00926129757             0.00958597693           
       3.412693                       nan                       nan           
       3.415333              0.0089973936              0.0094574355           
