################################################################################
# EDF_DataBlockID                     0.Image.Psd
# EDF_BinarySize                      2105344
# EDF_HeaderSize                      2560
# ByteOrder                           LowByteFirst
# DataType                            FloatValue
# Dim_1                               512
# Dim_2                               1028
# Image                               0
# HeaderID                            EH:000000:000000:000000
# Size                                2105344
# Center_1                            304.9000
# Center_2                            588.7000
# Comment                             Xenocs_Cell_Window - 20251028_20perc_iodine_1.23mg
# DDummy                              0.6
# Date                                2025-10-29T01:56:39
# Delta                               21.910000
# Dummy                               -1.5
# ExposureTime                        360
# Gamma                               15.360000
# Intensity1                          8.50564e-10
# PSize_1                             7.5e-05
# PSize_2                             7.5e-05
# Pressure                            0.0336819
# SampleDistance                      0.115750
# SampleEnvKind                       large
# SampleEnvPN                         ElectroChemical cell
# SampleEnvSN                         1141
# Thickness                           0
# Wavelength                          1.541891e-10
# Wavelength                          1.54189e-10
# aux                                 0
# aux_dial                            0.002375
# beamx                               588.434
# beamx_dial                          588.434
# beamz                               657.808
# beamz_dial                          657.808
# det0x                               0
# det0x_dial                          6.36945
# det0xvd                             0
# det0xvd_dial                        0
# det0y                               450.002
# det0y_dial                          481.635
# det0z                               0
# det0z_dial                          1.23302
# det0zvd                             0
# det0zvd_dial                        0
# mag                                 1.818
# mag_dial                            1.818
# om                                  0.2499
# om_dial                             -0.610199
# phi                                 -0.0120535
# phi_dial                            0
# ry                                  0.599993
# ry_dial                             0.599993
# s1bot                               0.8
# s1bot_dial                          -1.66094
# s1hl                                0.8
# s1hl_dial                           -0.608437
# s1hr                                0.8
# s1hr_dial                           0.970938
# s1top                               0.8
# s1top_dial                          -0.461562
# s2bot                               0.45
# s2bot_dial                          1.36109
# s2hl                                0.45
# s2hl_dial                           -0.83375
# s2hr                                0.45
# s2hr_dial                           -0.118594
# s2top                               0.45
# s2top_dial                          1.44734
# w2theta                             32
# w2theta_dial                        32
# waxsch                              19.2605
# waxsch_dial                         -32.7355
# waxsh                               137.085
# waxsh_dial                          -43.5338
# waxsth                              26.0607
# waxsth_dial                         -19.4086
# waxsz                               67.0407
# waxsz_dial                          -23.7954
# wind                                65.9854
# wind_dial                           66.0041
# wpsi                                124
# wpsi_dial                           124
# wstod                               115
# wstod_dial                          115
# x                                   0
# x_dial                              1.00969
# z                                   0
# z_dial                              13.3172
# CountCutoff                         6807993
# DetectorModel                       Dectris EIGER2 Si 500K, S/N E-01-0554
# ThresholdSetting                    4023.88989258
# Saturation                          0
# FlatField                           Corrected
# BackgroundReductionExtra            0.02
# BackgroundCorrectionConstant        0.0026712
# Detector                            0
# Monitor                             0
# Pil_Roi0                            0
# SumForIntensity1                    3.06203e+08
# TransmittedFlux                     850564
# det                                 0
# mon                                 0
# pilai0                              3.06203e+08
# pilai1                              772210
# pilct0                              5.30419e+08
# pilct1                              772210
# pilroi0                             0
# pilroi1                             0
# sec                                 1
# title                               20251028_20perc_iodine_1.23mg_1_00105.edf
# usaxs0                              0
# Operation                           Azimuthal average I(q)
# Error_model                         ErrorModel.poisson
# Geometrical_correction              True
# Transmission_correction             True
# Thickness_correction                False
# Binning mode                        Uniform
# Binning factor                      1.0
# Psi                                 0.0
# Omega                               0.2499
# MaskInvalidPixels                   True
# DetectorEdge                        3
# MaskFiles                           ['WAXS_corrected.edf']
################################################################################
    q(A⁻¹)                Intensity(a.u.)            Sigma_I(a.u.)            
       0.693100             0.00830499543             0.00609158444           
       0.695741             0.00558610614             0.00407683261           
       0.698381             0.00851155854             0.00616432732           
       0.701021           -2.38326909e-05                         0           
       0.703662              0.0114156778             0.00582537175           
       0.706302             0.00686432562             0.00349726778           
       0.708942           -2.37864527e-05                         0           
       0.711583             0.00663594295             0.00384315693           
       0.714223            -2.3773937e-05                         0           
       0.716864              0.0050190061             0.00252473826           
       0.719504              0.0073728354             0.00330211828           
       0.722144              0.0025007934             0.00178098836           
       0.724785             0.00883454293             0.00267021124           
       0.727425             0.00741707512             0.00330986259           
       0.730065              0.0102851202             0.00275701753           
       0.732706             0.00567822332             0.00172024308           
       0.735346              0.0043821248             0.00196992671           
       0.737987             0.00388792359             0.00131118396           
       0.740627              0.0126371455             0.00352708353           
       0.743267             0.00747421742              0.0018168383           
       0.745908             0.00417217739             0.00147273131           
       0.748548             0.00573734214             0.00159188593           
       0.751189             0.00642970956             0.00227074714           
       0.753829             0.00407724487             0.00166219358           
       0.756469              0.0069489087             0.00174980581           
       0.759110             0.00831602833             0.00201725159           
       0.761750             0.00613025924              0.0015314477           
       0.764390             0.00542407029             0.00150775532           
       0.767031               0.010036445             0.00177605876           
       0.769671              0.0078538446             0.00195985151           
       0.772312             0.00704635039             0.00141323858           
       0.774952             0.00775712207              0.0020023657           
       0.777592             0.00820403706             0.00149990613           
       0.780233             0.00716976007             0.00169171172           
       0.782873             0.00838027772             0.00174922583           
       0.785513              0.0095274971              0.0019939298           
       0.788154             0.00696363707             0.00142600939           
       0.790794              0.0066438902             0.00166523136           
       0.793435             0.00602611163             0.00142472866           
       0.796075             0.00657572091             0.00143367735           
       0.798715             0.00389946858             0.00130465353           
       0.801356             0.00574777964             0.00136325924           
       0.803996             0.00736665677             0.00157346226           
       0.806637             0.00615455987             0.00114454226           
       0.809277             0.00849923434             0.00145580956           
       0.811917             0.00717926108             0.00125081243           
       0.814558             0.00815501165             0.00138552532           
       0.817198              0.0070127536             0.00122065097           
       0.819838             0.00740232696             0.00126923943           
       0.822479             0.00723345671             0.00147333487           
       0.825119              0.0065254098             0.00119103943           
       0.827760             0.00783431651             0.00132195186           
       0.830400             0.00805809012             0.00126184597           
       0.833040             0.00866846712             0.00137118199           
       0.835681             0.00895950015             0.00158475061           
       0.838321             0.00907963279             0.00133901948           
       0.840961             0.00722794447             0.00130168574           
       0.843602             0.00609856134             0.00109648103           
       0.846242             0.00904754662             0.00133532832           
       0.848883             0.00639800768             0.00114913697           
       0.851523             0.00744712095              0.0012243768           
       0.854163             0.00728549202             0.00128786252           
       0.856804             0.00772548207             0.00119241874           
       0.859444             0.00670983248             0.00108883552           
       0.862085              0.0051682077            0.000995975041           
       0.864725             0.00823784893             0.00128685448           
       0.867365             0.00883503374             0.00123578389           
       0.870006             0.00595904264            0.000967129331           
       0.872646             0.00726842107              0.0011200621           
       0.875286             0.00733986553             0.00108285204           
       0.877927             0.00801106071             0.00109163238           
       0.880567             0.00895628268             0.00119581382           
       0.883208             0.00734909778             0.00107301513           
       0.885848             0.00687551725              0.0010776178           
       0.888488             0.00816213319              0.0011012557           
       0.891129             0.00873860487             0.00117000997           
       0.893769             0.00877091183             0.00112179791           
       0.896410             0.00657659399            0.000905674069           
       0.899050             0.00830599692              0.0011193158           
       0.901690             0.00788053457             0.00118762228           
       0.904331             0.00873356374             0.00110841388           
       0.906971             0.00844782265             0.00115971958           
       0.909611             0.00869584934             0.00107110172           
       0.912252             0.00715884662             0.00100381205           
       0.914892             0.00721086141              0.0011009305           
       0.917533             0.00837438005             0.00112235985           
       0.920173             0.00904912241             0.00108246778           
       0.922813             0.00854730797             0.00110398265           
       0.925454             0.00669826077            0.000880033135           
       0.928094             0.00708309777            0.000966121626           
       0.930734             0.00869763447             0.00115260211           
       0.933375              0.0064332276            0.000981528194           
       0.936015             0.00776095847            0.000979115966           
       0.938656             0.00640611363            0.000954284447           
       0.941296             0.00572364072            0.000817479522           
       0.943936             0.00807710201            0.000952324006           
       0.946577               0.006510656             0.00084935373           
       0.949217             0.00747675612            0.000837003741           
       0.951858              0.0071899688            0.000859207746           
       0.954498              0.0063210618            0.000932489763           
       0.957138             0.00714137055             0.00093897995           
       0.959779             0.00731144336            0.000936598528           
       0.962419             0.00671594152            0.000891675697           
       0.965059             0.00601038945            0.000887181536           
       0.967700             0.00944652083             0.00113915086           
       0.970340             0.00687223608            0.000859783358           
       0.972981             0.00880549325            0.000886708679           
       0.975621             0.00900392442            0.000953874689           
       0.978261             0.00793236861            0.000850708629           
       0.980902             0.00806215208             0.00102612315           
       0.983542             0.00850333315            0.000933230911           
       0.986182             0.00761592308            0.000867113811           
       0.988823             0.00773267514            0.000848398157           
       0.991463             0.00719252369            0.000872966212           
       0.994104             0.00723556138            0.000854136005           
       0.996744             0.00841448485            0.000939510086           
       0.999384              0.0073927435             0.00078757241           
       1.002025             0.00731523194            0.000874414456           
       1.004665             0.00725555194            0.000795840264           
       1.007306             0.00769785756            0.000815543156           
       1.009946             0.00728597853            0.000809182635           
       1.012586             0.00783698261            0.000817353166           
       1.015227              0.0072698983            0.000845727268           
       1.017867             0.00799820026            0.000852544273           
       1.020507             0.00966511597            0.000907788965           
       1.023148             0.00763320299            0.000870496882           
       1.025788             0.00917455953            0.000875061172           
       1.028429             0.00807458786            0.000860058906           
       1.031069             0.00656988145            0.000730052589           
       1.033709             0.00877356127            0.000896804145           
       1.036350             0.00843035415            0.000789541581           
       1.038990             0.00797550466            0.000782058973           
       1.041630             0.00884171612            0.000858849795           
       1.044271              0.0106196697            0.000885210313           
       1.046911             0.00775326076            0.000795600484           
       1.049552             0.00739439817            0.000816305583           
       1.052192             0.00872107036            0.000809500865           
       1.054832             0.00734595592            0.000749703317           
       1.057473             0.00967611593             0.00084820283           
       1.060113              0.0070002669            0.000703610329           
       1.062754             0.00802319172            0.000769071529           
       1.065394             0.00871977408             0.00084767027           
       1.068034             0.00887153694             0.00077794647           
       1.070675             0.00868939858            0.000803120301           
       1.073315             0.00764845611            0.000764281735           
       1.075955              0.0098519399            0.000818890368           
       1.078596             0.00835596018            0.000801521674           
       1.081236              0.0093153638            0.000810373783           
       1.083877             0.00796260924            0.000742505541           
       1.086517             0.00860103149            0.000827485884           
       1.089157             0.00755057465            0.000804470878           
       1.091798             0.00946669448            0.000789730072           
       1.094438             0.00936573674            0.000782972463           
       1.097078             0.00843407728             0.00071262397           
       1.099719             0.00746200264            0.000725032131           
       1.102359             0.00691402718            0.000653594553           
       1.105000             0.00896653325            0.000832286142           
       1.107640              0.0093174113            0.000811222098           
       1.110280             0.00880101087            0.000719374419           
       1.112921             0.00977324768            0.000814328945           
       1.115561             0.00805364838            0.000702571641           
       1.118202             0.00966912857             0.00077054318           
       1.120842             0.00840690696             0.00075513887           
       1.123482             0.00793409483            0.000730392676           
       1.126123             0.00976585593            0.000777243949           
       1.128763             0.00877915872            0.000741986737           
       1.131403             0.00832304303            0.000696147207           
       1.134044             0.00938153607            0.000760524824           
       1.136684             0.00995831746            0.000835405332           
       1.139325              0.0106308142            0.000795135092           
       1.141965             0.00950334017            0.000756758691           
       1.144605             0.00749696851            0.000640890992           
       1.147246             0.00876210191            0.000709082252           
       1.149886             0.00871892304            0.000704821954           
       1.152527             0.00991377215            0.000762495876           
       1.155167              0.0108230273            0.000757778843           
       1.157807             0.00879548506            0.000732428028           
       1.160448             0.00954703125            0.000745165713           
       1.163088             0.00831121705             0.00066318147           
       1.165728              0.0101470891            0.000752354228           
       1.168369             0.00783272617            0.000667116908           
       1.171009               0.010254483            0.000740774052           
       1.173650             0.00850635608            0.000692387041           
       1.176290             0.00913483491            0.000701167491           
       1.178930             0.00852013599             0.00066368363           
       1.181571             0.00972514802            0.000723125853           
       1.184211             0.00896369262            0.000696700878           
       1.186851               0.010093674            0.000722814292           
       1.189492             0.00945172291            0.000694745891           
       1.192132              0.0092696396            0.000680301747           
       1.194773             0.00917445276            0.000679756952           
       1.197413             0.00942905247            0.000660278699           
       1.200053             0.00874842532            0.000652161425           
       1.202694             0.00808713108            0.000596268392           
       1.205334             0.00887186441            0.000673045839           
       1.207975             0.00914522033            0.000652263456           
       1.210615              0.0101222453            0.000757019028           
       1.213255              0.0098041756            0.000667157441           
       1.215896             0.00981799198            0.000679724101           
       1.218536              0.0102393772            0.000667462273           
       1.221176             0.00848433871            0.000660557243           
       1.223817              0.0105424525            0.000691205133           
       1.226457              0.0106054051              0.0007072325           
       1.229098              0.0105989069            0.000706981353           
       1.231738              0.0100372453            0.000691380121           
       1.234378             0.00966349544            0.000637445407           
       1.237019             0.00941343322            0.000648326693           
       1.239659             0.00925145854            0.000637125909           
       1.242299              0.0109298218              0.0006837126           
       1.244940              0.0109160852             0.00066453538           
       1.247580             0.00953973681            0.000640228941           
       1.250221              0.0103481102             0.00066268871           
       1.252861              0.0102541814             0.00062801308           
       1.255501              0.0102546067            0.000681916308           
       1.258142             0.00963814869            0.000621223816           
       1.260782              0.0097662195            0.000638868166           
       1.263423              0.0112710246            0.000659480528           
       1.266063             0.00995841866            0.000635370709           
       1.268703               0.010463095            0.000645867226           
       1.271344             0.00906645732            0.000621593715           
       1.273984              0.0106027262            0.000649209707           
       1.276624              0.0111518282            0.000653300163           
       1.279265              0.0105659179            0.000646466845           
       1.281905              0.0110838293            0.000665059891           
       1.284546              0.0093941184            0.000591815673           
       1.287186              0.0109894854            0.000628005007           
       1.289826              0.0110005782            0.000662199817           
       1.292467              0.0107950734            0.000641536673           
       1.295107              0.0101840646            0.000616926725           
       1.297747              0.0112592206            0.000620728119           
       1.300388               0.010514141            0.000653899414           
       1.303028              0.0104608783            0.000622668447           
       1.305669              0.0097774271            0.000616317975           
       1.308309              0.0115414606            0.000663017435           
       1.310949              0.0110383047            0.000647752475           
       1.313590              0.0111662526            0.000631130768           
       1.316230              0.0118764541            0.000694592294           
       1.318871              0.0120920346            0.000686414186           
       1.321511               0.010924509            0.000640342339           
       1.324151              0.0110871046            0.000625965478           
       1.326792               0.010736751            0.000619804131           
       1.329432              0.0111651724            0.000627588748           
       1.332072              0.0108055419            0.000608197565           
       1.334713              0.0119381243            0.000659797869           
       1.337353              0.0102087253            0.000585135246           
       1.339994              0.0116481238            0.000655903135           
       1.342634              0.0108874644            0.000608086352           
       1.345274              0.0109389166            0.000630797488           
       1.347915              0.0106137469            0.000604192694           
       1.350555              0.0117179728            0.000645963046           
       1.353195              0.0110427636            0.000630156084           
       1.355836              0.0111149706            0.000622354803           
       1.358476               0.011491209            0.000614545268           
       1.361117              0.0106653387            0.000592862602           
       1.363757              0.0116073727            0.000637376799           
       1.366397              0.0108948137            0.000598816773           
       1.369038              0.0121874871            0.000639652525           
       1.371678             0.00974913281            0.000567053828           
       1.374319              0.0108439434            0.000592896753           
       1.376959              0.0110555761            0.000592633954           
       1.379599              0.0110403641            0.000634687034           
       1.382240              0.0110892971            0.000597830999           
       1.384880              0.0114970572            0.000644776056           
       1.387520              0.0104075768            0.000582627412           
       1.390161              0.0114006116            0.000579153851           
       1.392801              0.0116481486            0.000609937932           
       1.395442              0.0109536102            0.000599552418           
       1.398082              0.0120222444            0.000588205213           
       1.400722              0.0104175196            0.000573538754           
       1.403363               0.010832203            0.000615617894           
       1.406003               0.010103571            0.000556421385           
       1.408644              0.0101116993               0.000583122           
       1.411284             0.00953350856            0.000536145941           
       1.413924              0.0114442397            0.000585244147           
       1.416565              0.0108768962            0.000568311938           
       1.419205              0.0115718739             0.00061148651           
       1.421845              0.0120900992            0.000624661705           
       1.424486               0.010809946            0.000567765458           
       1.427126              0.0120583849            0.000622926035           
       1.429767              0.0107881871            0.000554369927           
       1.432407               0.011536906            0.000599955493           
       1.435047              0.0118015254            0.000569883103           
       1.437688              0.0108093596            0.000553556669           
       1.440328              0.0109213427            0.000567885657           
       1.442968               0.011718404            0.000601423399           
       1.445609              0.0111862539            0.000568968447           
       1.448249              0.0120413894            0.000605261838           
       1.450890              0.0102287863            0.000554208432           
       1.453530              0.0109922968            0.000601063678           
       1.456170              0.0108184147            0.000578714164           
       1.458811              0.0100867883            0.000534339339           
       1.461451              0.0110836836            0.000561591501           
       1.464092              0.0107466374            0.000556602127           
       1.466732              0.0117040574            0.000575875572           
       1.469372              0.0106380806            0.000536176071           
       1.472013              0.0110534202            0.000589457267           
       1.474653              0.0112402185            0.000585247555           
       1.477293              0.0107287261            0.000583827653           
       1.479934              0.0111392592            0.000567652038           
       1.482574              0.0104104119            0.000530846355           
       1.485215              0.0109705685            0.000555090607           
       1.487855              0.0105539732            0.000551631306           
       1.490495              0.0104899371            0.000547929817           
       1.493136              0.0107676878             0.00054752723           
       1.495776              0.0106732948            0.000542639927           
       1.498416              0.0104104918            0.000553451423           
       1.501057              0.0102274309            0.000536474289           
       1.503697              0.0113062062            0.000551457076           
       1.506338              0.0112551778            0.000560265507           
       1.508978              0.0110815306             0.00055045961           
       1.511618              0.0104192716             0.00056844949           
       1.514259             0.00976497112             0.00053130009           
       1.516899              0.0104859462            0.000536067334           
       1.519540             0.00981204889            0.000526917761           
       1.522180               0.010241058            0.000543042468           
       1.524820              0.0107293446            0.000552719164           
       1.527461              0.0101734718            0.000540872751           
       1.530101              0.0105044359            0.000544103603           
       1.532741             0.00989084194            0.000524909158           
       1.535382              0.0101512697            0.000540335658           
       1.538022              0.0106060664            0.000520302515           
       1.540663              0.0103567175            0.000553000049           
       1.543303              0.0100517666            0.000505853596           
       1.545943              0.0106759727             0.00055178252           
       1.548584              0.0101310905            0.000547165894           
       1.551224             0.00987822567             0.00049955315           
       1.553864             0.00986296589            0.000527463367           
       1.556505             0.00975664991            0.000506789565           
       1.559145              0.0101969878            0.000524446265           
       1.561786              0.0109886385            0.000544842951           
       1.564426              0.0107430793            0.000521964408           
       1.567066             0.00971505964            0.000520092922           
       1.569707              0.0104683812            0.000530182954           
       1.572347              0.0102331851            0.000541544017           
       1.574988              0.0105611233            0.000523653314           
       1.577628             0.00995689358            0.000530191011           
       1.580268              0.0103121884             0.00052278352           
       1.582909             0.00982135256            0.000540781333           
       1.585549             0.00979214023            0.000524299915           
       1.588189             0.00915462348             0.00049588116           
       1.590830             0.00976643544            0.000511540446           
       1.593470             0.00893911548            0.000508772656           
       1.596111             0.00880069622            0.000492859387           
       1.598751             0.00904598672            0.000484173755           
       1.601391             0.00939200943            0.000504231641           
       1.604032             0.00930104216             0.00051227368           
       1.606672             0.00948746098            0.000502685641           
       1.609312             0.00887156712             0.00050742691           
       1.611953             0.00938499703            0.000510715325           
       1.614593             0.00866308805            0.000481318028           
       1.617234             0.00939851151            0.000519568676           
       1.619874             0.00923066575             0.00051287433           
       1.622514             0.00919111316            0.000504792984           
       1.625155              0.0088317189            0.000497748451           
       1.627795             0.00894832249            0.000488747543           
       1.630436             0.00912342473            0.000490929396           
       1.633076             0.00902171017             0.00049458785           
       1.635716             0.00910235344             0.00048906376           
       1.638357              0.0090871044            0.000489941944           
       1.640997             0.00834968984            0.000483868526           
       1.643637             0.00976407139            0.000509179395           
       1.646278             0.00880179505            0.000498627887           
       1.648918             0.00921034939            0.000511460508           
       1.651559             0.00902837207            0.000510312882           
       1.654199             0.00841646053            0.000479209465           
       1.656839             0.00832047387            0.000476635344           
       1.659480             0.00807872458            0.000487296657           
       1.662120             0.00921016808            0.000490039124           
       1.664761             0.00914427482            0.000507200012           
       1.667401             0.00829897954            0.000461825149           
       1.670041             0.00890137669            0.000485585662           
       1.672682              0.0084545707            0.000471296638           
       1.675322             0.00879271611            0.000477538451           
       1.677962              0.0088590129            0.000474047698           
       1.680603             0.00885862715            0.000475496108           
       1.683243             0.00961091102            0.000516726651           
       1.685884             0.00808112857            0.000477320313           
       1.688524             0.00872546562            0.000486397174           
       1.691164             0.00911445926            0.000497233927           
       1.693805             0.00938198592            0.000510020426           
       1.696445              0.0093362208             0.00051172623           
       1.699085             0.00925446004            0.000492408879           
       1.701726             0.00875096238            0.000461265813           
       1.704366              0.0094223622            0.000504227462           
       1.707007             0.00802356051            0.000454924935           
       1.709647              0.0100807203            0.000515678466           
       1.712287             0.00850550237            0.000477800991           
       1.714928             0.00919669523            0.000500841674           
       1.717568             0.00910560014            0.000469452418           
       1.720209             0.00849359081            0.000474906631           
       1.722849             0.00812606937            0.000462130165           
       1.725489             0.00932276433            0.000495405619           
       1.728130             0.00832219833            0.000497423578           
       1.730770             0.00878690239            0.000485429274           
       1.733410             0.00770472776            0.000447410116           
       1.736051             0.00919001921            0.000492037016           
       1.738691             0.00755343596            0.000437036465           
       1.741332             0.00870713133            0.000482947452           
       1.743972             0.00862528915            0.000496375854           
       1.746612             0.00864637002            0.000477229489           
       1.749253             0.00908935735            0.000498964881           
       1.751893             0.00820532069            0.000470599665           
       1.754533             0.00775370068            0.000457038284           
       1.757174             0.00893022216            0.000485895736           
       1.759814             0.00862753001             0.00047035063           
       1.762455             0.00863275605            0.000479132312           
       1.765095             0.00925851733            0.000474669822           
       1.767735             0.00804005198            0.000455980002           
       1.770376             0.00868208314            0.000475085473           
       1.773016               0.008966516            0.000479570915           
       1.775657              0.0087931759            0.000468079429           
       1.778297             0.00868272826             0.00046112528           
       1.780937             0.00851086454            0.000481876508           
       1.783578             0.00843046078            0.000467603012           
       1.786218             0.00923181383            0.000510661537           
       1.788858             0.00860920877            0.000468365108           
       1.791499             0.00837280926            0.000456702498           
       1.794139             0.00945545482            0.000481394493           
       1.796780             0.00883480795            0.000463083926           
       1.799420             0.00863058929            0.000455165854           
       1.802060             0.00895139181            0.000467292239           
       1.804701             0.00889497551            0.000447019528           
       1.807341              0.0092511572            0.000479032496           
       1.809981             0.00976198867            0.000493721048           
       1.812622             0.00936671567            0.000474915359           
       1.815262             0.00875430525            0.000468880515           
       1.817903             0.00872098345            0.000461053198           
       1.820543             0.00874177932            0.000468795389           
       1.823183              0.0085611792            0.000463672551           
       1.825824              0.0093283711            0.000462396272           
       1.828464             0.00928201606            0.000480868853           
       1.831105              0.0086818458            0.000452204726           
       1.833745             0.00867457084            0.000461668898           
       1.836385              0.0101286299            0.000513100574           
       1.839026             0.00911148488            0.000485118039           
       1.841666             0.00848847442            0.000466578747           
       1.844306             0.00888152805            0.000464236594           
       1.846947             0.00937935763            0.000481251831           
       1.849587             0.00852429778            0.000506616791           
       1.852228             0.00893487996            0.000469009998           
       1.854868             0.00843464037            0.000481370782           
       1.857508             0.00898804038            0.000492037731           
       1.860149             0.00974762841            0.000521717097           
       1.862789             0.00923954691            0.000490277885           
       1.865429             0.00854934768            0.000492289194           
       1.868070               0.008570595            0.000486331048           
       1.870710             0.00987934153            0.000510106443           
       1.873351             0.00879390715            0.000487218425           
       1.875991             0.00861363043            0.000490068111           
       1.878631             0.00883718476            0.000486879975           
       1.881272             0.00903881651            0.000489103807           
       1.883912             0.00896975785            0.000507066582           
       1.886553             0.00926062402            0.000509462229           
       1.889193             0.00835075143             0.00048296087           
       1.891833             0.00817414811            0.000496241667           
       1.894474             0.00879580885            0.000510282921           
       1.897114             0.00898551837              0.0004990868           
       1.899754             0.00799856476             0.00047285053           
       1.902395             0.00907321674            0.000493768534           
       1.905035             0.00881520113            0.000515493946           
       1.907676             0.00917079504            0.000495557058           
       1.910316             0.00820744311            0.000481254653           
       1.912956             0.00931465479            0.000501410223           
       1.915597             0.00874473116             0.00048854378           
       1.918237             0.00890642012            0.000509189992           
       1.920878             0.00911331465            0.000512961719           
       1.923518             0.00829769422            0.000489677012           
       1.926158             0.00905887262            0.000505004887           
       1.928799             0.00855508157            0.000485080907           
       1.931439             0.00919523618            0.000516092826           
       1.934079             0.00829149118            0.000510891307           
       1.936720             0.00887167632            0.000489636828           
       1.939360             0.00913336499            0.000530022488           
       1.942001             0.00896008447            0.000481162408           
       1.944641             0.00873554994            0.000484453643           
       1.947281             0.00804209846            0.000460542933           
       1.949922             0.00896700025            0.000502310379           
       1.952562             0.00945571875            0.000531985829           
       1.955202             0.00817585268            0.000494071276           
       1.957843             0.00888605989            0.000501725968           
       1.960483             0.00865201458            0.000517599756           
       1.963124              0.0081396432            0.000491740216           
       1.965764              0.0085540402            0.000475382599           
       1.968404             0.00732393577            0.000435719513           
       1.971045             0.00740440444            0.000446672733           
       1.973685             0.00806785517            0.000489066599           
       1.976326             0.00801228476            0.000480680962           
       1.978966             0.00813370957            0.000488559813           
       1.981606             0.00892560238             0.00052246417           
       1.984247             0.00856656355            0.000508482912           
       1.986887             0.00830916025            0.000494786518           
       1.989527             0.00836355679            0.000491057494           
       1.992168             0.00819279753            0.000504285557           
       1.994808             0.00904905396            0.000527711269           
       1.997449             0.00832675118             0.00049581632           
       2.000089             0.00840741327            0.000496236796           
       2.002729             0.00838641706            0.000495913909           
       2.005370             0.00897536126            0.000507511437           
       2.008010             0.00832147347            0.000510002245           
       2.010650             0.00764352491            0.000492433304           
       2.013291             0.00744656158            0.000466335409           
       2.015931             0.00822565124            0.000486659003           
       2.018572             0.00753215095             0.00049810203           
       2.021212             0.00863801679            0.000523832005           
       2.023852             0.00790456909            0.000474267223           
       2.026493             0.00838123816            0.000510176576           
       2.029133             0.00848944353            0.000503126441           
       2.031774             0.00824323386            0.000520306901           
       2.034414             0.00842771733            0.000484082248           
       2.037054             0.00791911896            0.000481142094           
       2.039695             0.00765342833            0.000469429573           
       2.042335             0.00822974261            0.000505874587           
       2.044975             0.00837749348             0.00050420574           
       2.047616             0.00836750923            0.000502653463           
       2.050256             0.00768277015            0.000486205813           
       2.052897             0.00890219284            0.000533019734           
       2.055537             0.00805263679            0.000489946456           
       2.058177             0.00817393738            0.000483389834           
       2.060818             0.00773964295            0.000492752079           
       2.063458             0.00843846694            0.000536177885           
       2.066098              0.0086973663            0.000513495856           
       2.068739             0.00809748111            0.000503172356           
       2.071379             0.00703242224            0.000481144615           
       2.074020              0.0082822121            0.000510803464           
       2.076660             0.00716095132             0.00047880946           
       2.079300             0.00836347389              0.0005301314           
       2.081941             0.00769071053            0.000465463675           
       2.084581             0.00756356359            0.000487223298           
       2.087222              0.0077914023            0.000476904944           
       2.089862             0.00739722504            0.000506112603           
       2.092502             0.00755163577            0.000495697939           
       2.095143             0.00822107939            0.000534089429           
       2.097783             0.00748234558            0.000493309308           
       2.100423             0.00763946873            0.000480313966           
       2.103064             0.00669585621            0.000466596041           
       2.105704             0.00827442998            0.000516119794           
       2.108345             0.00742584101            0.000469739222           
       2.110985             0.00752288992            0.000504983318           
       2.113625             0.00703811729            0.000492704283           
       2.116266             0.00613384594            0.000466490532           
       2.118906             0.00742564315            0.000478336194           
       2.121546             0.00791195357            0.000484323867           
       2.124187             0.00728745844            0.000487914349           
       2.126827             0.00737995331            0.000496480908           
       2.129468             0.00739166316            0.000498143822           
       2.132108             0.00734360111            0.000483077796           
       2.134748             0.00822046982            0.000509122876           
       2.137389             0.00734893611            0.000502197159           
       2.140029             0.00754983521            0.000455701475           
       2.142670              0.0073491095            0.000480500255           
       2.145310             0.00786573479             0.00048383873           
       2.147950             0.00791950804            0.000499701274           
       2.150591             0.00758628243            0.000484132817           
       2.153231              0.0079690382            0.000510756301           
       2.155871             0.00744866236            0.000477042362           
       2.158512             0.00758416522             0.00050226699           
       2.161152             0.00777540638             0.00049262305           
       2.163793             0.00732887523            0.000476115458           
       2.166433             0.00626466419            0.000452031196           
       2.169073             0.00704842745            0.000468799889           
       2.171714             0.00750080091            0.000479994708           
       2.174354             0.00721298325             0.00049183337           
       2.176995             0.00762414133            0.000503529288           
       2.179635             0.00658521284            0.000494506634           
       2.182275             0.00689403455            0.000477715058           
       2.184916             0.00760922565            0.000484753736           
       2.187556             0.00634543709            0.000438234814           
       2.190196             0.00700606061            0.000481197919           
       2.192837             0.00686103114            0.000473600467           
       2.195477             0.00802629906            0.000488361807           
       2.198118             0.00775926465            0.000492472841           
       2.200758             0.00720190108            0.000486762648           
       2.203398             0.00779851613            0.000509763977           
       2.206039             0.00722532023            0.000464379967           
       2.208679             0.00597069395            0.000431965193           
       2.211319             0.00682028519            0.000464338359           
       2.213960             0.00838635573            0.000521795247           
       2.216600             0.00820199807            0.000533819511           
       2.219241             0.00724464448            0.000479488584           
       2.221881             0.00774511973            0.000496793402           
       2.224521             0.00766972266            0.000500427327           
       2.227162             0.00673697109            0.000459620835           
       2.229802             0.00847261464            0.000531572841           
       2.232443             0.00733430308            0.000486775598           
       2.235083              0.0077696924            0.000515794235           
       2.237723             0.00754182783            0.000487667222           
       2.240364             0.00775220201            0.000506602469           
       2.243004             0.00765535289            0.000499409385           
       2.245644             0.00748006117            0.000498599795           
       2.248285             0.00686407051            0.000468060356           
       2.250925             0.00743725163            0.000490170773           
       2.253566             0.00738228669             0.00052209007           
       2.256206              0.0067449287             0.00048906538           
       2.258846             0.00828939841            0.000515758705           
       2.261487             0.00668063675            0.000485975995           
       2.264127             0.00699789559             0.00048036317           
       2.266767              0.0066319029            0.000480091915           
       2.269408             0.00754854353            0.000514294298           
       2.272048             0.00809936234            0.000529548102           
       2.274689             0.00728964845             0.00050900064           
       2.277329             0.00708685646            0.000472543621           
       2.279969             0.00711585058            0.000504023514           
       2.282610             0.00699048387             0.00048566962           
       2.285250             0.00735460299            0.000476804711           
       2.287891             0.00546201725            0.000440548173           
       2.290531             0.00741016544            0.000520031937           
       2.293171             0.00644992902            0.000472599009           
       2.295812             0.00715872432            0.000495888371           
       2.298452             0.00708285582            0.000515812234           
       2.301092             0.00635759814            0.000454053603           
       2.303733             0.00610967449            0.000463072317           
       2.306373             0.00693184575            0.000501014644           
       2.309014             0.00667717179            0.000482132511           
       2.311654             0.00740567424            0.000529864288           
       2.314294             0.00743953748            0.000489280746           
       2.316935             0.00789802328            0.000506214896           
       2.319575             0.00748339918            0.000516286215           
       2.322215             0.00750277491            0.000538753502           
       2.324856             0.00795694147            0.000510099592           
       2.327496             0.00657300644            0.000492975643           
       2.330137             0.00745207991            0.000502296523           
       2.332777             0.00700206044            0.000502039537           
       2.335417             0.00850175353            0.000536683102           
       2.338058             0.00787881716            0.000532080701           
       2.340698             0.00728572268            0.000507641326           
       2.343339             0.00661330377            0.000494291685           
       2.345979             0.00704676974            0.000482721629           
       2.348619             0.00717121289            0.000504765637           
       2.351260             0.00651751625            0.000478406234           
       2.353900             0.00694481029            0.000492275275           
       2.356540             0.00738330142            0.000506857877           
       2.359181             0.00761083964            0.000507394217           
       2.361821             0.00720525748            0.000476890998           
       2.364462             0.00628575022            0.000465857041           
       2.367102             0.00623491611            0.000476802856           
       2.369742             0.00731344025             0.00054354437           
       2.372383             0.00792581723            0.000512369704           
       2.375023             0.00707240245            0.000508788336           
       2.377663             0.00632541455            0.000460068768           
       2.380304             0.00675565271            0.000483385418           
       2.382944              0.0068219482            0.000462662871           
       2.385585              0.0061695214            0.000469249756           
       2.388225             0.00710515348            0.000501209749           
       2.390865              0.0076245923            0.000513874239           
       2.393506             0.00653968901            0.000466933821           
       2.396146              0.0067902735            0.000514451666           
       2.398787             0.00675672792            0.000472934582           
       2.401427             0.00727231386            0.000473587487           
       2.404067              0.0072372581            0.000482982817           
       2.406708             0.00641660166            0.000449322135           
       2.409348              0.0062943823            0.000472033271           
       2.411988             0.00713749118            0.000492489386           
       2.414629             0.00683424608            0.000496922476           
       2.417269             0.00754442521            0.000528198968           
       2.419910             0.00740089802            0.000524364487           
       2.422550             0.00693116797            0.000485498008           
       2.425190              0.0076823417            0.000538783995           
       2.427831             0.00703419436             0.00051265695           
       2.430471             0.00761211836            0.000508072259           
       2.433112             0.00609931288            0.000442859364           
       2.435752             0.00644832369            0.000481906292           
       2.438392             0.00633711309            0.000461109616           
       2.441033             0.00743160946            0.000529204336           
       2.443673             0.00667941373             0.00050209382           
       2.446313             0.00713462283            0.000519378488           
       2.448954             0.00704967009            0.000491567948           
       2.451594              0.0080398821            0.000564451795           
       2.454235             0.00700592885            0.000494374332           
       2.456875             0.00719656616            0.000524283494           
       2.459515             0.00638245542            0.000506520574           
       2.462156             0.00763424243            0.000523024738           
       2.464796             0.00842618197            0.000542394278           
       2.467436             0.00776763893             0.00053853516           
       2.470077             0.00820938062             0.00052474695           
       2.472717             0.00794022471            0.000518308501           
       2.475358             0.00752598174            0.000509868857           
       2.477998             0.00741588898            0.000497593287           
       2.480638             0.00715494479            0.000497445259           
       2.483279             0.00726289779             0.00052381708           
       2.485919             0.00747024004            0.000511972614           
       2.488560             0.00661814901            0.000480543313           
       2.491200             0.00741356319            0.000523725286           
       2.493840             0.00741810978            0.000554339842           
       2.496481             0.00703935971            0.000531169574           
       2.499121             0.00678395511            0.000507188058           
       2.501761               0.007783285            0.000550459539           
       2.504402             0.00619218746             0.00048380924           
       2.507042             0.00785958598            0.000541031746           
       2.509683             0.00724937926            0.000511663621           
       2.512323             0.00719130017            0.000535216978           
       2.514963             0.00671580241            0.000510829808           
       2.517604             0.00774072275            0.000569076314           
       2.520244             0.00646608279            0.000487609891           
       2.522884             0.00710720645            0.000518523176           
       2.525525              0.0133974153            0.000719997154           
       2.528165             0.00794797894            0.000545915794           
       2.530806             0.00640265299            0.000498519244           
       2.533446             0.00657238646            0.000494303183           
       2.536086             0.00705202732            0.000507439479           
       2.538727             0.00711999421            0.000489151346           
       2.541367             0.00688388655            0.000485710351           
       2.544008              0.0068599439            0.000500747132           
       2.546648             0.00676220605            0.000505694861           
       2.549288             0.00843427847            0.000576273266           
       2.551929             0.00602233858             0.00047919094           
       2.554569             0.00682101119            0.000491319934           
       2.557209             0.00761081393            0.000523752147           
       2.559850             0.00637202086             0.00048077429           
       2.562490             0.00763515433            0.000543931982           
       2.565131             0.00708772796            0.000543379255           
       2.567771             0.00622392753            0.000490937795           
       2.570411             0.00690085103            0.000511353127           
       2.573052             0.00706295999             0.00052383938           
       2.575692             0.00736778077            0.000531783985           
       2.578332             0.00769077278            0.000545562001           
       2.580973             0.00634292782            0.000490740673           
       2.583613              0.0069776382            0.000502452868           
       2.586254             0.00784103455            0.000531892424           
       2.588894             0.00806310557            0.000560111943           
       2.591534             0.00713371589            0.000545381806           
       2.594175             0.00673440774            0.000519898733           
       2.596815             0.00588910175             0.00048904269           
       2.599456             0.00720497225            0.000512958254           
       2.602096             0.00741046948            0.000524181073           
       2.604736             0.00683548248            0.000515372137           
       2.607377              0.0076582388            0.000531131685           
       2.610017             0.00739209861            0.000512689416           
       2.612657             0.00769670701            0.000556444711           
       2.615298             0.00728013905            0.000528359059           
       2.617938             0.00670153477            0.000542283632           
       2.620579             0.00581521017            0.000484940793           
       2.623219              0.0069262874            0.000528489968           
       2.625859             0.00720414596            0.000524045888           
       2.628500             0.00721800842            0.000521111622           
       2.631140             0.00631963256            0.000495117969           
       2.633780              0.0075123076            0.000539351326           
       2.636421             0.00686407629            0.000528234842           
       2.639061              0.0071886671            0.000508894176           
       2.641702             0.00737345281            0.000527324947           
       2.644342             0.00722940184            0.000524373376           
       2.646982              0.0070071405            0.000508531946           
       2.649623             0.00724158742            0.000541763023           
       2.652263             0.00654300575            0.000509801347           
       2.654904             0.00736279689            0.000541340391           
       2.657544             0.00677115607            0.000488971462           
       2.660184             0.00629259757             0.00049885263           
       2.662825             0.00629023337            0.000510330034           
       2.665465             0.00779543413            0.000549462861           
       2.668105               0.006789141            0.000540482965           
       2.670746             0.00723586029            0.000515455777           
       2.673386             0.00940915751            0.000605764021           
       2.676027              0.0110724057            0.000646580264           
       2.678667             0.00932973613            0.000579128179           
       2.681307             0.00920594069            0.000565238587           
       2.683948              0.0117298065            0.000655549332           
       2.686588             0.00983240336            0.000590238109           
       2.689229              0.0110540752             0.00061153834           
       2.691869             0.00950758176            0.000599420576           
       2.694509             0.00980742179             0.00060913368           
       2.697150             0.00776190689            0.000533108519           
       2.699790             0.00742827276             0.00054674429           
       2.702430             0.00717672279            0.000513696611           
       2.705071             0.00709004534             0.00052759332           
       2.707711             0.00644486624            0.000488214653           
       2.710352             0.00697765076            0.000536759102           
       2.712992             0.00753376754            0.000568051474           
       2.715632             0.00671517983             0.00049758299           
       2.718273             0.00719954964            0.000533952075           
       2.720913             0.00652995549            0.000507069226           
       2.723553             0.00690940707            0.000525093576           
       2.726194             0.00728454769            0.000563599847           
       2.728834             0.00742247517            0.000569177414           
       2.731475             0.00823889522            0.000553437027           
       2.734115             0.00745245924             0.00054269662           
       2.736755             0.00792242303            0.000564152201           
       2.739396             0.00741240107            0.000542529271           
       2.742036             0.00678326305            0.000543161064           
       2.744677              0.0067412731            0.000525382256           
       2.747317             0.00737881667            0.000545745128           
       2.749957             0.00690444079            0.000531615851           
       2.752598             0.00793921199            0.000576248991           
       2.755238             0.00670260687            0.000539030605           
       2.757878             0.00617246764            0.000512751716           
       2.760519             0.00783150194            0.000571440121           
       2.763159             0.00718232152            0.000541774775           
       2.765800             0.00782914419            0.000539050305           
       2.768440             0.00805812682            0.000550905199           
       2.771080             0.00871948361            0.000577850189           
       2.773721              0.0062805041             0.00050306977           
       2.776361             0.00745771007            0.000555756161           
       2.779001             0.00576782309               0.000506151           
       2.781642              0.0055451935             0.00049262914           
       2.784282             0.00720808613            0.000570893583           
       2.786923             0.00721603422            0.000576237615           
       2.789563             0.00660744886            0.000531065966           
       2.792203             0.00700927482            0.000522518079           
       2.794844              0.0063945068            0.000546981183           
       2.797484             0.00665876132            0.000526775199           
       2.800125             0.00667393776            0.000554535169           
       2.802765             0.00675461234            0.000548279347           
       2.805405             0.00712177963            0.000564889333           
       2.808046             0.00621309681            0.000536897681           
       2.810686             0.00681977051            0.000516871874           
       2.813326             0.00645791106            0.000522449384           
       2.815967             0.00718544756            0.000566762437           
       2.818607             0.00711586133            0.000538221497           
       2.821248             0.00689926299            0.000518964177           
       2.823888              0.0081164185            0.000584286974           
       2.826528             0.00728496389            0.000536086855           
       2.829169             0.00669946474            0.000538483378           
       2.831809             0.00676501468            0.000548471614           
       2.834449             0.00611420695            0.000524717839           
       2.837090             0.00752209148            0.000562122391           
       2.839730             0.00653302907            0.000521306651           
       2.842371             0.00670888756            0.000529038854           
       2.845011              0.0067772953            0.000535967616           
       2.847651             0.00731434346            0.000557482286           
       2.850292             0.00654798416            0.000532645979           
       2.852932             0.00777183411             0.00059293853           
       2.855573             0.00740820699            0.000561550508           
       2.858213             0.00709399053            0.000577054764           
       2.860853             0.00680322231            0.000525677366           
       2.863494             0.00607065719             0.00051412815           
       2.866134             0.00779853661            0.000605665435           
       2.868774             0.00767518347            0.000590518574           
       2.871415             0.00622711025            0.000540188185           
       2.874055             0.00659446155            0.000531364913           
       2.876696             0.00682400535            0.000555154515           
       2.879336             0.00728278563            0.000552755877           
       2.881976             0.00749204956            0.000578262636           
       2.884617             0.00804639453            0.000590472799           
       2.887257             0.00784227967            0.000585944213           
       2.889897             0.00738530288            0.000556913561           
       2.892538             0.00696016083            0.000592280048           
       2.895178             0.00687497089            0.000531800846           
       2.897819              0.0075336262            0.000567879883           
       2.900459             0.00746012157            0.000554109692           
       2.903099             0.00656416313            0.000514451067           
       2.905740             0.00674000461            0.000534783198           
       2.908380             0.00685446482            0.000545432738           
       2.911021             0.00767189095            0.000586421357           
       2.913661              0.0063514562            0.000533414835           
       2.916301             0.00627835609            0.000530842116           
       2.918942             0.00665102653            0.000522616214           
       2.921582             0.00614856752            0.000525746992           
       2.924222             0.00620079027            0.000511506215           
       2.926863             0.00714110952            0.000571765099           
       2.929503             0.00683778653            0.000566118827           
       2.932144             0.00673515414             0.00053934563           
       2.934784             0.00593398936            0.000497950946           
       2.937424             0.00742682989            0.000562795999           
       2.940065             0.00633154336            0.000495689155           
       2.942705             0.00720666508            0.000528173481           
       2.945346             0.00754407334            0.000573497246           
       2.947986             0.00694341774            0.000561006424           
       2.950626             0.00784816003            0.000593079577           
       2.953267             0.00672767301            0.000540240499           
       2.955907             0.00845012138            0.000628082579           
       2.958547             0.00628243095            0.000511263433           
       2.961188             0.00693286424            0.000560322124           
       2.963828             0.00793971809            0.000586549813           
       2.966469             0.00746752657            0.000558030868           
       2.969109             0.00765222065            0.000573259299           
       2.971749             0.00661180371            0.000529540984           
       2.974390              0.0076271471            0.000558899994           
       2.977030             0.00706437226            0.000549906278           
       2.979670              0.0090417417            0.000605136745           
       2.982311             0.00951939066            0.000643547007           
       2.984951             0.00780436181            0.000554198172           
       2.987592             0.00783169471            0.000566287349           
       2.990232             0.00726181757            0.000567101104           
       2.992872             0.00720612732            0.000532124969           
       2.995513              0.0108003138            0.000637332189           
       2.998153              0.0135263998            0.000725228494           
       3.000794              0.0106592033            0.000623579472           
       3.003434              0.0089632552            0.000572687303           
       3.006074              0.0228507293            0.000901580702           
       3.008715              0.0766407521             0.00159386989           
       3.011355               0.249760551             0.00277464514           
       3.013995               0.187678203             0.00241175089           
       3.016636               0.102473712              0.0017450969           
       3.019276               0.138287443             0.00199273346           
       3.021917               0.509312328             0.00367723279           
       3.024557                1.18904405             0.00552405482           
       3.027197                1.09488994             0.00516803457           
       3.029838               0.667702041             0.00409306393           
       3.032478               0.272041726             0.00261526857           
       3.035118              0.0731971567              0.0013747807           
       3.037759              0.0693790554             0.00133671806           
       3.040399              0.0942292829             0.00160693504           
       3.043040                0.33130406             0.00305006927           
       3.045680               0.381390775             0.00307897081           
       3.048320               0.129440322             0.00183274667           
       3.050961               0.146193819             0.00198206497           
       3.053601               0.119021536             0.00172245195           
       3.056242               0.110218229             0.00176230515           
       3.058882               0.130552599             0.00205743763           
       3.061522               0.110805318             0.00185967049           
       3.064163               0.126897047             0.00196506954           
       3.066803               0.173703206             0.00242044733           
       3.069443              0.0963764794             0.00188631962           
       3.072084              0.0481009243              0.0012976166           
       3.074724              0.0386153168             0.00129841601           
       3.077365              0.0262181379             0.00110751233           
       3.080005              0.0100553111            0.000689762184           
       3.082645              0.0158309434            0.000909202748           
       3.085286              0.0138822988            0.000858125926           
       3.087926              0.0122330342            0.000799332154           
       3.090566              0.0105814313            0.000728405023           
       3.093207              0.0127337157            0.000831502525           
       3.095847             0.00983169762            0.000700302094           
       3.098488             0.00757868873            0.000681761888           
       3.101128              0.0100732786            0.000791052208           
       3.103768             0.00919968772             0.00074175044           
       3.106409             0.00898274718            0.000780058665           
       3.109049             0.00935582337            0.000763970815           
       3.111690             0.00873009986            0.000725312492           
       3.114330             0.00847088986            0.000729662529           
       3.116970             0.00804575588            0.000716576159           
       3.119611             0.00941317172            0.000825022275           
       3.122251              0.0160892308             0.00112826456           
       3.124891              0.0330443152             0.00163199299           
       3.127532              0.0255246896             0.00140319569           
       3.130172              0.0192349458             0.00123914959           
       3.132813              0.0108691944            0.000917017111           
       3.135453             0.00904018519            0.000829421411           
       3.138093             0.00634142686            0.000752702173           
       3.140734             0.00647256589             0.00070156923           
       3.143374             0.00748169131            0.000797683337           
       3.146014             0.00649764298            0.000800278189           
       3.148655             0.00645846722             0.00074168662           
       3.151295             0.00657493469            0.000797477793           
       3.153936             0.00585112597            0.000726701688           
       3.156576             0.00602851116            0.000727601601           
       3.159216             0.00602474032            0.000731012185           
       3.161857             0.00552122133            0.000696950508           
       3.164497             0.00620933467            0.000776587735           
       3.167138              0.0076639475            0.000891450372           
       3.169778             0.00731325308            0.000856454717           
       3.172418             0.00795610068            0.000884217571           
       3.175059             0.00499985901            0.000621423057           
       3.177699             0.00579399332            0.000708383815           
       3.180339             0.00605692994            0.000776008816           
       3.182980             0.00518718094            0.000742478593           
       3.185620              0.0058422284            0.000802476341           
       3.188261             0.00662006811            0.000869472813           
       3.190901             0.00627991379            0.000778847481           
       3.193541             0.00637833283            0.000824768786           
       3.196182             0.00508253957            0.000767266992           
       3.198822             0.00553763732            0.000801150163           
       3.201463              0.0059054301            0.000813073768           
       3.204103             0.00706604573            0.000883979177           
       3.206743             0.00596459019            0.000812088486           
       3.209384             0.00811195724             0.00102321365           
       3.212024             0.00572051979            0.000801093634           
       3.214664             0.00550429485            0.000893575519           
       3.217305             0.00588758429            0.000878481589           
       3.219945             0.00652882299            0.000952151027           
       3.222586             0.00590392228            0.000862414636           
       3.225226             0.00651389888             0.00100492266           
       3.227866             0.00621959003            0.000897499951           
       3.230507             0.00624836681            0.000932506516           
       3.233147             0.00663064974              0.0009683658           
       3.235787             0.00530134538            0.000886113338           
       3.238428              0.0068909527             0.00109020516           
       3.241068             0.00799117406             0.00109776299           
       3.243709             0.00595788307            0.000979301445           
       3.246349             0.00589990023              0.0008883699           
       3.248989             0.00580751398             0.00104072176           
       3.251630             0.00554866356            0.000979597537           
       3.254270             0.00467799263            0.000803875934           
       3.256911             0.00608132758             0.00100006306           
       3.259551              0.0055386315             0.00102749433           
       3.262191              0.0045556623            0.000951855657           
       3.264832              0.0056366128             0.00110626318           
       3.267472             0.00495129435            0.000972660652           
       3.270112             0.00557127551             0.00114022787           
       3.272753             0.00567420695             0.00105327483           
       3.275393              0.0048897386            0.000997655076           
       3.278034             0.00587541201             0.00109421131           
       3.280674              0.0052837145             0.00112599644           
       3.283314             0.00671027249             0.00113487242           
       3.285955             0.00533951623             0.00104451625           
       3.288595             0.00634018393             0.00126628019           
       3.291235             0.00881338497             0.00153475747           
       3.293876             0.00658541314             0.00134572481           
       3.296516             0.00529958606             0.00115895641           
       3.299157             0.00691393459             0.00130712528           
       3.301797             0.00643955408             0.00143895805           
       3.304437             0.00652904544              0.0012553186           
       3.307078             0.00613615014             0.00134055888           
       3.309718             0.00497154066             0.00124548557           
       3.312359             0.00687736569             0.00146523545           
       3.314999             0.00574372586             0.00131839344           
       3.317639              0.0044358727             0.00110806923           
       3.320280             0.00372525731             0.00107962533           
       3.322920              0.0035579887             0.00107286722           
       3.325560             0.00645974267             0.00144659264           
       3.328201             0.00865307322             0.00150787616           
       3.330841             0.00697544908             0.00164770499           
       3.333482             0.00590531263             0.00143301957           
       3.336122             0.00588933332             0.00143173727           
       3.338762             0.00417633376             0.00139273368           
       3.341403             0.00674893455             0.00169175303           
       3.344043             0.00702953459             0.00165764368           
       3.346683             0.00649383707             0.00162655838           
       3.349324             0.00671006291             0.00185898412           
       3.351964             0.00515800377              0.0017235277           
       3.354605             0.00530066662             0.00199819054           
       3.357245             0.00854273752             0.00228837894           
       3.359885             0.00472181992             0.00136166318           
       3.362526             0.00361879096             0.00149071618           
       3.365166             0.00650289851             0.00188480982           
       3.367807             0.00267557813             0.00154726204           
       3.370447             0.00551093474             0.00184200714           
       3.373087             0.00206669808             0.00120626978           
       3.375728             0.00356921246             0.00178908659           
       3.378368              0.0020041375             0.00198965976           
       3.381008             0.00329251381              0.0019013278           
       3.383649             0.00345260053             0.00156189136           
       3.386289             0.00689214461             0.00261177276           
       3.388930               0.004921747             0.00349109088           
       3.391570              0.0110842894             0.00370610678           
       3.394210             0.00399876751             0.00281706615           
       3.396851             0.00238500987              0.0024336205           
       3.399491             0.00481132456             0.00345749995           
       3.402131             0.00491140565             0.00494230163           
       3.404772             0.00970917596             0.00982963311           
       3.407412                       nan                       nan           
       3.410053           -2.66481472e-05                         0           
       3.412693                       nan                       nan           
       3.415333           -2.66990713e-05                         0           
