################################################################################
# EDF_DataBlockID                     0.Image.Psd
# EDF_BinarySize                      2105344
# EDF_HeaderSize                      2560
# ByteOrder                           LowByteFirst
# DataType                            FloatValue
# Dim_1                               512
# Dim_2                               1028
# Image                               0
# HeaderID                            EH:000000:000000:000000
# Size                                2105344
# Center_1                            304.9000
# Center_2                            588.7000
# Comment                             Xenocs_Cell_Window - 20251028_20perc_iodine_1.23mg
# DDummy                              0.6
# Date                                2025-10-30T07:56:38
# Delta                               21.910000
# Dummy                               -1.5
# ExposureTime                        360
# Gamma                               15.360000
# Intensity1                          8.50912e-10
# PSize_1                             7.5e-05
# PSize_2                             7.5e-05
# Pressure                            0.0325403
# SampleDistance                      0.115750
# SampleEnvKind                       large
# SampleEnvPN                         ElectroChemical cell
# SampleEnvSN                         1141
# Thickness                           0
# Wavelength                          1.541891e-10
# Wavelength                          1.54189e-10
# aux                                 0
# aux_dial                            0.002375
# beamx                               588.434
# beamx_dial                          588.434
# beamz                               657.808
# beamz_dial                          657.808
# det0x                               0
# det0x_dial                          6.36945
# det0xvd                             0
# det0xvd_dial                        0
# det0y                               450.002
# det0y_dial                          481.635
# det0z                               0
# det0z_dial                          1.23302
# det0zvd                             0
# det0zvd_dial                        0
# mag                                 1.818
# mag_dial                            1.818
# om                                  0.2499
# om_dial                             -0.610199
# phi                                 -0.0120535
# phi_dial                            0
# ry                                  0.599993
# ry_dial                             0.599993
# s1bot                               0.8
# s1bot_dial                          -1.66094
# s1hl                                0.8
# s1hl_dial                           -0.608437
# s1hr                                0.8
# s1hr_dial                           0.970938
# s1top                               0.8
# s1top_dial                          -0.461562
# s2bot                               0.45
# s2bot_dial                          1.36109
# s2hl                                0.45
# s2hl_dial                           -0.83375
# s2hr                                0.45
# s2hr_dial                           -0.118594
# s2top                               0.45
# s2top_dial                          1.44734
# w2theta                             32
# w2theta_dial                        32
# waxsch                              19.2605
# waxsch_dial                         -32.7355
# waxsh                               137.085
# waxsh_dial                          -43.5338
# waxsth                              26.0607
# waxsth_dial                         -19.4086
# waxsz                               67.0407
# waxsz_dial                          -23.7954
# wind                                65.9854
# wind_dial                           66.0041
# wpsi                                124
# wpsi_dial                           124
# wstod                               115
# wstod_dial                          115
# x                                   0
# x_dial                              1.00969
# z                                   0
# z_dial                              13.3172
# CountCutoff                         6807993
# DetectorModel                       Dectris EIGER2 Si 500K, S/N E-01-0554
# ThresholdSetting                    4023.88989258
# Saturation                          0
# FlatField                           Corrected
# BackgroundReductionExtra            0.02
# BackgroundCorrectionConstant        0.0026712
# Detector                            0
# Monitor                             0
# Pil_Roi0                            0
# SumForIntensity1                    3.06328e+08
# TransmittedFlux                     850912
# det                                 0
# mon                                 0
# pilai0                              3.06328e+08
# pilai1                              770543
# pilct0                              5.30716e+08
# pilct1                              770543
# pilroi0                             0
# pilroi1                             0
# sec                                 1
# title                               20251028_20perc_iodine_1.23mg_1_00378.edf
# usaxs0                              0
# Operation                           Azimuthal average I(q)
# Error_model                         ErrorModel.poisson
# Geometrical_correction              True
# Transmission_correction             True
# Thickness_correction                False
# Binning mode                        Uniform
# Binning factor                      1.0
# Psi                                 0.0
# Omega                               0.2499
# MaskInvalidPixels                   True
# DetectorEdge                        3
# MaskFiles                           ['WAXS_corrected.edf']
################################################################################
    q(A⁻¹)                Intensity(a.u.)            Sigma_I(a.u.)            
       0.693100             0.00414620584             0.00430325591           
       0.695741              0.0056117383             0.00408533964           
       0.698381           -2.38408127e-05                         0           
       0.701021            -2.3822944e-05                         0           
       0.703662             0.00286766952             0.00291909694           
       0.706302             0.00690086935             0.00350584753           
       0.708942             0.00576831968             0.00413701255           
       0.711583              0.0133091522              0.0054415568           
       0.714223             0.00877967494             0.00510254812           
       0.716864             0.00998774507              0.0035608395           
       0.719504             0.00295641229             0.00209059078           
       0.722144             0.00883414471              0.0033466909           
       0.724785             0.00560667699             0.00212675528           
       0.727425             0.00591945676             0.00295628109           
       0.730065              0.0139651771             0.00321195343           
       0.732706             0.00882276329             0.00214386322           
       0.735346             0.00790388214             0.00264508176           
       0.737987             0.00708284037             0.00176937412           
       0.740627             0.00488480292             0.00219243108           
       0.743267             0.00613411924             0.00164558642           
       0.745908             0.00571270571              0.0017229562           
       0.748548             0.00441071751             0.00139547598           
       0.751189             0.00482704122             0.00196709247           
       0.753829             0.00813012442             0.00234670217           
       0.756469              0.0074441469             0.00181071539           
       0.759110              0.0068226377             0.00182679332           
       0.761750             0.00458872812             0.00132470778           
       0.764390             0.00833186366             0.00186831658           
       0.767031             0.00721321662             0.00150536924           
       0.769671             0.00488707387             0.00154567308           
       0.772312             0.00791513595             0.00149752379           
       0.774952             0.00514875864             0.00163100587           
       0.777592             0.00600460912             0.00128293254           
       0.780233             0.00598788861             0.00154568886           
       0.782873             0.00729333839             0.00163151486           
       0.785513             0.00708644384             0.00171927679           
       0.788154              0.0066973595             0.00139819357           
       0.790794             0.00829700231              0.0018605234           
       0.793435             0.00769464742             0.00160960425           
       0.796075             0.00717330728             0.00149709938           
       0.798715             0.00567142212             0.00157307578           
       0.801356             0.00609085425             0.00140306785           
       0.803996             0.00602954924             0.00142322876           
       0.806637             0.00615719758             0.00114455338           
       0.809277             0.00697375118             0.00131843604           
       0.811917             0.00894154613              0.0013956284           
       0.814558             0.00653575892             0.00124011328           
       0.817198              0.0074437876             0.00125734764           
       0.819838             0.00607765787             0.00114984347           
       0.822479             0.00630902835             0.00137569113           
       0.825119             0.00607230527             0.00114870951           
       0.827760             0.00914006632             0.00142758156           
       0.830400             0.00786544607             0.00124641636           
       0.833040             0.00821587331              0.0013346334           
       0.835681              0.0104099243              0.0017078668           
       0.838321              0.0084952489             0.00129494696           
       0.840961             0.00770264747             0.00134347605           
       0.843602             0.00802205381             0.00125730715           
       0.846242             0.00649146958             0.00113085086           
       0.848883             0.00866089167             0.00133672446           
       0.851523             0.00845706148             0.00130449316           
       0.854163             0.00613932383             0.00118198375           
       0.856804             0.00493963737            0.000953289274           
       0.859444             0.00543951338            0.000980161501           
       0.862085             0.00709242881             0.00116650644           
       0.864725              0.0072326388             0.00120554129           
       0.867365             0.00779384715             0.00116044762           
       0.870006             0.00720873949             0.00106349915           
       0.872646             0.00984903209             0.00130355696           
       0.875286             0.00746544582             0.00109185286           
       0.877927             0.00848859516             0.00112346742           
       0.880567             0.00735914416              0.0010837385           
       0.883208             0.00812756588             0.00112818483           
       0.885848              0.0068915399             0.00107865207           
       0.888488             0.00830337346             0.00111051592           
       0.891129             0.00716399117             0.00105914936           
       0.893769             0.00700701191             0.00100246647           
       0.896410             0.00793546531            0.000994646574           
       0.899050             0.00662415172             0.00099938554           
       0.901690             0.00589222099             0.00102671802           
       0.904331             0.00689198119            0.000984440391           
       0.906971             0.00746764307             0.00109014319           
       0.909611             0.00698316867            0.000959648419           
       0.912252             0.00729912006             0.00101339161           
       0.914892              0.0084031959             0.00118822791           
       0.917533             0.00926097679             0.00118003628           
       0.920173             0.00841400022             0.00104357624           
       0.922813             0.00809499047              0.0010741549           
       0.925454             0.00809274714            0.000967112862           
       0.928094             0.00802082203             0.00102787618           
       0.930734             0.00654897608            0.000999946373           
       0.933375             0.00868210242             0.00114001863           
       0.936015             0.00727263605            0.000947618552           
       0.938656             0.00927235722             0.00114785433           
       0.941296             0.00689232845            0.000896881069           
       0.943936             0.00705917975            0.000890113203           
       0.946577             0.00783455618            0.000931525178           
       0.949217             0.00784680023               0.000857291           
       0.951858             0.00748483076             0.00087646958           
       0.954498             0.00894063286             0.00110877739           
       0.957138             0.00802174649            0.000994972725           
       0.959779             0.00695679697             0.00091341418           
       0.962419             0.00792622909            0.000968496291           
       0.965059             0.00786514586             0.00101467218           
       0.967700              0.0076535729             0.00102515276           
       0.970340             0.00665486813            0.000845903653           
       0.972981             0.00836237065            0.000863932866           
       0.975621             0.00889163623            0.000947714275           
       0.978261             0.00729229388             0.00081549753           
       0.980902             0.00808106341             0.00102711583           
       0.983542             0.00911977176            0.000966268178           
       0.986182             0.00820244742            0.000899700021           
       0.988823             0.00874790233            0.000902189921           
       0.991463             0.00995417452             0.00102676388           
       0.994104             0.00825157449            0.000911948892           
       0.996744              0.0070165801            0.000857751722           
       0.999384             0.00922521828            0.000879603957           
       1.002025             0.00847828751             0.00094117097           
       1.004665             0.00786102127            0.000828211659           
       1.007306             0.00812106841            0.000837490272           
       1.009946             0.00854008422            0.000875880509           
       1.012586             0.00749347874            0.000799076248           
       1.015227             0.00894545512            0.000937947567           
       1.017867              0.0077258019            0.000837729411           
       1.020507             0.00733813442            0.000790834069           
       1.023148             0.00872526885            0.000930495758           
       1.025788             0.00692665483            0.000760184045           
       1.028429             0.00833483343            0.000873630227           
       1.031069             0.00729443286            0.000769099129           
       1.033709             0.00822385537            0.000868077613           
       1.036350              0.0106509262            0.000887272376           
       1.038990             0.00896812085            0.000829129404           
       1.041630             0.00851787446            0.000842802325           
       1.044271             0.00972067512            0.000846740532           
       1.046911              0.0077633653            0.000795955942           
       1.049552             0.00911811176            0.000906285394           
       1.052192             0.00818410685            0.000784023791           
       1.054832             0.00832604808            0.000797987164           
       1.057473             0.00864898348            0.000801757247           
       1.060113             0.00721141581            0.000713996939           
       1.062754             0.00825373889            0.000779883418           
       1.065394             0.00781442827            0.000802295052           
       1.068034             0.00873422822            0.000771744821           
       1.070675             0.00989585903            0.000856887227           
       1.073315              0.0092650694            0.000841011829           
       1.075955             0.00808534048             0.00074169477           
       1.078596             0.00790584143            0.000779475221           
       1.081236             0.00971974542            0.000827606879           
       1.083877             0.00795802347            0.000742139897           
       1.086517              0.0105748471            0.000917346797           
       1.089157             0.00803835934            0.000829879826           
       1.091798             0.00940373121            0.000786938463           
       1.094438             0.00772091222            0.000710756757           
       1.097078             0.00757075275            0.000675028865           
       1.099719             0.00782028793            0.000742082347           
       1.102359             0.00889821009            0.000741319433           
       1.105000             0.00786674424            0.000779415561           
       1.107640             0.00825531338            0.000763431536           
       1.110280              0.0081071297            0.000690292964           
       1.112921             0.00895634536            0.000779393913           
       1.115561             0.00937758088            0.000757967994           
       1.118202             0.00896416898             0.00074177041           
       1.120842             0.00915342927            0.000787792414           
       1.123482              0.0101616189            0.000826419094           
       1.126123              0.0082724063            0.000715202948           
       1.128763              0.0099600992            0.000790155739           
       1.131403             0.00906801614            0.000726486138           
       1.134044              0.0077620597            0.000691633598           
       1.136684             0.00834649854             0.00076465863           
       1.139325              0.0103419019            0.000784095639           
       1.141965             0.00877369139            0.000726978607           
       1.144605               0.008478924            0.000681432542           
       1.147246             0.00977583342            0.000748825347           
       1.149886              0.0089976018            0.000715850875           
       1.152527             0.00989954344             0.00076179267           
       1.155167              0.0100270384            0.000729231821           
       1.157807             0.00895960343            0.000739078597           
       1.160448              0.0105910509            0.000784692304           
       1.163088                0.01014416            0.000732519671           
       1.165728             0.00987468435            0.000742035042           
       1.168369              0.0107370856            0.000780907976           
       1.171009             0.00978716392            0.000723549891           
       1.173650              0.0096194598            0.000736145511           
       1.176290             0.00865591068            0.000682399938           
       1.178930             0.00960899609            0.000704673638           
       1.181571             0.00977870349            0.000724965921           
       1.184211             0.00962659303            0.000721855651           
       1.186851             0.00847855511            0.000662329641           
       1.189492             0.00811537453             0.00064362952           
       1.192132             0.00947441843            0.000687634435           
       1.194773               0.010569244            0.000729451985           
       1.197413             0.00979604971            0.000672868078           
       1.200053             0.00942787375            0.000676874598           
       1.202694             0.00966496257            0.000651712137           
       1.205334             0.00927808902            0.000688141322           
       1.207975             0.00970166271            0.000671676604           
       1.210615             0.00916530638            0.000720199865           
       1.213255             0.00916237163             0.00064481914           
       1.215896             0.00930774831            0.000661690383           
       1.218536             0.00967456368            0.000648659554           
       1.221176             0.00929486104            0.000691248314           
       1.223817              0.0101380563            0.000677679975           
       1.226457             0.00937782429            0.000664906838           
       1.229098             0.00908963888            0.000654578761           
       1.231738              0.0104296068            0.000704619668           
       1.234378              0.0104429258            0.000662518706           
       1.237019             0.00963585171            0.000655807091           
       1.239659             0.00920533136            0.000635405618           
       1.242299              0.0101491682            0.000658708763           
       1.244940              0.0105120129            0.000651986744           
       1.247580              0.0100806731            0.000657995685           
       1.250221              0.0107946288            0.000676696734           
       1.252861             0.00980086632            0.000613849064           
       1.255501              0.0100615707            0.000675329373           
       1.258142              0.0107207429             0.00065505068           
       1.260782              0.0102671042            0.000654912331           
       1.263423               0.010254078            0.000628897344           
       1.266063              0.0104800329            0.000651665151           
       1.268703               0.010831959            0.000657018869           
       1.271344              0.0100313523            0.000653700353           
       1.273984              0.0110007025            0.000661146368           
       1.276624              0.0102794426            0.000627098394           
       1.279265              0.0108284213            0.000654314266           
       1.281905             0.00990864605            0.000628686557           
       1.284546               0.010847378            0.000635816815           
       1.287186              0.0112627185            0.000635634145           
       1.289826               0.010989573            0.000661733138           
       1.292467              0.0108683263             0.00064357801           
       1.295107             0.00981896156            0.000605643368           
       1.297747             0.00992418656            0.000582647504           
       1.300388              0.0124214056            0.000710592461           
       1.303028              0.0109990549            0.000638354089           
       1.305669              0.0108271763            0.000648427344           
       1.308309              0.0106507125            0.000636788288           
       1.310949              0.0122102927            0.000681133283           
       1.313590              0.0110438023            0.000627532343           
       1.316230              0.0110641187            0.000670279829           
       1.318871              0.0102246027            0.000631060439           
       1.321511               0.010319624            0.000622234898           
       1.324151              0.0115838073            0.000639702646           
       1.326792              0.0106137102            0.000616116463           
       1.329432              0.0106668866            0.000613299265           
       1.332072              0.0105612324            0.000601159721           
       1.334713              0.0124100785            0.000672575898           
       1.337353              0.0105068146            0.000593495198           
       1.339994              0.0107212636            0.000629137945           
       1.342634               0.010516625            0.000597518357           
       1.345274               0.011251642            0.000639619839           
       1.347915              0.0105060105            0.000600995464           
       1.350555              0.0110365969             0.00062677288           
       1.353195              0.0117378312            0.000649552638           
       1.355836              0.0122860164            0.000654185036           
       1.358476              0.0103700006            0.000583675658           
       1.361117              0.0114474746            0.000614091021           
       1.363757              0.0106549504            0.000610542887           
       1.366397              0.0103572811            0.000583738193           
       1.369038              0.0108419922            0.000603188085           
       1.371678              0.0124121196            0.000639698664           
       1.374319              0.0125007691            0.000636451029           
       1.376959              0.0116421451            0.000608027917           
       1.379599              0.0122083087            0.000667278073           
       1.382240              0.0118570237            0.000618052603           
       1.384880              0.0115245687            0.000645415023           
       1.387520              0.0111503738            0.000602937076           
       1.390161              0.0114622245            0.000580597956           
       1.392801              0.0111225925            0.000595897247           
       1.395442              0.0117507141            0.000620857346           
       1.398082              0.0112399744            0.000568630208           
       1.400722               0.012334484            0.000623953567           
       1.403363               0.010791337            0.000614329884           
       1.406003               0.010809296            0.000575408461           
       1.408644              0.0105501611            0.000595508648           
       1.411284              0.0111658759            0.000580115158           
       1.413924              0.0106116146            0.000563437197           
       1.416565              0.0118539114             0.00059316607           
       1.419205              0.0108254897             0.00059131648           
       1.421845              0.0102806323            0.000575905249           
       1.424486               0.011048549            0.000573879884           
       1.427126               0.010702446             0.00058673853           
       1.429767              0.0108152994            0.000554952583           
       1.432407              0.0116559208            0.000602918797           
       1.435047              0.0102524194            0.000531056909           
       1.437688              0.0100707147            0.000534199438           
       1.440328              0.0119822182            0.000594706478           
       1.442968               0.011497772            0.000595612919           
       1.445609              0.0106600553            0.000555311605           
       1.448249              0.0108532485            0.000574507944           
       1.450890              0.0101964421            0.000553218353           
       1.453530              0.0110208892            0.000601721811           
       1.456170              0.0104730473            0.000569285347           
       1.458811              0.0112962817            0.000565352903           
       1.461451              0.0111694515            0.000563644878           
       1.464092              0.0100501499            0.000538153302           
       1.466732              0.0110530168            0.000559515373           
       1.469372              0.0106648829            0.000536741295           
       1.472013               0.010904938            0.000585365014           
       1.474653              0.0109074787            0.000576402149           
       1.477293              0.0097103854            0.000555315748           
       1.479934              0.0110184347            0.000564449603           
       1.482574              0.0102222473            0.000525919469           
       1.485215              0.0106825012            0.000547642267           
       1.487855              0.0115486538            0.000576922888           
       1.490495              0.0124938596            0.000597857906           
       1.493136              0.0110648786            0.000554918234           
       1.495776              0.0109082439            0.000548467739           
       1.498416              0.0113465113            0.000577678539           
       1.501057              0.0124778129             0.00059244228           
       1.503697              0.0112078226            0.000548940231           
       1.506338              0.0110831114            0.000555852712           
       1.508978              0.0116085918            0.000563282848           
       1.511618              0.0109712797            0.000583193964           
       1.514259              0.0105540092            0.000552235493           
       1.516899              0.0105512136            0.000537623091           
       1.519540              0.0107033415            0.000550216807           
       1.522180             0.00994266864            0.000534963361           
       1.524820              0.0103740513            0.000543379557           
       1.527461              0.0116129295            0.000577753494           
       1.530101              0.0111845835            0.000561327497           
       1.532741               0.010672641            0.000545148276           
       1.535382              0.0111800244             0.00056693856           
       1.538022              0.0109073966            0.000527534033           
       1.540663              0.0107588603            0.000563518807           
       1.543303              0.0101806579            0.000508982371           
       1.545943              0.0114128648            0.000570391076           
       1.548584              0.0110276001            0.000570745638           
       1.551224               0.010530867            0.000515686151           
       1.553864              0.0119108428            0.000579523375           
       1.556505              0.0105780363            0.000527583256           
       1.559145              0.0101155417            0.000522240795           
       1.561786              0.0101213386            0.000522792736           
       1.564426               0.010642091            0.000519399057           
       1.567066              0.0110179573            0.000553757887           
       1.569707              0.0112896078            0.000550473728           
       1.572347              0.0107477557            0.000554879161           
       1.574988             0.00938899009            0.000493638944           
       1.577628              0.0101203849            0.000534416819           
       1.580268             0.00938694975            0.000498677634           
       1.582909             0.00976176831            0.000539028171           
       1.585549              0.0105818742            0.000544920877           
       1.588189              0.0104621083            0.000530002778           
       1.590830             0.00949021294             0.00050415153           
       1.593470             0.00962996533            0.000527958789           
       1.596111              0.0101268053            0.000528581455           
       1.598751              0.0103658148            0.000518186589           
       1.601391             0.00973604363            0.000513278727           
       1.604032             0.00971990442            0.000523574405           
       1.606672             0.00987865551            0.000512839624           
       1.609312             0.00867862953            0.000501776217           
       1.611953              0.0102982595            0.000534878216           
       1.614593             0.00938681999            0.000500917476           
       1.617234             0.00899114936             0.00050808012           
       1.619874              0.0102233671            0.000539638097           
       1.622514             0.00979690597            0.000521056596           
       1.625155              0.0097817078            0.000523728027           
       1.627795             0.00962265928              0.0005067252           
       1.630436             0.00926788762            0.000494699697           
       1.633076             0.00924246444            0.000500499994           
       1.635716             0.00901075082            0.000486497149           
       1.638357             0.00953576077            0.000501788507           
       1.640997             0.00935687173            0.000512116436           
       1.643637             0.00925778803            0.000495701393           
       1.646278             0.00930056764            0.000512456304           
       1.648918             0.00914645991            0.000509579262           
       1.651559             0.00891566828            0.000507013978           
       1.654199              0.0092568345            0.000502461819           
       1.656839             0.00966362867            0.000513562736           
       1.659480             0.00947480528            0.000527616479           
       1.662120              0.0100071934            0.000510698166           
       1.664761             0.00884024274            0.000498594966           
       1.667401             0.00929507464            0.000488655563           
       1.670041             0.00865582123            0.000478743156           
       1.672682             0.00940342596            0.000496938667           
       1.675322             0.00805766569            0.000457048847           
       1.677962             0.00912561904            0.000481029506           
       1.680603             0.00905755943            0.000480707088           
       1.683243             0.00796382441            0.000470273596           
       1.685884             0.00886983123            0.000499968636           
       1.688524             0.00889548686            0.000491012754           
       1.691164             0.00938005575            0.000504323475           
       1.693805             0.00831703839            0.000480104425           
       1.696445             0.00849511501            0.000488031582           
       1.699085              0.0096907439            0.000503779007           
       1.701726             0.00849721851            0.000454436208           
       1.704366             0.00847037351             0.00047797926           
       1.707007             0.00886058384            0.000477967668           
       1.709647             0.00819818886             0.00046494689           
       1.712287             0.00820156653            0.000469090505           
       1.714928             0.00968842439            0.000513951706           
       1.717568             0.00899598833            0.000466522839           
       1.720209             0.00836082594            0.000471083976           
       1.722849              0.0098350453            0.000508303865           
       1.725489              0.0091794941            0.000491483705           
       1.728130             0.00763079267            0.000476215293           
       1.730770             0.00918923231            0.000496316659           
       1.733410             0.00845944056            0.000468715318           
       1.736051             0.00910433923            0.000489637821           
       1.738691             0.00871758406            0.000469412494           
       1.741332             0.00891880995            0.000488682695           
       1.743972             0.00828636368             0.00048642623           
       1.746612             0.00857988385            0.000475293901           
       1.749253             0.00895395582            0.000495133189           
       1.751893             0.00887004892            0.000489190501           
       1.754533             0.00854011073            0.000479557834           
       1.757174              0.0084549917            0.000472693602           
       1.759814             0.00912046851            0.000483501961           
       1.762455             0.00892490676             0.00048707265           
       1.765095             0.00858548284            0.000456998144           
       1.767735             0.00842755669            0.000466743613           
       1.770376             0.00869207051            0.000475261435           
       1.773016             0.00845645999            0.000465635888           
       1.775657             0.00848695296            0.000459762713           
       1.778297             0.00841016649            0.000453737108           
       1.780937             0.00779870914            0.000461181048           
       1.783578             0.00806312853            0.000457208831           
       1.786218             0.00803820112            0.000476409308           
       1.788858             0.00923159357            0.000484900271           
       1.791499             0.00807634772            0.000448452519           
       1.794139             0.00873721368            0.000462655318           
       1.796780             0.00827808338            0.000448164263           
       1.799420             0.00911185431              0.0004675887           
       1.802060             0.00911923983            0.000471556545           
       1.804701             0.00991025257            0.000471745377           
       1.807341             0.00939818668            0.000482725403           
       1.809981             0.00879237302            0.000468464536           
       1.812622             0.00872046257             0.00045814556           
       1.815262             0.00946058591             0.00048732819           
       1.817903             0.00911543495            0.000471268248           
       1.820543             0.00780939735            0.000442999613           
       1.823183             0.00925896151            0.000482099751           
       1.825824             0.00806504723            0.000429859024           
       1.828464             0.00893500609            0.000471698061           
       1.831105             0.00874656001            0.000453794133           
       1.833745             0.00844169307            0.000455336612           
       1.836385             0.00874691681            0.000476722688           
       1.839026             0.00849171928            0.000468232801           
       1.841666             0.00801418672            0.000453263798           
       1.844306             0.00902573618            0.000467894583           
       1.846947             0.00851075689            0.000458332986           
       1.849587             0.00791075971            0.000487944632           
       1.852228             0.00900162658            0.000470662298           
       1.854868             0.00884059079            0.000492717809           
       1.857508             0.00874509853            0.000485243166           
       1.860149             0.00910011362            0.000503987968           
       1.862789             0.00884331061            0.000479551861           
       1.865429             0.00803465176            0.000477142957           
       1.868070             0.00891099394             0.00049579342           
       1.870710             0.00791587947            0.000456517647           
       1.873351             0.00735357495            0.000445444091           
       1.875991             0.00741063957            0.000454466993           
       1.878631              0.0088383957            0.000486813754           
       1.881272             0.00829769906              0.0004685277           
       1.883912              0.0081886865            0.000484387499           
       1.886553             0.00891592902            0.000499788594           
       1.889193             0.00736403171            0.000453438265           
       1.891833             0.00784297181            0.000485985686           
       1.894474             0.00875447873            0.000508978529           
       1.897114             0.00931012342            0.000507917772           
       1.899754             0.00868827007             0.00049271488           
       1.902395             0.00820959696            0.000469585697           
       1.905035             0.00799858267            0.000490936305           
       1.907676             0.00880094972            0.000485362385           
       1.910316             0.00789386333            0.000471875009           
       1.912956             0.00825586334            0.000471956774           
       1.915597             0.00729310256            0.000446064429           
       1.918237              0.0079936893            0.000482295352           
       1.920878             0.00815732314            0.000485212277           
       1.923518             0.00849346835            0.000495318688           
       1.926158             0.00813210647            0.000478378008           
       1.928799             0.00886122164            0.000493582869           
       1.931439             0.00851367719            0.000496496443           
       1.934079             0.00770161639            0.000492282399           
       1.936720             0.00775602175            0.000457722136           
       1.939360             0.00727825915            0.000473046487           
       1.942001             0.00830392084            0.000463114535           
       1.944641             0.00748772188            0.000448428419           
       1.947281             0.00803488416            0.000460242175           
       1.949922             0.00873428294            0.000495648006           
       1.952562             0.00788590627            0.000485724232           
       1.955202             0.00777457586            0.000481695517           
       1.957843             0.00845289556            0.000489244427           
       1.960483             0.00898990396            0.000527502038           
       1.963124             0.00723973212             0.00046366623           
       1.965764             0.00866088483            0.000478244455           
       1.968404             0.00727696617            0.000434231274           
       1.971045             0.00772883237            0.000456260102           
       1.973685             0.00774458118            0.000479070136           
       1.976326             0.00746428791            0.000463856984           
       1.978966             0.00791559482            0.000481866088           
       1.981606             0.00815286349            0.000499233826           
       1.984247             0.00845333704            0.000505008059           
       1.986887             0.00818250718            0.000490900712           
       1.989527             0.00812965171            0.000484043043           
       1.992168             0.00760009165            0.000485602606           
       1.994808             0.00766236513            0.000485497922           
       1.997449             0.00716042871            0.000459688576           
       2.000089             0.00711457812            0.000456397774           
       2.002729             0.00755215155            0.000470505369           
       2.005370             0.00814503538            0.000483367589           
       2.008010             0.00802144731            0.000500621519           
       2.010650             0.00783024648            0.000498309843           
       2.013291             0.00791086476            0.000480555613           
       2.015931             0.00820241501            0.000485871763           
       2.018572             0.00795051368            0.000511643632           
       2.021212              0.0078131711            0.000498092325           
       2.023852             0.00773613747            0.000469091188           
       2.026493             0.00700657671            0.000466369928           
       2.029133             0.00735012178            0.000468054011           
       2.031774             0.00749236072            0.000495942457           
       2.034414             0.00780874733            0.000465871385           
       2.037054             0.00765803502            0.000473047519           
       2.039695             0.00727440898            0.000457564653           
       2.042335             0.00783170721            0.000493388624           
       2.044975             0.00797406549            0.000491815045           
       2.047616             0.00781615291            0.000485711378           
       2.050256             0.00854519753            0.000512664747           
       2.052897              0.0074921881            0.000488889039           
       2.055537             0.00749993976            0.000472737035           
       2.058177             0.00714171566            0.000451745996           
       2.060818             0.00770520841            0.000491554156           
       2.063458             0.00775884634            0.000514028112           
       2.066098             0.00893141008            0.000520252591           
       2.068739              0.0079391609            0.000498127224           
       2.071379             0.00703775361            0.000481228526           
       2.074020             0.00751961316            0.000486619585           
       2.076660             0.00795825777            0.000504658435           
       2.079300              0.0076223917            0.000505995881           
       2.081941             0.00830634141            0.000483636005           
       2.084581             0.00726736659            0.000477490268           
       2.087222             0.00731935351            0.000462137856           
       2.089862             0.00684772667            0.000486852181           
       2.092502             0.00750875214            0.000494187385           
       2.095143               0.008046965            0.000528295355           
       2.097783             0.00751370185            0.000494240787           
       2.100423             0.00702533568            0.000460509242           
       2.103064             0.00803614697            0.000511061423           
       2.105704             0.00736616922            0.000486870535           
       2.108345             0.00802129605            0.000488109711           
       2.110985             0.00752753657            0.000505035946           
       2.113625             0.00772851107            0.000516199024           
       2.116266             0.00756204628            0.000517853889           
       2.118906             0.00729904606             0.00047414419           
       2.121546             0.00760909142            0.000474866553           
       2.124187              0.0074425485             0.00049297802           
       2.126827             0.00687569668            0.000479121075           
       2.129468             0.00743019579            0.000499338403           
       2.132108              0.0070814383            0.000474279605           
       2.134748             0.00802633338            0.000502972295           
       2.137389             0.00823956753            0.000531649487           
       2.140029             0.00737502357            0.000450302728           
       2.142670             0.00794587503            0.000499526236           
       2.145310             0.00869799209            0.000508688195           
       2.147950             0.00867250413            0.000522811085           
       2.150591             0.00763213776            0.000485494477           
       2.153231             0.00697872839            0.000477870368           
       2.155871             0.00723573936             0.00047007855           
       2.158512             0.00808361627            0.000518435536           
       2.161152             0.00758143425            0.000486340057           
       2.163793              0.0075739235            0.000483910727           
       2.166433             0.00726559174            0.000486705416           
       2.169073             0.00680124927            0.000460412286           
       2.171714             0.00675662774            0.000455468976           
       2.174354             0.00792757684            0.000515515745           
       2.176995             0.00721266789            0.000489652989           
       2.179635             0.00718232609            0.000516334267           
       2.182275             0.00689560854            0.000477671882           
       2.184916             0.00738521544            0.000477467364           
       2.187556             0.00723433003            0.000467828243           
       2.190196             0.00719974647            0.000487704286           
       2.192837             0.00693123841             0.00047592007           
       2.195477               0.006796059            0.000449286912           
       2.198118             0.00712728133             0.00047189473           
       2.200758             0.00697824476            0.000479046799           
       2.203398             0.00722582112            0.000490589143           
       2.206039             0.00768890198            0.000478947889           
       2.208679             0.00683857022            0.000462200252           
       2.211319             0.00665822585            0.000458694709           
       2.213960             0.00721305929            0.000483820654           
       2.216600             0.00699138017            0.000492750695           
       2.219241             0.00784682866            0.000498916644           
       2.221881             0.00819240607            0.000510832666           
       2.224521             0.00724267087            0.000486196397           
       2.227162             0.00792996839            0.000498556368           
       2.229802             0.00723699859            0.000491184298           
       2.232443             0.00641932975            0.000455308114           
       2.235083             0.00688290073              0.0004853684           
       2.237723             0.00674632195            0.000461136995           
       2.240364              0.0075131387            0.000498627974           
       2.243004             0.00694628933            0.000475621744           
       2.245644             0.00705785461            0.000484224824           
       2.248285             0.00756752308            0.000491359143           
       2.250925             0.00794610101            0.000506558247           
       2.253566              0.0077053924            0.000533283976           
       2.256206             0.00780609584            0.000526024962           
       2.258846             0.00667978118            0.000462889525           
       2.261487             0.00668627855            0.000486081728           
       2.264127             0.00723198532            0.000488231634           
       2.266767             0.00721748322            0.000500736649           
       2.269408             0.00719536994            0.000502016354           
       2.272048             0.00769285886            0.000515982602           
       2.274689             0.00770812586            0.000523299849           
       2.277329             0.00736642705            0.000481675667           
       2.279969             0.00736531507            0.000512677463           
       2.282610             0.00670568176            0.000475576037           
       2.285250             0.00753395787            0.000482484858           
       2.287891             0.00728825376             0.00050879143           
       2.290531             0.00682925741            0.000499130352           
       2.293171             0.00789484437            0.000522755126           
       2.295812             0.00775299306             0.00051595518           
       2.298452              0.0076595801            0.000536291722           
       2.301092              0.0065508854            0.000460809863           
       2.303733             0.00665375125            0.000483152508           
       2.306373             0.00798104724            0.000537485917           
       2.309014             0.00684513801            0.000488059108           
       2.311654             0.00747560721            0.000532251335           
       2.314294              0.0080809245            0.000509831725           
       2.316935             0.00766586427            0.000498617426           
       2.319575             0.00669852025            0.000488361799           
       2.322215             0.00676745048            0.000511567405           
       2.324856             0.00832051573            0.000521516667           
       2.327496             0.00757476016            0.000529101571           
       2.330137             0.00670492352            0.000476353663           
       2.332777             0.00730854297            0.000512804196           
       2.335417              0.0073504119             0.00049891973           
       2.338058             0.00790268889            0.000532777178           
       2.340698             0.00767712752            0.000520992178           
       2.343339              0.0072758908            0.000518356238           
       2.345979              0.0064149932            0.000460480234           
       2.348619             0.00725067732            0.000507450795           
       2.351260             0.00642305266            0.000474829491           
       2.353900             0.00725365586            0.000502999413           
       2.356540             0.00639845289            0.000471747453           
       2.359181              0.0068287527            0.000480519587           
       2.361821             0.00741996427            0.000483845219           
       2.364462             0.00659375996            0.000477036758           
       2.367102             0.00799024036            0.000539653051           
       2.369742             0.00780067605            0.000561243648           
       2.372383             0.00705555213            0.000483323701           
       2.375023             0.00663026789            0.000492527378           
       2.377663             0.00665740191            0.000471891134           
       2.380304             0.00761235622            0.000513015649           
       2.382944             0.00738180112            0.000481174701           
       2.385585             0.00845803851            0.000549318622           
       2.388225             0.00795441541             0.00053021021           
       2.390865             0.00710273445            0.000495875324           
       2.393506             0.00729298942            0.000492992996           
       2.396146             0.00846162896            0.000574168163           
       2.398787             0.00740695189            0.000495066788           
       2.401427             0.00708521989            0.000467360229           
       2.404067             0.00761030198            0.000495172787           
       2.406708             0.00620308973            0.000441692964           
       2.409348             0.00683094258            0.000491640378           
       2.411988             0.00689542082            0.000483966883           
       2.414629             0.00653356354            0.000485768745           
       2.417269             0.00724222494            0.000517406224           
       2.419910              0.0063793852            0.000486733961           
       2.422550             0.00720137027            0.000494769575           
       2.425190             0.00749502428             0.00053206608           
       2.427831             0.00656358497            0.000495109658           
       2.430471             0.00730062134            0.000497466458           
       2.433112             0.00645530812            0.000455506982           
       2.435752              0.0066580066            0.000489578646           
       2.438392             0.00726148242            0.000493494447           
       2.441033             0.00745861597            0.000530056607           
       2.443673             0.00683594512             0.00050783913           
       2.446313             0.00732997652            0.000526333381           
       2.448954             0.00687244494            0.000485250476           
       2.451594              0.0071169234            0.000530956985           
       2.454235             0.00767206459            0.000517237915           
       2.456875             0.00721822158             0.00052496434           
       2.459515             0.00839928196            0.000580945578           
       2.462156             0.00676017015            0.000492072671           
       2.464796             0.00823610455            0.000536132065           
       2.467436             0.00701052761            0.000511512292           
       2.470077             0.00767129145            0.000507154336           
       2.472717             0.00783938265            0.000514901363           
       2.475358             0.00745399094            0.000507320615           
       2.477998              0.0082393608            0.000524385698           
       2.480638              0.0073415071            0.000503785819           
       2.483279             0.00834047956            0.000561217719           
       2.485919             0.00778573698            0.000522565207           
       2.488560              0.0077066534            0.000518451763           
       2.491200             0.00651375494            0.000490813985           
       2.493840             0.00729194014             0.00054949303           
       2.496481             0.00695804442            0.000527984756           
       2.499121             0.00779417719            0.000543530411           
       2.501761             0.00707473936            0.000524699116           
       2.504402             0.00718212297            0.000520942397           
       2.507042             0.00736865198            0.000523754915           
       2.509683             0.00710282104            0.000506361572           
       2.512323             0.00675382799            0.000518575919           
       2.514963             0.00651380859            0.000502986058           
       2.517604             0.00692781237            0.000538256132           
       2.520244             0.00693870932            0.000505012814           
       2.522884             0.00766269107             0.00053829524           
       2.525525              0.0149134934            0.000759488387           
       2.528165              0.0108171058            0.000636742765           
       2.530806             0.00822446194            0.000564893877           
       2.533446              0.0143543325            0.000730355889           
       2.536086             0.00844516329            0.000555191054           
       2.538727             0.00853877293            0.000535565188           
       2.541367             0.00784094215            0.000518269685           
       2.544008             0.00612956662            0.000473243054           
       2.546648             0.00703883282            0.000515829101           
       2.549288             0.00699914133            0.000524853455           
       2.551929              0.0067737897            0.000508104502           
       2.554569             0.00650748854            0.000479797394           
       2.557209             0.00748417096            0.000519270067           
       2.559850              0.0067730906            0.000495572568           
       2.562490             0.00747428596            0.000538061247           
       2.565131              0.0068271826            0.000533189352           
       2.567771             0.00731398618            0.000532086752           
       2.570411             0.00685523355            0.000509555967           
       2.573052             0.00651579832            0.000503036805           
       2.575692             0.00706002042            0.000520452453           
       2.578332             0.00692572211            0.000517610203           
       2.580973             0.00752589803             0.00053443822           
       2.583613             0.00791359536            0.000534982038           
       2.586254             0.00638706573            0.000479953307           
       2.588894             0.00679457996            0.000514062758           
       2.591534             0.00667412559            0.000527413332           
       2.594175             0.00754396867            0.000550148797           
       2.596815              0.0070197007            0.000533817387           
       2.599456             0.00762387726            0.000527551654           
       2.602096              0.0069857734            0.000508834905           
       2.604736             0.00683750652            0.000515343021           
       2.607377             0.00746532279            0.000524291997           
       2.610017             0.00716562849            0.000504671517           
       2.612657             0.00711689591            0.000534965805           
       2.615298             0.00604643717            0.000481415719           
       2.617938              0.0068854375            0.000549561504           
       2.620579             0.00690933364            0.000528488167           
       2.623219             0.00620093541            0.000499949654           
       2.625859             0.00789098252            0.000548346127           
       2.628500             0.00741891133            0.000528206001           
       2.631140             0.00616063731                0.00048875           
       2.633780             0.00736321324            0.000533863135           
       2.636421              0.0068263023            0.000526671631           
       2.639061             0.00748992635            0.000519341757           
       2.641702             0.00693379794            0.000511257427           
       2.644342             0.00733345447            0.000528025535           
       2.646982             0.00777996618            0.000535732331           
       2.649623              0.0079393272            0.000567146812           
       2.652263             0.00770055104            0.000552948143           
       2.654904             0.00715773423            0.000533639516           
       2.657544             0.00775905314            0.000523320369           
       2.660184             0.00668299004            0.000513989052           
       2.662825             0.00698758594            0.000537764965           
       2.665465             0.00742837265             0.00053626099           
       2.668105             0.00696388469            0.000547282494           
       2.670746               0.006859959            0.000501785675           
       2.673386             0.00852349948            0.000576432222           
       2.676027             0.00748827273             0.00053162262           
       2.678667             0.00967549574            0.000589641176           
       2.681307              0.0102578013            0.000596535141           
       2.683948              0.0145162304            0.000729118395           
       2.686588              0.0132616759            0.000685342685           
       2.689229              0.0105944448            0.000598566984           
       2.691869             0.00940290728             0.00059598985           
       2.694509             0.00862809489            0.000571220542           
       2.697150              0.0078300662            0.000535334583           
       2.699790             0.00686459011            0.000525483174           
       2.702430             0.00790358954            0.000538972961           
       2.705071             0.00661617044            0.000509552925           
       2.707711              0.0068100209            0.000501752163           
       2.710352             0.00647464337            0.000516944482           
       2.712992             0.00732744801            0.000560104589           
       2.715632             0.00695904935            0.000506433976           
       2.718273             0.00731890577            0.000538249786           
       2.720913             0.00762953979            0.000547989818           
       2.723553             0.00718232187               0.000535254           
       2.726194             0.00671572348            0.000541037227           
       2.728834              0.0074609682            0.000570534682           
       2.731475             0.00775879134            0.000536959998           
       2.734115             0.00681653674             0.00051891996           
       2.736755             0.00699154659            0.000529864807           
       2.739396              0.0073630093            0.000540608125           
       2.742036             0.00630244459            0.000523449746           
       2.744677             0.00657114151            0.000518604194           
       2.747317             0.00740861978            0.000546734318           
       2.749957              0.0063707545            0.000510552346           
       2.752598             0.00765481211            0.000565717901           
       2.755238             0.00774220425            0.000579208647           
       2.757878              0.0080493096            0.000585420872           
       2.760519             0.00778267371            0.000569539415           
       2.763159             0.00836787072            0.000584662197           
       2.765800             0.00853298209            0.000562644065           
       2.768440             0.00789786062            0.000545287735           
       2.771080             0.00986612417             0.00061454592           
       2.773721             0.00728512157            0.000541702132           
       2.776361             0.00766488381            0.000563307457           
       2.779001             0.00695564653            0.000555717483           
       2.781642             0.00611007139             0.00051700657           
       2.784282             0.00645852782             0.00054028526           
       2.786923             0.00694045117            0.000565011566           
       2.789563             0.00579270411            0.000497145385           
       2.792203             0.00568476833            0.000470470436           
       2.794844             0.00756217413            0.000594707438           
       2.797484             0.00748262464            0.000558298872           
       2.800125             0.00750810003            0.000588049951           
       2.802765             0.00684472809            0.000551811754           
       2.805405             0.00698358934             0.00055926756           
       2.808046             0.00648089759            0.000548234323           
       2.810686             0.00634221473            0.000498344495           
       2.813326             0.00696689132            0.000542536404           
       2.815967             0.00719916325            0.000567187084           
       2.818607             0.00724587899            0.000543005233           
       2.821248             0.00732807269            0.000534739283           
       2.823888             0.00743958046            0.000559280124           
       2.826528             0.00668401065            0.000513394483           
       2.829169             0.00678991425             0.00054199536           
       2.831809             0.00590307755            0.000512236125           
       2.834449             0.00580400551            0.000511129379           
       2.837090             0.00721303344             0.00055034082           
       2.839730             0.00607374885            0.000502545698           
       2.842371             0.00645563346            0.000518851312           
       2.845011             0.00676891002            0.000535526406           
       2.847651             0.00700915895            0.000545616539           
       2.850292             0.00735807324            0.000564518359           
       2.852932             0.00655044617            0.000544245099           
       2.855573             0.00617405319            0.000512541019           
       2.858213              0.0062441442             0.00054127674           
       2.860853             0.00811288289            0.000573932377           
       2.863494             0.00729502208            0.000563479355           
       2.866134              0.0073744897            0.000588848256           
       2.868774             0.00635150854            0.000537079774           
       2.871415             0.00758549899            0.000596080693           
       2.874055             0.00671385266            0.000536043805           
       2.876696              0.0074501488            0.000579946383           
       2.879336             0.00838681884            0.000593054235           
       2.881976             0.00740895684            0.000574929401           
       2.884617             0.00700508841            0.000550829536           
       2.887257             0.00687020703            0.000548316346           
       2.889897             0.00671711235             0.00053101418           
       2.892538             0.00714161893            0.000599828333           
       2.895178             0.00649902075            0.000516950224           
       2.897819             0.00717716164            0.000554168694           
       2.900459             0.00748547927            0.000554937118           
       2.903099             0.00636451021             0.00050646339           
       2.905740             0.00755383691             0.00056603415           
       2.908380             0.00607536427             0.00051339515           
       2.911021             0.00731003344            0.000572307483           
       2.913661             0.00742186897            0.000576495938           
       2.916301             0.00618686058            0.000526852128           
       2.918942             0.00676993998            0.000527159604           
       2.921582             0.00696933421            0.000559624403           
       2.924222             0.00686690843            0.000538169643           
       2.926863             0.00773595202            0.000594980666           
       2.929503             0.00792078587            0.000609179303           
       2.932144             0.00776593375            0.000579030459           
       2.934784             0.00668287033            0.000528330729           
       2.937424             0.00751734673            0.000566099445           
       2.940065             0.00675343953            0.000511833028           
       2.942705             0.00607151774            0.000484695772           
       2.945346             0.00777491932            0.000582086472           
       2.947986             0.00661292592            0.000547380334           
       2.950626             0.00577833675            0.000508793604           
       2.953267             0.00680053274            0.000543046905           
       2.955907             0.00727090157            0.000582492826           
       2.958547             0.00705952304            0.000541850807           
       2.961188             0.00692874181            0.000560040954           
       2.963828              0.0074538706            0.000568204225           
       2.966469             0.00763466514            0.000564125856           
       2.969109             0.00790252082             0.00058244023           
       2.971749             0.00635125778            0.000518896387           
       2.974390             0.00791585144            0.000569263103           
       2.977030             0.00775269585            0.000575956172           
       2.979670             0.00821083731            0.000576543891           
       2.982311             0.00786261988            0.000584750382           
       2.984951             0.00724124843            0.000533720999           
       2.987592             0.00660046132            0.000519765326           
       2.990232             0.00801426426             0.00059563585           
       2.992872             0.00827198265            0.000570004986           
       2.995513             0.00897994317            0.000581026092           
       2.998153              0.0124287114            0.000695037081           
       3.000794              0.0137630854             0.00070843256           
       3.003434              0.0105000507             0.00061971434           
       3.006074              0.0331442224             0.00108559958           
       3.008715              0.0980667542             0.00180258213           
       3.011355               0.227182831              0.0026457235           
       3.013995               0.136592427             0.00205707447           
       3.016636               0.078180405             0.00152395956           
       3.019276               0.140235344              0.0020063087           
       3.021917               0.488104895              0.0035991238           
       3.024557                1.38388595             0.00595827211           
       3.027197                1.16837692              0.0053375608           
       3.029838               0.575438599             0.00379898733           
       3.032478               0.265553517             0.00258336479           
       3.035118              0.0712563519             0.00135615486           
       3.037759              0.0806178515             0.00144062984           
       3.040399               0.107841231              0.0017187352           
       3.043040               0.427454139             0.00346379564           
       3.045680               0.403409678             0.00316595553           
       3.048320               0.106774288             0.00166422546           
       3.050961               0.116078064             0.00176579236           
       3.053601               0.094345784             0.00153322808           
       3.056242               0.073217315             0.00143605962           
       3.058882              0.0652364164             0.00145408616           
       3.061522              0.0491040602             0.00123772902           
       3.064163               0.063175255             0.00138623494           
       3.066803               0.129974951             0.00209330603           
       3.069443               0.112738709             0.00203975241           
       3.072084              0.0389608238             0.00116760225           
       3.074724              0.0427497664             0.00136587863           
       3.077365              0.0727131214             0.00184401825           
       3.080005              0.0114866708            0.000737071954           
       3.082645              0.0117530654            0.000783238619           
       3.085286              0.0132912764            0.000839488691           
       3.087926             0.00908375502            0.000688658748           
       3.090566              0.0121492079            0.000780343613           
       3.093207               0.011618735            0.000794102561           
       3.095847             0.00872434001            0.000659551381           
       3.098488             0.00914530771            0.000748765836           
       3.101128              0.0101145055            0.000792507219           
       3.103768             0.00770229361              0.0006785666           
       3.106409              0.0100832194            0.000826291831           
       3.109049             0.00847882236            0.000727134421           
       3.111690             0.00739029298             0.00066720233           
       3.114330             0.00751690691            0.000687208127           
       3.116970             0.00840749533            0.000732357985           
       3.119611             0.00920345649            0.000815613376           
       3.122251              0.0180610219             0.00119515887           
       3.124891               0.035172639             0.00168338543           
       3.127532              0.0247138608             0.00138044618           
       3.130172              0.0157059681             0.00111949404           
       3.132813              0.0109465807              0.0009200876           
       3.135453             0.00673811568            0.000715924103           
       3.138093             0.00657622526             0.00076635358           
       3.140734             0.00653547233            0.000704826067           
       3.143374             0.00697073739            0.000769805771           
       3.146014             0.00776175945            0.000874488942           
       3.148655             0.00602212754            0.000716047551           
       3.151295             0.00549335596            0.000728790867           
       3.153936             0.00712470571            0.000801735445           
       3.156576             0.00571193443            0.000708094779           
       3.159216             0.00656265252            0.000762792351           
       3.161857             0.00479991611            0.000649699239           
       3.164497             0.00901848865            0.000935720296           
       3.167138             0.00776001174            0.000896836498           
       3.169778             0.00631104053            0.000795446111           
       3.172418             0.00717207911            0.000839349268           
       3.175059             0.00663934638            0.000715949387           
       3.177699             0.00606211861            0.000724441004           
       3.180339             0.00644730579            0.000800461944           
       3.182980             0.00615656377            0.000808720782           
       3.185620             0.00638875028            0.000839000273           
       3.188261             0.00661691372             0.00086908787           
       3.190901             0.00480660148            0.000681248895           
       3.193541             0.00714388781            0.000872684203           
       3.196182             0.00544459666            0.000793962813           
       3.198822             0.00531516865            0.000784732013           
       3.201463             0.00580565895            0.000806011276           
       3.204103             0.00563609709            0.000789322023           
       3.206743             0.00587213117            0.000805604895           
       3.209384             0.00696170605            0.000947703565           
       3.212024             0.00683588301            0.000875536024           
       3.214664             0.00493514797             0.00084594413           
       3.217305             0.00587416424             0.00087730037           
       3.219945             0.00401595448            0.000746610269           
       3.222586             0.00540080441            0.000824681404           
       3.225226              0.0063657953            0.000993229573           
       3.227866             0.00633575051            0.000905657029           
       3.230507             0.00640532129            0.000943952738           
       3.233147             0.00493978921             0.00083565455           
       3.235787             0.00826178739              0.0011059727           
       3.238428             0.00688354542             0.00108939622           
       3.241068             0.00586809259            0.000940508975           
       3.243709               0.005951637            0.000978587805           
       3.246349             0.00546391277            0.000854741036           
       3.248989             0.00428632498            0.000893908824           
       3.251630             0.00691802148             0.00109359273           
       3.254270             0.00605511248            0.000914390158           
       3.256911             0.00475502964            0.000884129687           
       3.259551             0.00685816448             0.00114312394           
       3.262191             0.00376355664            0.000864979344           
       3.264832             0.00558215551             0.00110068107           
       3.267472             0.00572672494             0.00104584256           
       3.270112             0.00510171556              0.0010908967           
       3.272753             0.00329451629            0.000802409614           
       3.275393             0.00507026433             0.00101569677           
       3.278034             0.00468563936            0.000976961929           
       3.280674             0.00791666443             0.00137800134           
       3.283314             0.00576273126             0.00105148316           
       3.285955             0.00694562825             0.00119105328           
       3.288595             0.00507446982             0.00113262305           
       3.291235             0.00504212398             0.00116061003           
       3.293876             0.00546442164             0.00122559794           
       3.296516             0.00452648905             0.00107087317           
       3.299157             0.00642297091             0.00125960313           
       3.301797             0.00673001514             0.00147075194           
       3.304437             0.00580831482             0.00118376465           
       3.307078             0.00727355168             0.00145922527           
       3.309718             0.00747520136             0.00152691839           
       3.312359             0.00782105729             0.00156221307           
       3.314999             0.00603955224             0.00135164215           
       3.317639             0.00470457646              0.0011409032           
       3.320280             0.00655567955             0.00143190749           
       3.322920             0.00483706611             0.00125067906           
       3.325560             0.00482976355             0.00125058367           
       3.328201             0.00653179691             0.00130980908           
       3.330841             0.00505257482             0.00140204168           
       3.333482              0.0062396975             0.00147273163           
       3.336122             0.00728181306             0.00159169994           
       3.338762             0.00317536345             0.00121416686           
       3.341403             0.00552188484             0.00152993931           
       3.344043              0.0054482319             0.00145903888           
       3.346683             0.00488269555             0.00141013262           
       3.349324             0.00359250318             0.00135994749           
       3.351964             0.00800323925             0.00214645365           
       3.354605              0.0105773433             0.00282209174           
       3.357245             0.00734220718             0.00212106463           
       3.359885             0.00433705656             0.00130473917           
       3.362526             0.00483165291             0.00172215507           
       3.365166             0.00549876325             0.00173283708           
       3.367807             0.00356458206             0.00178554391           
       3.370447             0.00431455133              0.0016295124           
       3.373087             0.00623482019             0.00209473492           
       3.375728             0.00442888379             0.00199252362           
       3.378368             0.00577983128               0.003378188           
       3.381008             0.00547704669             0.00245175795           
       3.383649             0.00707743815             0.00223576869           
       3.386289             0.00396411312               0.001980352           
       3.388930             0.00498800081             0.00351379114           
       3.391570             0.00620128528             0.00277150732           
       3.394210             0.00600707278             0.00345204612           
       3.396851             0.00247590747              0.0024790549           
       3.399491             0.00740024527             0.00428710466           
       3.402131             0.00483636164             0.00490339525           
       3.404772             0.00970520517             0.00982561306           
       3.407412                       nan                       nan           
       3.410053           -2.66372488e-05                         0           
       3.412693                       nan                       nan           
       3.415333           -2.66881521e-05                         0           
