################################################################################
# EDF_DataBlockID                     0.Image.Psd
# EDF_BinarySize                      4366944
# EDF_HeaderSize                      2560
# ByteOrder                           LowByteFirst
# DataType                            FloatValue
# Dim_1                               1028
# Dim_2                               1062
# Image                               0
# HeaderID                            EH:000000:000000:000000
# Size                                4366944
# Center_1                            607.5200
# Center_2                            651.5500
# Comment                             Xenocs_Cell_Window - 20251028_20perc_iodine_1.23mg
# DDummy                              0.6
# Date                                2025-11-01T09:14:26
# Delta                               0
# Dummy                               -1.5
# ExposureTime                        360
# Gamma                               0
# Intensity1                          8.60579e-10
# PSize_1                             7.5e-05
# PSize_2                             7.5e-05
# Pressure                            0.0326767
# SampleDistance                      0.450002
# SampleEnvKind                       large
# SampleEnvPN                         ElectroChemical cell
# SampleEnvSN                         1141
# Thickness                           0
# Wavelength                          1.541891e-10
# Wavelength                          1.54189e-10
# aux                                 0
# aux_dial                            0.002375
# beamx                               588.434
# beamx_dial                          588.434
# beamz                               657.808
# beamz_dial                          657.808
# det0x                               0
# det0x_dial                          6.36945
# det0xvd                             0
# det0xvd_dial                        0
# det0y                               450.002
# det0y_dial                          481.635
# det0z                               0
# det0z_dial                          1.23302
# det0zvd                             0
# det0zvd_dial                        0
# mag                                 1.818
# mag_dial                            1.818
# om                                  0.2499
# om_dial                             -0.610199
# phi                                 -0.0120535
# phi_dial                            0
# ry                                  0.599993
# ry_dial                             0.599993
# s1bot                               0.8
# s1bot_dial                          -1.66094
# s1hl                                0.8
# s1hl_dial                           -0.608437
# s1hr                                0.8
# s1hr_dial                           0.970938
# s1top                               0.8
# s1top_dial                          -0.461562
# s2bot                               0.45
# s2bot_dial                          1.36109
# s2hl                                0.45
# s2hl_dial                           -0.83375
# s2hr                                0.45
# s2hr_dial                           -0.118594
# s2top                               0.45
# s2top_dial                          1.44734
# w2theta                             32
# w2theta_dial                        32
# waxsch                              19.2605
# waxsch_dial                         -32.7355
# waxsh                               137.085
# waxsh_dial                          -43.5338
# waxsth                              26.0607
# waxsth_dial                         -19.4086
# waxsz                               67.0407
# waxsz_dial                          -23.7954
# wind                                65.9854
# wind_dial                           66.0041
# wpsi                                124
# wpsi_dial                           124
# wstod                               115
# wstod_dial                          115
# x                                   0
# x_dial                              1.00969
# z                                   0
# z_dial                              13.3172
# CountCutoff                         15302352
# DetectorModel                       Dectris EIGER2 Si 1M, S/N E-02-0362
# ThresholdSetting                    4023.88989258
# Saturation                          0
# FlatField                           Corrected
# BackgroundReductionExtra            0.02
# BackgroundCorrectionConstant        0.0026712
# Detector                            0
# Monitor                             0
# Pil_Roi0                            0
# SumForIntensity1                    3.09808e+08
# TransmittedFlux                     860579
# det                                 0
# mon                                 0
# pilai0                              3.09808e+08
# pilai1                              784453
# pilct0                              5.3558e+08
# pilct1                              784453
# pilroi0                             0
# pilroi1                             0
# sec                                 1
# title                               20251028_20perc_iodine_1.23mg_0_00826.edf
# usaxs0                              0
# Operation                           Azimuthal average I(q)
# Error_model                         ErrorModel.poisson
# Geometrical_correction              True
# Transmission_correction             True
# Thickness_correction                False
# Binning mode                        Uniform
# Binning factor                      1.0
# Psi                                 0.0
# Omega                               0.2499
# MaskInvalidPixels                   True
# DetectorEdge                        3
# MaskFiles                           ['20251028_20perc_iodine_1.23mg_0_00012_mask.edf']
################################################################################
    q(A⁻¹)                Intensity(a.u.)            Sigma_I(a.u.)            
       0.000340                372043.943                120.044718           
       0.001019                359527.231                72.2649123           
       0.001698                349940.905                50.4131666           
       0.002377                330912.947                43.8478744           
       0.003056                307975.231                35.7507876           
       0.003735                253373.909                28.5980565           
       0.004415                 204529.23                25.6940976           
       0.005094                152525.029                19.2157346           
       0.005773                100514.467                14.4420044           
       0.006452                58417.3773                10.5490531           
       0.007131                32208.9651                7.58820851           
       0.007810                16245.5194                5.34813759           
       0.008490                8199.55546                3.36793319           
       0.009169                3999.67857                2.32472464           
       0.009848                1230.88901                1.24687808           
       0.010527                476.292741               0.775624978           
       0.011206                119.525709               0.370833516           
       0.011885                54.6484822               0.232972915           
       0.012564                25.0681867               0.161997984           
       0.013244                16.7703088                0.12387357           
       0.013923                12.2205523               0.107449204           
       0.014602                9.49818217              0.0878542871           
       0.015281                7.36287644              0.0787399875           
       0.015960                 5.9808205              0.0704576085           
       0.016639                4.85641343               0.059954248           
       0.017319                4.05559403               0.053936424           
       0.017998                3.38941474              0.0471724717           
       0.018677                2.94922915              0.0455748957           
       0.019356                2.46926078               0.041205388           
       0.020035                2.12379845              0.0358525819           
       0.020714                1.85768666              0.0338861519           
       0.021394                1.54405229              0.0292305426           
       0.022073                1.45207742              0.0294924004           
       0.022752                 1.3011706              0.0267064327           
       0.023431                1.11207142              0.0239658256           
       0.024110               0.988412207              0.0235560145           
       0.024789               0.859506726              0.0204003492           
       0.025469               0.762723485              0.0198038027           
       0.026148               0.775051167              0.0187570767           
       0.026827               0.634417298              0.0172417894           
       0.027506               0.585867692              0.0168078681           
       0.028185               0.556061208              0.0156156644           
       0.028864               0.526424092              0.0151085698           
       0.029544               0.441422465               0.013416167           
       0.030223               0.421990454              0.0133056441           
       0.030902               0.436176821              0.0136512403           
       0.031581                0.38258781              0.0121536971           
       0.032260               0.347266323              0.0117763793           
       0.032939               0.320167469              0.0109029558           
       0.033619               0.302198471               0.010748257           
       0.034298                0.26980321             0.00988326976           
       0.034977               0.255812497             0.00943448481           
       0.035656               0.229118731             0.00916499331           
       0.036335               0.202659128             0.00835988993           
       0.037014               0.205318579             0.00843966321           
       0.037693               0.200566507                0.00802434           
       0.038373               0.170005257             0.00746023357           
       0.039052               0.195516048             0.00803445317           
       0.039731               0.164903282             0.00720674162           
       0.040410               0.157380445             0.00699323529           
       0.041089               0.143604226             0.00657551252           
       0.041768               0.138708697             0.00649622288           
       0.042448               0.126401247             0.00615320927           
       0.043127               0.130877701             0.00611334114           
       0.043806               0.117906375             0.00584575529           
       0.044485                0.10700214             0.00545448112           
       0.045164               0.101192362             0.00540888029           
       0.045843                0.10747161             0.00534630715           
       0.046523               0.103835954             0.00527324568           
       0.047202               0.100708616             0.00522951806           
       0.047881              0.0945961213             0.00497059239           
       0.048560               0.109562545             0.00539812703           
       0.049239              0.0911673411             0.00472807713           
       0.049918              0.0798079683             0.00451020326           
       0.050598              0.0872355459             0.00464466679           
       0.051277              0.0945928008             0.00482121584           
       0.051956              0.0856397999             0.00455857958           
       0.052635              0.0715414798             0.00407807155           
       0.053314              0.0839301546             0.00454621836           
       0.053993              0.0791584089             0.00429399904           
       0.054673              0.0763051764             0.00412198971           
       0.055352              0.0776475052             0.00421916403           
       0.056031              0.0779397184             0.00413827841           
       0.056710              0.0757525947              0.0041797769           
       0.057389              0.0668421259             0.00378613949           
       0.058068               0.072377295             0.00398039886           
       0.058748              0.0663915757             0.00385980922           
       0.059427              0.0667567478             0.00380488017           
       0.060106              0.0669216523               0.003845633           
       0.060785              0.0579698208             0.00347195496           
       0.061464              0.0616429443             0.00366655942           
       0.062143              0.0591386177             0.00355482651           
       0.062822              0.0522222106              0.0033012922           
       0.063502              0.0543136917             0.00336073593           
       0.064181              0.0621115221              0.0035559478           
       0.064860              0.0565817737             0.00344566025           
       0.065539              0.0512104946              0.0032459814           
       0.066218              0.0545110663              0.0032772446           
       0.066897               0.049451366             0.00314554132           
       0.067577              0.0463275544             0.00307381962           
       0.068256              0.0488372779              0.0032335065           
       0.068935              0.0467815674               0.003113549           
       0.069614              0.0490246798             0.00321904941           
       0.070293              0.0510870951             0.00331636396           
       0.070972              0.0482094884             0.00319802095           
       0.071652              0.0445758187             0.00308077917           
       0.072331              0.0423712959             0.00295010058           
       0.073010              0.0461786768             0.00315016441           
       0.073689              0.0499826753             0.00325933603           
       0.074368              0.0417679154             0.00297406344           
       0.075047               0.039390997             0.00285715668           
       0.075727              0.0402078456             0.00286879996           
       0.076406              0.0398827062              0.0029141845           
       0.077085              0.0389617512             0.00282651174           
       0.077764              0.0383077667             0.00279286873           
       0.078443              0.0387531618             0.00282644976           
       0.079122              0.0388604196             0.00280316819           
       0.079802              0.0365287016             0.00274659328           
       0.080481              0.0358948902             0.00263082064           
       0.081160              0.0336148086             0.00259813546           
       0.081839               0.036526108             0.00266494979           
       0.082518              0.0381847111             0.00272707883           
       0.083197              0.0373999806             0.00265697607           
       0.083876              0.0304996633               0.002359513           
       0.084556              0.0293398201              0.0023785752           
       0.085235              0.0334036288             0.00248892681           
       0.085914              0.0323807403             0.00247432742           
       0.086593              0.0345768416             0.00254040091           
       0.087272              0.0328246321             0.00244020811           
       0.087951              0.0328447788             0.00249609557           
       0.088631              0.0335869225             0.00243816484           
       0.089310              0.0303099383             0.00236529485           
       0.089989               0.037153959             0.00258814214           
       0.090668              0.0322457417             0.00243775091           
       0.091347              0.0335246383             0.00249953923           
       0.092026              0.0297887652             0.00225210465           
       0.092706              0.0289294812             0.00229994228           
       0.093385              0.0317083962             0.00237089792           
       0.094064              0.0308668476             0.00236644946           
       0.094743              0.0318769385             0.00236820988           
       0.095422              0.0294450383             0.00225070144           
       0.096101              0.0272101032             0.00220815971           
       0.096781              0.0294195587             0.00226318539           
       0.097460              0.0276680776             0.00213491214           
       0.098139              0.0292371886             0.00217772833           
       0.098818              0.0309149504             0.00221176356           
       0.099497              0.0277257513             0.00209887629           
       0.100176              0.0291476672             0.00209554328           
       0.100856              0.0286485004             0.00207619096           
       0.101535              0.0261405384             0.00197940748           
       0.102214              0.0286792451             0.00207331118           
       0.102893              0.0242433626             0.00188451844           
       0.103572                0.02594347             0.00192067708           
       0.104251              0.0259853196             0.00192932673           
       0.104931               0.029229719             0.00202759926           
       0.105610              0.0222794356              0.0017777493           
       0.106289              0.0274442639             0.00194024264           
       0.106968              0.0266359248             0.00191712805           
       0.107647              0.0247780237              0.0018501679           
       0.108326              0.0231713217             0.00176524125           
       0.109005              0.0248787893             0.00181761624           
       0.109685              0.0254599337             0.00181809765           
       0.110364              0.0241143821              0.0017894993           
       0.111043              0.0237594073              0.0017692365           
       0.111722              0.0244765482             0.00177378997           
       0.112401              0.0213434718             0.00166098483           
       0.113080              0.0217553078             0.00165771634           
       0.113760              0.0225931544             0.00171755249           
       0.114439              0.0226199077             0.00169404212           
       0.115118              0.0233959647             0.00170986638           
       0.115797              0.0250854042             0.00178692807           
       0.116476              0.0245978094             0.00174299232           
       0.117155              0.0220957843             0.00166529306           
       0.117835                0.02446533             0.00171747673           
       0.118514              0.0238785112              0.0017182682           
       0.119193              0.0228947179             0.00168251176           
       0.119872              0.0227886854             0.00165761784           
       0.120551              0.0227165215             0.00164396716           
       0.121230              0.0223592277             0.00161457432           
       0.121910              0.0229541141             0.00165172254           
       0.122589              0.0229732584             0.00165411392           
       0.123268              0.0209543659             0.00154915572           
       0.123947              0.0227089066             0.00162313866           
       0.124626              0.0211541148             0.00154743409           
       0.125305              0.0208100806             0.00154233109           
       0.125985              0.0200372132             0.00150167638           
       0.126664              0.0221472274             0.00156372623           
       0.127343              0.0212181255             0.00154831611           
       0.128022              0.0193258922             0.00146633103           
       0.128701              0.0193471456             0.00145949449           
       0.129380               0.021007841             0.00150179632           
       0.130059              0.0237991749             0.00160217035           
       0.130739              0.0193518122               0.001454896           
       0.131418              0.0217158374             0.00153688652           
       0.132097              0.0204227186             0.00147131113           
       0.132776               0.019936213             0.00144711797           
       0.133455              0.0201492734             0.00146613297           
       0.134134               0.023944445             0.00159316518           
       0.134814              0.0206216478             0.00146326181           
       0.135493              0.0201776085             0.00145327975           
       0.136172              0.0231688096             0.00154552229           
       0.136851              0.0193029536             0.00141890655           
       0.137530              0.0159589524             0.00125950946           
       0.138209              0.0206215909              0.0014485366           
       0.138889              0.0232706558             0.00154554933           
       0.139568              0.0187291654             0.00138595789           
       0.140247              0.0196240041             0.00141682145           
       0.140926              0.0175955521             0.00130323888           
       0.141605              0.0193513677             0.00140143886           
       0.142284              0.0192835173             0.00137579776           
       0.142964              0.0197514131             0.00139771452           
       0.143643              0.0201827558             0.00141110928           
       0.144322              0.0191327391              0.0013451627           
       0.145001               0.018355727              0.0013446095           
       0.145680              0.0189125979             0.00133256297           
       0.146359                0.02068097              0.0013985672           
       0.147039              0.0194884462             0.00136882317           
       0.147718              0.0186177684             0.00131581966           
       0.148397              0.0186604506             0.00133779749           
       0.149076              0.0182851036             0.00128319332           
       0.149755              0.0180667672             0.00129520386           
       0.150434              0.0177873394             0.00128567329           
       0.151114              0.0166669863             0.00123764153           
       0.151793               0.018323972             0.00129771751           
       0.152472              0.0166911281             0.00121667115           
       0.153151              0.0179431141              0.0012736726           
       0.153830              0.0188231789             0.00129502935           
       0.154509              0.0166358455              0.0012123828           
       0.155188              0.0163263668             0.00120060888           
       0.155868               0.017265106             0.00122585717           
       0.156547              0.0169699499              0.0012231404           
       0.157226              0.0177251708             0.00121952896           
       0.157905              0.0167436599               0.001195239           
       0.158584              0.0188773175             0.00126680563           
       0.159263              0.0176585901             0.00122973885           
       0.159943              0.0165655204              0.0011919587           
       0.160622              0.0167675229             0.00117606121           
       0.161301              0.0177969485             0.00122783086           
       0.161980              0.0164399683             0.00116003072           
       0.162659              0.0184263415             0.00124172585           
       0.163338              0.0168002838             0.00117600782           
       0.164018              0.0179257759             0.00120838536           
       0.164697              0.0162995023             0.00116706391           
       0.165376              0.0149561686             0.00109351224           
       0.166055              0.0181359184             0.00121209882           
       0.166734              0.0173400034             0.00117989411           
       0.167413              0.0174211404             0.00118347939           
       0.168093              0.0188200473             0.00124171402           
       0.168772              0.0187613672             0.00120351955           
       0.169451              0.0166449597             0.00115446283           
       0.170130              0.0174439726             0.00116633152           
       0.170809              0.0176474663             0.00118711468           
       0.171488              0.0174771808             0.00117060388           
       0.172168              0.0159048969             0.00110598026           
       0.172847              0.0168861936             0.00115455749           
       0.173526              0.0182840772             0.00117847756           
       0.174205              0.0156199357             0.00109425862           
       0.174884              0.0162701302             0.00111098129           
       0.175563              0.0177238567             0.00116450316           
       0.176243              0.0176286934             0.00117299538           
       0.176922              0.0170173433             0.00112244313           
       0.177601              0.0190516504             0.00120069177           
       0.178280              0.0186209333             0.00117379108           
       0.178959              0.0161153061             0.00110074966           
       0.179638              0.0149888815             0.00105852582           
       0.180317              0.0155862555             0.00107154974           
       0.180997              0.0167372183             0.00111643635           
       0.181676              0.0163822718             0.00109274081           
       0.182355               0.017553524             0.00113792278           
       0.183034              0.0156762432             0.00105809584           
       0.183713              0.0162906794             0.00109176886           
       0.184392              0.0182561999             0.00115540676           
       0.185072              0.0166239933             0.00108998238           
       0.185751              0.0168544279             0.00110056405           
       0.186430              0.0187292497              0.0011520358           
       0.187109               0.018080902             0.00114452619           
       0.187788               0.017062397             0.00110908208           
       0.188467               0.016560165             0.00107970684           
       0.189147              0.0184941321              0.0011525677           
       0.189826              0.0174349777             0.00109928805           
       0.190505              0.0145812329              0.0010218539           
       0.191184              0.0143439873            0.000998899761           
       0.191863              0.0172682606             0.00109831071           
       0.192542              0.0164747043             0.00108289425           
       0.193222               0.016963755             0.00107422413           
       0.193901              0.0161675237             0.00106276709           
       0.194580              0.0155875465             0.00102527673           
       0.195259              0.0169133586             0.00108025558           
       0.195938              0.0150730325             0.00102222722           
       0.196617               0.016882378             0.00106674122           
       0.197297              0.0173563052             0.00108602688           
       0.197976              0.0156769426             0.00101629531           
       0.198655              0.0160489349               0.001039514           
       0.199334              0.0153050245             0.00100618386           
       0.200013              0.0167852619             0.00105313374           
       0.200692              0.0160040703             0.00103452059           
       0.201371              0.0172740909             0.00106268038           
       0.202051              0.0157497686             0.00101786599           
       0.202730               0.015342903            0.000994598484           
       0.203409              0.0147589408            0.000982035572           
       0.204088              0.0155854749             0.00100804289           
       0.204767              0.0174306155             0.00106044156           
       0.205446              0.0174209526             0.00106221922           
       0.206126               0.016134878             0.00100837068           
       0.206805              0.0171147963             0.00105757903           
       0.207484              0.0175217801             0.00105084216           
       0.208163              0.0156210684            0.000998172608           
       0.208842              0.0158559096             0.00100292257           
       0.209521              0.0159556537            0.000997711039           
       0.210201              0.0142858732            0.000954597773           
       0.210880              0.0169669087             0.00101990913           
       0.211559              0.0157283561            0.000996496666           
       0.212238               0.017556056             0.00104744712           
       0.212917              0.0138913718            0.000928270616           
       0.213596              0.0141329629            0.000941844078           
       0.214276              0.0128086048            0.000877950137           
       0.214955              0.0141834772            0.000943297102           
       0.215634              0.0153307733            0.000973678105           
       0.216313              0.0181552895             0.00105735799           
       0.216992               0.016851798              0.0010184385           
       0.217671              0.0163138711            0.000995264405           
       0.218351              0.0149709125            0.000962744226           
       0.219030              0.0156304314            0.000968193959           
       0.219709              0.0133965173            0.000901931281           
       0.220388              0.0154931646            0.000968699951           
       0.221067              0.0149696071             0.00095294665           
       0.221746              0.0124661153            0.000868728092           
       0.222426              0.0161320998            0.000973473817           
       0.223105              0.0152600753            0.000959696323           
       0.223784              0.0148287039            0.000936650863           
       0.224463              0.0157848018            0.000974070924           
       0.225142              0.0163171112            0.000974689044           
       0.225821              0.0146412868            0.000927000382           
       0.226500               0.015258912            0.000952367861           
       0.227180              0.0161407465            0.000964410259           
       0.227859              0.0162573011            0.000972228155           
       0.228538              0.0150634112            0.000926451384           
       0.229217              0.0149654131            0.000930742299           
       0.229896              0.0127948755            0.000860189224           
       0.230575              0.0148092921            0.000910677057           
       0.231255              0.0149505419            0.000928709027           
       0.231934              0.0154996944            0.000939151163           
       0.232613              0.0141858225             0.00090177987           
       0.233292               0.015017275            0.000918866361           
       0.233971              0.0146104789            0.000905912577           
       0.234650              0.0165826533            0.000976471588           
       0.235330              0.0139928307            0.000889152665           
       0.236009              0.0161611789            0.000953504887           
       0.236688              0.0148099918            0.000909508602           
       0.237367              0.0144218252             0.00089881401           
       0.238046              0.0142784874            0.000900634571           
       0.238725              0.0145372388            0.000894738308           
       0.239405              0.0139225146            0.000881046122           
       0.240084              0.0155795921            0.000926069508           
       0.240763              0.0140951431            0.000889280978           
       0.241442               0.016679395            0.000953743243           
       0.242121              0.0156651775            0.000926036253           
       0.242800              0.0159272865            0.000938171882           
       0.243480              0.0156467165            0.000925517973           
       0.244159              0.0155472784            0.000923018758           
       0.244838              0.0137714843            0.000854413504           
       0.245517              0.0154336897             0.00091751939           
       0.246196              0.0156021287            0.000922957401           
       0.246875              0.0152313175             0.00089921159           
       0.247554              0.0160985261            0.000933851396           
       0.248234              0.0148107702            0.000882140655           
       0.248913              0.0139628729            0.000866125487           
       0.249592              0.0147436082            0.000881553648           
       0.250271              0.0143491221            0.000867154779           
       0.250950              0.0160168271             0.00092177319           
       0.251629              0.0141765992            0.000859834452           
       0.252309              0.0129586084            0.000823736921           
       0.252988              0.0141339642            0.000845464246           
       0.253667              0.0137611215            0.000843985499           
       0.254346              0.0146271158            0.000869957505           
       0.255025               0.013588322            0.000836660407           
       0.255704              0.0148800672            0.000871515419           
       0.256384              0.0138159882            0.000836871047           
       0.257063              0.0134667875            0.000830938051           
       0.257742              0.0145870908            0.000858818445           
       0.258421              0.0122720324            0.000786209895           
       0.259100              0.0127637445             0.00080320424           
       0.259779              0.0137166775            0.000831942094           
       0.260459              0.0124877064              0.0007953568           
       0.261138              0.0138524454            0.000821320615           
       0.261817              0.0129484118            0.000810097041           
       0.262496              0.0130436584            0.000805097167           
       0.263175              0.0147863341            0.000859034601           
       0.263854              0.0123655922             0.00078192565           
       0.264534              0.0129874714            0.000794502297           
       0.265213              0.0120095087             0.00077604353           
       0.265892               0.012341928            0.000776631386           
       0.266571              0.0122395231            0.000771643912           
       0.267250              0.0125742264            0.000783441024           
       0.267929              0.0122996608             0.00077404586           
       0.268609                0.01326781             0.00080833457           
       0.269288              0.0127803232            0.000780166425           
       0.269967              0.0115515131            0.000749704221           
       0.270646               0.013513867            0.000807381698           
       0.271325              0.0114489327            0.000744382792           
       0.272004              0.0115477197            0.000740135125           
       0.272683              0.0113774921            0.000735567371           
       0.273363              0.0113299001            0.000738708861           
       0.274042              0.0118626441            0.000751417165           
       0.274721              0.0113984229             0.00073613113           
       0.275400               0.013215222            0.000787381115           
       0.276079              0.0127291731            0.000777153677           
       0.276758              0.0114412692            0.000746088324           
       0.277438              0.0114575818            0.000738239067           
       0.278117              0.0124002204            0.000781972297           
       0.278796              0.0126507135            0.000781813954           
       0.279475              0.0115501087            0.000759372107           
       0.280154              0.0117047706            0.000753443481           
       0.280833              0.0109563849            0.000733391614           
       0.281513              0.0117664833              0.0007719448           
       0.282192              0.0120891912            0.000769109877           
       0.282871              0.0123754822            0.000783601096           
       0.283550             0.00983331138            0.000702239118           
       0.284229              0.0110227445            0.000754418368           
       0.284908              0.0106656123            0.000749923746           
       0.285588              0.0107109832            0.000742716795           
       0.286267              0.0104117596            0.000743993896           
       0.286946              0.0109860519            0.000759267238           
       0.287625               0.011855915            0.000802183519           
       0.288304              0.0104982599            0.000744753851           
       0.288983              0.0111514849            0.000777294626           
       0.289663               0.011444539            0.000792050582           
       0.290342              0.0116931412            0.000796345211           
       0.291021              0.0105864437            0.000761805838           
       0.291700              0.0102525845             0.00073990354           
       0.292379             0.00928991057            0.000720436477           
       0.293058               0.011360525            0.000793680213           
       0.293738              0.0100786121            0.000741283557           
       0.294417             0.00982963097            0.000740578998           
       0.295096               0.010575547            0.000759719784           
       0.295775             0.00840281705            0.000687538239           
       0.296454              0.0100299025            0.000741444701           
       0.297133              0.0104052633            0.000758764051           
       0.297812              0.0101161173            0.000751899673           
       0.298492              0.0104557955            0.000765895991           
       0.299171              0.0106372166            0.000771050523           
       0.299850             0.00998166398             0.00074181313           
       0.300529             0.00891834708            0.000709087743           
       0.301208             0.00925782605            0.000724215503           
       0.301887             0.00933575595            0.000726393026           
       0.302567              0.0100215003            0.000748829125           
       0.303246             0.00981883113            0.000746057774           
       0.303925             0.00833868291            0.000696357146           
       0.304604             0.00969774532            0.000734747818           
       0.305283             0.00913324989            0.000723618049           
       0.305962              0.0102545675            0.000762120773           
       0.306642             0.00927369729            0.000734598842           
       0.307321              0.0100301415             0.00076153226           
       0.308000              0.0104671998            0.000768725842           
       0.308679             0.00767319849             0.00067243291           
       0.309358             0.00924918306            0.000728278666           
       0.310037             0.00825318153            0.000689482355           
       0.310717             0.00899705868            0.000719191742           
       0.311396             0.00912090559            0.000728981205           
       0.312075             0.00841305617            0.000709001208           
       0.312754             0.00840223412            0.000694370226           
       0.313433             0.00861201525            0.000709098975           
       0.314112             0.00913083923            0.000729978568           
       0.314792             0.00812307773            0.000693379751           
       0.315471             0.00942714069            0.000737728582           
       0.316150             0.00937983936            0.000742685905           
       0.316829             0.00818601132              0.0006983966           
       0.317508             0.00892990456            0.000721254433           
       0.318187             0.00822951564            0.000701526076           
       0.318866             0.00783727126            0.000675381155           
       0.319546             0.00964048682            0.000760287103           
       0.320225             0.00865325131            0.000720321353           
       0.320904              0.0093286975            0.000736342024           
       0.321583             0.00896712293            0.000737838449           
       0.322262             0.00808552828            0.000690011593           
       0.322941             0.00783800931            0.000688071807           
       0.323621             0.00820023561            0.000699496466           
       0.324300             0.00852743279            0.000713874335           
       0.324979             0.00777285336            0.000682790229           
       0.325658              0.0081067624            0.000698566816           
       0.326337             0.00726587627            0.000662208466           
       0.327016             0.00807910756            0.000693851385           
       0.327696             0.00893980892            0.000737993167           
       0.328375             0.00900529849            0.000734441132           
       0.329054             0.00803519024            0.000697517552           
       0.329733             0.00888917309            0.000736327261           
       0.330412             0.00867712034            0.000721530902           
       0.331091             0.00812424364             0.00071083019           
       0.331771              0.0075744269            0.000668370992           
       0.332450              0.0071502392            0.000661994068           
       0.333129             0.00809144107            0.000702400245           
       0.333808             0.00774898653            0.000688284198           
       0.334487             0.00566506988            0.000591292328           
       0.335166             0.00698686584            0.000647049959           
       0.335846             0.00817447279            0.000712183893           
       0.336525             0.00739022274            0.000670473959           
       0.337204             0.00671532756            0.000640801949           
       0.337883             0.00740425196            0.000673761379           
       0.338562             0.00780459165            0.000695575042           
       0.339241             0.00650996522            0.000636460228           
       0.339921             0.00635312727            0.000618202672           
       0.340600              0.0054901191            0.000585596006           
       0.341279             0.00702584308            0.000655361319           
       0.341958             0.00551997788             0.00058909397           
       0.342637             0.00755676563            0.000679523979           
       0.343316             0.00612809338            0.000613698506           
       0.343995              0.0057042928            0.000601792675           
       0.344675             0.00709202712            0.000658681689           
       0.345354             0.00644223658            0.000631922809           
       0.346033             0.00560067081            0.000587668122           
       0.346712             0.00692172007            0.000657478372           
       0.347391             0.00638008351            0.000635138453           
       0.348070             0.00682042606            0.000647364894           
       0.348750             0.00580390962            0.000605806794           
       0.349429             0.00749754862            0.000679657789           
       0.350108             0.00661262026             0.00064596995           
       0.350787             0.00718082968            0.000661715456           
       0.351466             0.00625942421            0.000629185331           
       0.352145             0.00759838782            0.000693796915           
       0.352825             0.00712956024            0.000669008119           
       0.353504             0.00727078482            0.000675435905           
       0.354183             0.00618145411            0.000615610789           
       0.354862             0.00514788526            0.000574846253           
       0.355541             0.00474271228            0.000544534456           
       0.356220             0.00689681491            0.000657893849           
       0.356900             0.00568831256            0.000603154971           
       0.357579             0.00567524629            0.000595074512           
       0.358258             0.00602606639            0.000621676904           
       0.358937             0.00529806867            0.000571957741           
       0.359616             0.00622124373            0.000628443766           
       0.360295             0.00774493943            0.000701775939           
       0.360975             0.00471986213            0.000545497496           
       0.361654             0.00534266142             0.00058336475           
       0.362333             0.00579963288            0.000604710751           
       0.363012              0.0053704658            0.000589393772           
       0.363691             0.00519803405            0.000568414619           
       0.364370             0.00490252432            0.000558869069           
       0.365050             0.00629959221            0.000630124333           
       0.365729             0.00566618349            0.000603304741           
       0.366408              0.0054915961            0.000595252553           
       0.367087             0.00505587489            0.000561989389           
       0.367766             0.00541253344            0.000593589454           
       0.368445             0.00477407023             0.00054758343           
       0.369124             0.00567174157            0.000601537176           
       0.369804             0.00526294106            0.000578526205           
       0.370483             0.00423965853            0.000521519185           
       0.371162              0.0052646763             0.00058452262           
       0.371841             0.00401414469            0.000501502438           
       0.372520             0.00567484835            0.000608237003           
       0.373199             0.00380949835             0.00049239052           
       0.373879             0.00508367624            0.000575392296           
       0.374558             0.00454675965            0.000536218796           
       0.375237             0.00494609488            0.000560187741           
       0.375916             0.00527430456            0.000589557578           
       0.376595             0.00512547336            0.000569821047           
       0.377274             0.00497647568            0.000570465156           
       0.377954             0.00588363959            0.000610540835           
       0.378633             0.00442496432            0.000536167488           
       0.379312             0.00468243549            0.000551406445           
       0.379991             0.00488706864            0.000560410798           
       0.380670              0.0050095566             0.00057741879           
       0.381349             0.00453667971            0.000541600907           
       0.382029             0.00433403084            0.000536951237           
       0.382708             0.00483657708            0.000554841548           
       0.383387              0.0050671702             0.00058078435           
       0.384066             0.00483740509            0.000562257377           
       0.384745             0.00429011236            0.000531578204           
       0.385424             0.00532103867            0.000594023447           
       0.386104             0.00434365523            0.000530770707           
       0.386783              0.0042160772            0.000534228603           
       0.387462             0.00527143534            0.000582501095           
       0.388141             0.00406575504            0.000519738053           
       0.388820             0.00491350624            0.000567229598           
       0.389499             0.00371228363            0.000495817345           
       0.390178             0.00496392475            0.000575625142           
       0.390858             0.00467479146             0.00055408936           
       0.391537              0.0035696669            0.000489130514           
       0.392216             0.00320169785            0.000457428429           
       0.392895             0.00442204981            0.000539393148           
       0.393574             0.00433049021            0.000532456695           
       0.394253              0.0041084201            0.000520957838           
       0.394933             0.00333234817            0.000474542357           
       0.395612             0.00292770178            0.000431878146           
       0.396291             0.00392349646            0.000510137569           
       0.396970             0.00333675498            0.000466281165           
       0.397649             0.00446203731            0.000540863144           
       0.398328             0.00397286307            0.000508111971           
       0.399008             0.00478125553            0.000556203522           
       0.399687             0.00509491059            0.000576390377           
       0.400366              0.0042078427            0.000521811822           
       0.401045             0.00399443153            0.000507445908           
       0.401724             0.00427104832            0.000525598146           
       0.402403             0.00375092637            0.000496395289           
       0.403083             0.00395753183            0.000502530741           
       0.403762             0.00413374424            0.000516129331           
       0.404441             0.00385998325            0.000501922554           
       0.405120             0.00389417531            0.000502487484           
       0.405799             0.00469455529              0.0005493181           
       0.406478             0.00385572918            0.000497841216           
       0.407158             0.00382624949            0.000495003642           
       0.407837             0.00371830725            0.000492278443           
       0.408516             0.00438758135            0.000530097958           
       0.409195             0.00463484263            0.000551010552           
       0.409874             0.00369693571            0.000498958192           
       0.410553             0.00325428664            0.000473169817           
       0.411233             0.00402757642             0.00052366657           
       0.411912             0.00262390188            0.000428664126           
       0.412591             0.00372054204            0.000513820311           
       0.413270             0.00368134505             0.00050867836           
       0.413949             0.00390724287             0.00052977672           
       0.414628             0.00319011933            0.000477837993           
       0.415307             0.00282557917            0.000454710694           
       0.415987              0.0031303682            0.000474663115           
       0.416666             0.00380160807            0.000519936841           
       0.417345             0.00364197141            0.000517401509           
       0.418024             0.00364099884            0.000517345598           
       0.418703             0.00413289148            0.000550172536           
       0.419382             0.00359862072            0.000510865418           
       0.420062             0.00354523973            0.000508482916           
       0.420741             0.00277906499            0.000452591496           
       0.421420             0.00316556992            0.000484871815           
       0.422099             0.00310029839            0.000479859414           
       0.422778             0.00275511318            0.000454807365           
       0.423457             0.00202521016            0.000392322233           
       0.424137             0.00225743195            0.000407454714           
       0.424816             0.00259042425            0.000445595047           
       0.425495             0.00288880117            0.000470113464           
       0.426174              0.0032725496             0.00050054027           
       0.426853             0.00223589255            0.000411221022           
       0.427532             0.00259430944            0.000446701211           
       0.428212             0.00217719159            0.000411919178           
       0.428891             0.00285482165            0.000470613359           
       0.429570             0.00239482108            0.000431328485           
       0.430249             0.00175893687            0.000367735892           
       0.430928             0.00176987261            0.000376943646           
       0.431607             0.00200570072             0.00039437686           
       0.432287             0.00219368204            0.000415464933           
       0.432966             0.00286756276            0.000479189575           
       0.433645             0.00128275727            0.000320831076           
       0.434324             0.00347865526            0.000525150841           
       0.435003             0.00271164894            0.000464447068           
       0.435682             0.00218850037            0.000420668694           
       0.436361             0.00162035874            0.000361485466           
       0.437041             0.00191996437            0.000392963188           
       0.437720             0.00202137836            0.000405152784           
       0.438399              0.0028838452            0.000486453549           
       0.439078             0.00306651428            0.000516169651           
       0.439757             0.00318865252            0.000523106169           
       0.440436              0.0029024987            0.000510330017           
       0.441116             0.00263228576            0.000493941767           
       0.441795             0.00265233003            0.000496416189           
       0.442474             0.00313557856            0.000541252997           
       0.443153             0.00319781715             0.00055935024           
       0.443832             0.00164232123             0.00040152953           
       0.444511              0.0028855537            0.000529836341           
       0.445191             0.00193599855            0.000444545979           
       0.445870             0.00254550889            0.000509757169           
       0.446549             0.00208786259            0.000466533339           
       0.447228              0.0020358337            0.000458080591           
       0.447907              0.0024168341            0.000505096539           
       0.448586             0.00255870968            0.000532215273           
       0.449266             0.00207145957            0.000474462434           
       0.449945             0.00237292423            0.000505743723           
       0.450624             0.00181229051            0.000448998661           
       0.451303             0.00219598608            0.000500655976           
       0.451982             0.00227199177            0.000506098315           
       0.452661             0.00225619186              0.0005137313           
       0.453341              0.0032004665             0.00061400789           
       0.454020             0.00310015255            0.000605229598           
       0.454699              0.0022030265            0.000514857446           
       0.455378             0.00256440556            0.000555780741           
       0.456057             0.00267034436            0.000577230956           
       0.456736             0.00289796217            0.000599454112           
       0.457416             0.00142380962            0.000420192098           
       0.458095             0.00451413376             0.00075901299           
       0.458774             0.00175800093            0.000479925111           
       0.459453              0.0024613725             0.00057073887           
       0.460132             0.00168621147            0.000462192599           
       0.460811             0.00225159324            0.000554013477           
       0.461490             0.00247308152            0.000574718248           
       0.462170             0.00215710471            0.000545125358           
       0.462849             0.00275354904            0.000619890354           
       0.463528             0.00135076513            0.000433161767           
       0.464207             0.00154590827            0.000472066411           
       0.464886             0.00220829482            0.000559815392           
       0.465565             0.00141462431            0.000452982717           
       0.466245             0.00186034383            0.000521078627           
       0.466924             0.00150265682            0.000479375797           
       0.467603             0.00114857721            0.000410218696           
       0.468282             0.00121024185            0.000431071888           
       0.468961              0.0018385822            0.000534809137           
       0.469640            0.000785059627            0.000350863112           
       0.470320            0.000779208053            0.000349794659           
       0.470999             0.00143500831            0.000479171199           
       0.471678            0.000657796006            0.000327539473           
       0.472357              0.0011587794            0.000435942439           
       0.473036            0.000993018806            0.000406106743           
       0.473715            0.000521452017            0.000296587498           
       0.474395            0.000902260019            0.000395524809           
       0.475074            0.000902813057            0.000395657532           
       0.475753             0.00154371762            0.000512909542           
       0.476432             0.00113547517            0.000455906274           
       0.477111            0.000926509369            0.000406843877           
       0.477790             0.00147985216            0.000516923516           
       0.478470             0.00207728316            0.000620541145           
       0.479149              0.0015697947             0.00054502084           
       0.479828            0.000435069571            0.000286251299           
       0.480507            0.000993496021            0.000436052248           
       0.481186             0.00108929931            0.000466885492           
       0.481865            0.000272486455            0.000230620369           
       0.482545             0.00027597333            0.000234817458           
       0.483224            0.000480796827            0.000312057822           
       0.483903            0.000511266102            0.000326862682           
       0.484582             0.00205383959            0.000665779975           
       0.485261            0.000291806333            0.000244596302           
       0.485940           -9.23128608e-05                         0           
       0.486619            0.000100722052            0.000147855171           
       0.487299            0.000116650538            0.000161653989           
       0.487978           -0.000101502082                         0           
       0.488657           -0.000317191089                         0           
       0.489336           -9.35405809e-05                         0           
       0.490015            0.000363585951            0.000291258272           
       0.490694           -7.07454387e-05                         0           
       0.491374            0.000892683267            0.000463281631           
       0.492053            0.000435935939            0.000332630059           
       0.492732           -6.97986528e-05                         0           
       0.493411           -0.000317325848                         0           
       0.494090             0.00019489799            0.000223869843           
       0.494769            0.000474604812            0.000355569638           
       0.495449           -0.000317384054                         0           
       0.496128            -0.00031740357                         0           
       0.496807           -0.000317422871                         0           
       0.497486           -0.000317442351                         0           
       0.498165           -3.29986642e-05                         0           
       0.498844           -3.34810855e-05                         0           
       0.499524           -4.03276663e-05                         0           
       0.500203           -3.23083487e-05                         0           
       0.500882           -2.07593485e-05                         0           
       0.501561               -0.00031756                         0           
       0.502240           -0.000317579795                         0           
       0.502919           -0.000317599502                         0           
       0.503599           -0.000317619289                         0           
       0.504278           -9.08176089e-07                         0           
       0.504957           -0.000317659182                         0           
       0.505636           -0.000317678884                         0           
       0.506315            -0.00031769891                         0           
       0.506994           -0.000317718578                         0           
       0.507673            2.72288067e-05             9.6891631e-05           
       0.508353           -0.000317758248                         0           
       0.509032           -0.000317778205                         0           
       0.509711           -0.000317798169                         0           
       0.510390           -0.000317818447                         0           
       0.511069           -0.000317838658                         0           
       0.511748           -0.000317858787                         0           
       0.512428           -0.000317879061                         0           
       0.513107           -0.000317899022                         0           
       0.513786           -0.000317919045                         0           
       0.514465           -0.000317939411                         0           
       0.515144           -0.000317959762                         0           
       0.515823           -0.000317979928                         0           
       0.516503            9.76736122e-05            0.000201988544           
       0.517182           -0.000318020636                         0           
       0.517861            -0.00031804094                         0           
       0.518540           -0.000318061358                         0           
       0.519219           -0.000318081658                         0           
       0.519898           -0.000318102164                         0           
       0.520578           -0.000318122792                         0           
       0.521257           -0.000318143154                         0           
       0.521936           -0.000318163565                         0           
       0.522615           -0.000318184221                         0           
       0.523294            0.000160752426            0.000277318825           
       0.523973            0.000650984135            0.000561476855           
       0.524653           -0.000318245696                         0           
       0.525332            -0.00031826629                         0           
       0.526011           -0.000318287254                         0           
       0.526690           -0.000318308178                         0           
       0.527369            0.000202204417            0.000326532148           
       0.528048           -0.000318349829                         0           
       0.528728           -0.000318370703                         0           
       0.529407           -0.000318391481                         0           
       0.530086           -0.000318412152                         0           
       0.530765            0.000808688311            0.000679161663           
       0.531444           -0.000318453775                         0           
       0.532123           -0.000318475068                         0           
       0.532802           -0.000318496188                         0           
       0.533482           -0.000318517236                         0           
       0.534161           -0.000318538317                         0           
       0.534840           -0.000318559218                         0           
       0.535519           -0.000318580506                         0           
       0.536198           -0.000318601573                         0           
       0.536877            -0.00031862235                         0           
       0.537557           -0.000318643485                         0           
       0.538236            -0.00031866481                         0           
       0.538915           -0.000318686127                         0           
       0.539594            0.000329983886            0.000462573053           
       0.540273           -0.000318729036                         0           
       0.540952           -0.000318750417                         0           
       0.541632           -0.000318771406                         0           
       0.542311           -0.000318792589                         0           
       0.542990           -0.000318814008                         0           
       0.543669           -0.000318835606                         0           
       0.544348           -0.000318857179                         0           
       0.545027           -0.000318878705                         0           
       0.545707           -0.000318900296                         0           
       0.546386           -0.000318921948                         0           
       0.547065            -0.00031894334                         0           
       0.547744           -0.000318964829                         0           
       0.548423           -0.000318986555                         0           
       0.549102           -0.000319008304                         0           
       0.549782           -0.000319029942                         0           
       0.550461           -0.000319051837                         0           
       0.551140            0.000443102718            0.000582481738           
       0.551819           -0.000319095631                         0           
       0.552498           -0.000319117584                         0           
       0.553177            0.000541012282            0.000674677504           
       0.553856           -0.000319160814                         0           
       0.554536           -0.000319182539                         0           
       0.555215           -0.000319204595                         0           
       0.555894           -0.000319226599                         0           
       0.556573           -0.000319248733                         0           
       0.557252            -0.00031927085                         0           
       0.557931           -0.000319292866                         0           
       0.558611           -0.000319315396                         0           
       0.559290           -0.000319337354                         0           
       0.559969           -0.000319358772                         0           
       0.560648           -0.000319380758                         0           
       0.561327           -0.000319403233                         0           
       0.562006           -0.000319425604                         0           
       0.562686           -0.000319447988                         0           
       0.563365           -0.000319470454                         0           
       0.564044           -0.000319492807                         0           
       0.564723           -0.000319515111                         0           
       0.565402           -0.000319536999                         0           
       0.566081           -0.000319559032                         0           
       0.566761           -0.000319581303                         0           
       0.567440           -0.000319604026                         0           
       0.568119            -0.00031962657                         0           
       0.568798             0.00111036311             0.00126525256           
       0.569477           -0.000319672144                         0           
       0.570156           -0.000319694968                         0           
       0.570836           -0.000319717706                         0           
       0.571515           -0.000319739964                         0           
       0.572194           -0.000319762866                         0           
       0.572873           -0.000319785245                         0           
       0.573552           -0.000319807492                         0           
       0.574231            -0.00031983019                         0           
       0.574911            -0.00031985346                         0           
       0.575590           -0.000319876283                         0           
       0.576269           -0.000319899035                         0           
       0.576948           -0.000319922225                         0           
       0.577627           -0.000319944708                         0           
       0.578306           -0.000319967508                         0           
       0.578985           -0.000319990502                         0           
       0.579665           -0.000320013365                         0           
       0.580344           -0.000320036573                         0           
       0.581023           -0.000320059756                         0           
       0.581702           -0.000320082724                         0           
       0.582381           -0.000320105484                         0           
       0.583060           -0.000320128923                         0           
       0.583740           -0.000320151994                         0           
       0.584419           -0.000320175141                         0           
       0.585098           -0.000320198261                         0           
       0.585777           -0.000320221561                         0           
       0.586456            -0.00032024524                         0           
       0.587135           -0.000320268289                         0           
       0.587815            -0.00032029109                         0           
       0.588494           -0.000320314601                         0           
       0.589173           -0.000320338652                         0           
       0.589852           -0.000320361425                         0           
       0.590531           -0.000320385057                         0           
       0.591210           -0.000320408143                         0           
       0.591890           -0.000320431675                         0           
       0.592569            -0.00032045442                         0           
       0.593248           -0.000320479287                         0           
       0.593927            -0.00032050293                         0           
       0.594606           -0.000320527058                         0           
       0.595285            -0.00032054975                         0           
       0.595965           -0.000320570924                         0           
       0.596644           -0.000320592714                         0           
