################################################################################
# EDF_DataBlockID                     0.Image.Psd
# EDF_BinarySize                      2105344
# EDF_HeaderSize                      2560
# ByteOrder                           LowByteFirst
# DataType                            FloatValue
# Dim_1                               512
# Dim_2                               1028
# Image                               0
# HeaderID                            EH:000000:000000:000000
# Size                                2105344
# Center_1                            304.9000
# Center_2                            588.7000
# Comment                             Xenocs_Cell_Window - 20251028_20perc_iodine_1.23mg
# DDummy                              0.6
# Date                                2025-10-31T13:58:20
# Delta                               21.910000
# Dummy                               -1.5
# ExposureTime                        360
# Gamma                               15.360000
# Intensity1                          8.5623e-10
# PSize_1                             7.5e-05
# PSize_2                             7.5e-05
# Pressure                            0.0326681
# SampleDistance                      0.115750
# SampleEnvKind                       large
# SampleEnvPN                         ElectroChemical cell
# SampleEnvSN                         1141
# Thickness                           0
# Wavelength                          1.541891e-10
# Wavelength                          1.54189e-10
# aux                                 0
# aux_dial                            0.002375
# beamx                               588.434
# beamx_dial                          588.434
# beamz                               657.808
# beamz_dial                          657.808
# det0x                               0
# det0x_dial                          6.36945
# det0xvd                             0
# det0xvd_dial                        0
# det0y                               450.002
# det0y_dial                          481.635
# det0z                               0
# det0z_dial                          1.23302
# det0zvd                             0
# det0zvd_dial                        0
# mag                                 1.818
# mag_dial                            1.818
# om                                  0.2499
# om_dial                             -0.610199
# phi                                 -0.0120535
# phi_dial                            0
# ry                                  0.599993
# ry_dial                             0.599993
# s1bot                               0.8
# s1bot_dial                          -1.66094
# s1hl                                0.8
# s1hl_dial                           -0.608437
# s1hr                                0.8
# s1hr_dial                           0.970938
# s1top                               0.8
# s1top_dial                          -0.461562
# s2bot                               0.45
# s2bot_dial                          1.36109
# s2hl                                0.45
# s2hl_dial                           -0.83375
# s2hr                                0.45
# s2hr_dial                           -0.118594
# s2top                               0.45
# s2top_dial                          1.44734
# w2theta                             32
# w2theta_dial                        32
# waxsch                              19.2605
# waxsch_dial                         -32.7355
# waxsh                               137.085
# waxsh_dial                          -43.5338
# waxsth                              26.0607
# waxsth_dial                         -19.4086
# waxsz                               67.0407
# waxsz_dial                          -23.7954
# wind                                65.9854
# wind_dial                           66.0041
# wpsi                                124
# wpsi_dial                           124
# wstod                               115
# wstod_dial                          115
# x                                   0
# x_dial                              1.00969
# z                                   0
# z_dial                              13.3172
# CountCutoff                         6807993
# DetectorModel                       Dectris EIGER2 Si 500K, S/N E-01-0554
# ThresholdSetting                    4023.88989258
# Saturation                          0
# FlatField                           Corrected
# BackgroundReductionExtra            0.02
# BackgroundCorrectionConstant        0.0026712
# Detector                            0
# Monitor                             0
# Pil_Roi0                            0
# SumForIntensity1                    3.08243e+08
# TransmittedFlux                     856230
# det                                 0
# mon                                 0
# pilai0                              3.08243e+08
# pilai1                              778887
# pilct0                              5.33061e+08
# pilct1                              778887
# pilroi0                             0
# pilroi1                             0
# sec                                 1
# title                               20251028_20perc_iodine_1.23mg_1_00651.edf
# usaxs0                              0
# Operation                           Azimuthal average I(q)
# Error_model                         ErrorModel.poisson
# Geometrical_correction              True
# Transmission_correction             True
# Thickness_correction                False
# Binning mode                        Uniform
# Binning factor                      1.0
# Psi                                 0.0
# Omega                               0.2499
# MaskInvalidPixels                   True
# DetectorEdge                        3
# MaskFiles                           ['WAXS_corrected.edf']
################################################################################
    q(A⁻¹)                Intensity(a.u.)            Sigma_I(a.u.)            
       0.693100              0.0123869132             0.00741481628           
       0.695741              0.0056438424             0.00408426588           
       0.698381             0.00845523432             0.00612353562           
       0.701021             0.00880354504              0.0088332476           
       0.703662              0.0142284273             0.00648200739           
       0.706302              0.0052076703             0.00303605732           
       0.708942               0.014279196             0.00648875176           
       0.711583             0.00443923381             0.00313291841           
       0.714223               0.011625132             0.00585320777           
       0.716864              0.0073786886             0.00305109247           
       0.719504              0.0044427325             0.00255481064           
       0.722144             0.00753881349             0.00308199516           
       0.724785             0.00866058808              0.0026350299           
       0.727425             0.00733087391             0.00327966722           
       0.730065             0.00795392748             0.00241648406           
       0.732706              0.0097238326             0.00224367837           
       0.735346              0.0052316757             0.00214529186           
       0.737987             0.00871597034             0.00195668502           
       0.740627             0.00878219542             0.00293056312           
       0.743267             0.00829656018             0.00190783462           
       0.745908             0.00618540521             0.00178724665           
       0.748548              0.0074188756             0.00180419673           
       0.751189             0.00477493702             0.00195036188           
       0.753829             0.00606214908             0.00202008567           
       0.756469             0.00476071879             0.00144353093           
       0.759110              0.0062803298             0.00174723608           
       0.761750             0.00754076224             0.00169288966           
       0.764390              0.0112354563             0.00216282735           
       0.767031             0.00805952697             0.00158628213           
       0.769671             0.00486644839             0.00153761057           
       0.772312             0.00675365707              0.0013789901           
       0.774952             0.00769166824             0.00198729177           
       0.777592             0.00598270809              0.0012766077           
       0.780233             0.00864497033             0.00185145891           
       0.782873             0.00873036575             0.00177947206           
       0.785513             0.00745178202              0.0017575545           
       0.788154             0.00663336342             0.00138716939           
       0.790794             0.00579914365             0.00155061353           
       0.793435             0.00702024263             0.00153266738           
       0.796075             0.00711542054             0.00148640892           
       0.798715              0.0112415057             0.00220781665           
       0.801356             0.00826171806             0.00162900291           
       0.803996             0.00966781108             0.00179656721           
       0.806637             0.00527909494             0.00105650449           
       0.809277             0.00844830135             0.00144663059           
       0.811917             0.00736960333             0.00126308521           
       0.814558             0.00554896274             0.00113911181           
       0.817198             0.00695070176             0.00121121103           
       0.819838             0.00668167407             0.00120187789           
       0.822479             0.00685537388             0.00142955996           
       0.825119             0.00776369262             0.00129483577           
       0.827760             0.00798297795             0.00133001281           
       0.830400             0.00565789523             0.00105384324           
       0.833040             0.00602986271             0.00113981912           
       0.835681             0.00664155536              0.0013599164           
       0.838321             0.00764896556             0.00122493314           
       0.840961             0.00557276586             0.00113918018           
       0.843602             0.00758498791             0.00121877391           
       0.846242             0.00663149698             0.00113942753           
       0.848883             0.00780223665              0.0012647866           
       0.851523             0.00719287296             0.00119930698           
       0.854163             0.00587295682             0.00115246234           
       0.856804             0.00805129745             0.00121326931           
       0.859444             0.00612185587             0.00103658822           
       0.862085             0.00706621593             0.00116072732           
       0.864725             0.00720439915              0.0011994432           
       0.867365             0.00581512833            0.000999255057           
       0.870006             0.00714767602             0.00105569148           
       0.872646             0.00720126116             0.00111118052           
       0.875286             0.00744071019             0.00108665215           
       0.877927             0.00751225176             0.00105359753           
       0.880567              0.0065106073             0.00101617545           
       0.883208             0.00699617978             0.00104346429           
       0.885848             0.00552808637            0.000963069785           
       0.888488             0.00781452334             0.00107397916           
       0.891129             0.00682554892             0.00103061292           
       0.893769             0.00597920107            0.000923149653           
       0.896410              0.0075226185            0.000965415384           
       0.899050             0.00719205944             0.00103810591           
       0.901690             0.00978061856             0.00131868764           
       0.904331             0.00936377552             0.00114390507           
       0.906971             0.00901492685             0.00119404303           
       0.909611             0.00693244085            0.000953182536           
       0.912252              0.0069708921            0.000987264079           
       0.914892             0.00685319063             0.00106972222           
       0.917533             0.00790110117             0.00108657042           
       0.920173             0.00834618963             0.00103612976           
       0.922813             0.00593973659            0.000917253636           
       0.925454             0.00790464977            0.000952834764           
       0.928094             0.00821818053             0.00103720906           
       0.930734             0.00802910288             0.00110374976           
       0.933375             0.00844326945             0.00112073239           
       0.936015             0.00807945189             0.00099569352           
       0.938656             0.00906064945             0.00113114549           
       0.941296             0.00683463208             0.00089034136           
       0.943936             0.00735312332            0.000905630732           
       0.946577             0.00670834653            0.000859294925           
       0.949217             0.00770552706            0.000846896319           
       0.951858             0.00783628032            0.000894021454           
       0.954498             0.00684074959            0.000966850174           
       0.957138             0.00611312059            0.000865875188           
       0.959779              0.0103876355             0.00111267554           
       0.962419             0.00681513975            0.000895259913           
       0.965059             0.00778336895             0.00100624393           
       0.967700             0.00667745237            0.000954572625           
       0.970340             0.00799842111            0.000924486152           
       0.972981             0.00795531685            0.000840022917           
       0.975621             0.00713114192            0.000846083494           
       0.978261             0.00731191952            0.000814054299           
       0.980902             0.00734738462            0.000976334547           
       0.983542             0.00670684126            0.000826060413           
       0.986182             0.00884857133             0.00093155754           
       0.988823              0.0089726938            0.000910866094           
       0.991463             0.00947557935            0.000998660676           
       0.994104             0.00689119096            0.000830799706           
       0.996744             0.00646307346            0.000820664232           
       0.999384             0.00826196577            0.000829827167           
       1.002025             0.00800119507             0.00091146288           
       1.004665             0.00894897936            0.000880918461           
       1.007306             0.00676089317            0.000761767303           
       1.009946             0.00642309577              0.0007572392           
       1.012586             0.00956339198            0.000899911009           
       1.015227             0.00936982255             0.00095695194           
       1.017867             0.00704698481            0.000797591929           
       1.020507             0.00755246679             0.00079980489           
       1.023148             0.00856761484            0.000919183162           
       1.025788             0.00720070997             0.00077266589           
       1.028429             0.00793531495            0.000849783663           
       1.031069             0.00839493498            0.000822512158           
       1.033709              0.0076220833            0.000833114655           
       1.036350             0.00903356597             0.00081459171           
       1.038990             0.00732536097            0.000747021687           
       1.041630             0.00730095824            0.000777852307           
       1.044271             0.00922002314            0.000822082199           
       1.046911             0.00681811071            0.000743606447           
       1.049552             0.00687253326            0.000784364726           
       1.052192             0.00963320676            0.000847961514           
       1.054832             0.00797783528            0.000778692666           
       1.057473             0.00731264787            0.000734928002           
       1.060113             0.00822192948            0.000760011317           
       1.062754             0.00673009458            0.000702040249           
       1.065394                0.00671364            0.000741330107           
       1.068034             0.00820279096            0.000745571644           
       1.070675             0.00788612565            0.000762563246           
       1.073315             0.00911520624             0.00083158782           
       1.075955             0.00858468152            0.000761877694           
       1.078596             0.00794903649            0.000779170701           
       1.081236             0.00952378312            0.000816673567           
       1.083877             0.00894775759            0.000784489944           
       1.086517              0.0089325715            0.000840488653           
       1.089157             0.00938583451            0.000893953747           
       1.091798              0.0089390578            0.000764862989           
       1.094438             0.00903146966            0.000766325023           
       1.097078             0.00789117574            0.000687022206           
       1.099719             0.00811752018            0.000753701746           
       1.102359             0.00913753433            0.000748885931           
       1.105000              0.0108987651             0.00091454969           
       1.107640             0.00855292341            0.000774653896           
       1.110280              0.0102124188            0.000772344927           
       1.112921             0.00795737514             0.00073235831           
       1.115561             0.00841667913            0.000715851514           
       1.118202             0.00793997672            0.000695939051           
       1.120842              0.0088175077            0.000770796808           
       1.123482             0.00793263928            0.000727905243           
       1.126123             0.00945979837            0.000762432519           
       1.128763             0.00841520066            0.000724036081           
       1.131403             0.00954264296              0.0007429381           
       1.134044             0.00895659445            0.000740638274           
       1.136684              0.0089209377            0.000788075436           
       1.139325             0.00891373702            0.000725681155           
       1.141965             0.00920037665            0.000742130639           
       1.144605             0.00984212992            0.000731887196           
       1.147246             0.00967601348            0.000742675293           
       1.149886             0.00963702825            0.000738546502           
       1.152527             0.00971655747            0.000752371823           
       1.155167             0.00889287034            0.000684616493           
       1.157807             0.00914259757            0.000744265929           
       1.160448             0.00949557356            0.000740691859           
       1.163088             0.00909179475            0.000691326431           
       1.165728              0.0103575429            0.000757597054           
       1.168369              0.0084096715            0.000688958829           
       1.171009             0.00976068903            0.000720323185           
       1.173650              0.0100184239            0.000748919488           
       1.176290              0.0100971348            0.000734731697           
       1.178930             0.00961725493            0.000702783707           
       1.181571             0.00960009817            0.000716080577           
       1.184211              0.0099993936            0.000733411964           
       1.186851             0.00972429637            0.000707114047           
       1.189492             0.00902872017            0.000676771204           
       1.192132             0.00985721649             0.00069920671           
       1.194773             0.00960500777            0.000693219407           
       1.197413             0.00956594629            0.000662850378           
       1.200053             0.00936004945            0.000672337775           
       1.202694             0.00934780325            0.000638936365           
       1.205334             0.00947126515            0.000693105702           
       1.207975             0.00978712262            0.000672530142           
       1.210615              0.0103994129            0.000764770377           
       1.213255             0.00887861196            0.000632781262           
       1.215896             0.00901130045            0.000649042814           
       1.218536              0.0111595564            0.000694499113           
       1.221176              0.0100681363            0.000717190092           
       1.223817             0.00989660665             0.00066747893           
       1.226457              0.0106194424            0.000705354943           
       1.229098              0.0104373323            0.000699246745           
       1.231738             0.00964270913            0.000675409912           
       1.234378              0.0112520751            0.000685567882           
       1.237019             0.00917450002            0.000637924617           
       1.239659             0.00852965444            0.000609739261           
       1.242299             0.00975823865            0.000643889048           
       1.244940             0.00930620228             0.00061154606           
       1.247580              0.0105934799            0.000672426324           
       1.250221             0.00942263209             0.00063026537           
       1.252861             0.00909235834            0.000589406256           
       1.255501              0.0100086258            0.000671455257           
       1.258142              0.0110059078            0.000661641139           
       1.260782              0.0112055703            0.000682061081           
       1.263423              0.0100763626            0.000621484712           
       1.266063              0.0102572283            0.000642695544           
       1.268703              0.0110791192            0.000662405697           
       1.271344              0.0110954408            0.000685359382           
       1.273984              0.0106215463            0.000647632126           
       1.276624              0.0104428894             0.00063009836           
       1.279265             0.00968724141            0.000616951439           
       1.281905              0.0100529329            0.000631277795           
       1.284546              0.0101818885              0.0006140884           
       1.287186               0.010402826            0.000608987493           
       1.289826              0.0111739944            0.000665187076           
       1.292467              0.0109945286            0.000645290502           
       1.295107               0.010386062            0.000620950162           
       1.297747              0.0109499081            0.000610113692           
       1.300388              0.0103213861            0.000645730561           
       1.303028              0.0111992796            0.000642134652           
       1.305669             0.00979660955            0.000614877667           
       1.308309              0.0112774808            0.000653219121           
       1.310949              0.0118057965            0.000667673003           
       1.313590              0.0106543854            0.000614452205           
       1.316230              0.0110011992            0.000666292393           
       1.318871              0.0121318593            0.000685264953           
       1.321511              0.0112270167             0.00064699618           
       1.324151              0.0121065767            0.000651943963           
       1.326792              0.0102199168            0.000602698327           
       1.329432              0.0112008283            0.000626506785           
       1.332072             0.00973926347            0.000575496567           
       1.334713              0.0123062031            0.000667672022           
       1.337353              0.0101109271            0.000580395809           
       1.339994              0.0109126223            0.000632753504           
       1.342634              0.0123749989            0.000646149103           
       1.345274              0.0112580919            0.000637813155           
       1.347915                0.01091935             0.00061079824           
       1.350555              0.0128768481            0.000674907875           
       1.353195              0.0103878777            0.000609159384           
       1.355836               0.010167969            0.000593279402           
       1.358476              0.0112165881            0.000605145324           
       1.361117              0.0101176722             0.00057552648           
       1.363757              0.0107594811            0.000611622183           
       1.366397              0.0116609649            0.000617461063           
       1.369038              0.0105482914            0.000593111537           
       1.371678              0.0115870124            0.000616148375           
       1.374319              0.0113517265            0.000604609113           
       1.376959              0.0112946513            0.000597022274           
       1.379599              0.0116915283             0.00065097131           
       1.382240              0.0112661186            0.000600581374           
       1.384880              0.0119535475            0.000655272948           
       1.387520              0.0109829728            0.000596532809           
       1.390161              0.0111234859            0.000570175573           
       1.392801               0.011890314             0.00061420328           
       1.395442              0.0121316374            0.000628878153           
       1.398082              0.0121747376            0.000589962186           
       1.400722              0.0116246147            0.000603848742           
       1.403363               0.011105343            0.000621265313           
       1.406003              0.0104697778            0.000564538253           
       1.408644              0.0115873647            0.000622154103           
       1.411284              0.0113918503            0.000584133421           
       1.413924              0.0109700694            0.000571092651           
       1.416565              0.0114972603              0.0005823576           
       1.419205              0.0115562066            0.000609047216           
       1.421845              0.0101796955            0.000571288684           
       1.424486              0.0114261446             0.00058178878           
       1.427126               0.011232911            0.000599233864           
       1.429767               0.011277746             0.00056493029           
       1.432407             0.00944281205            0.000540982613           
       1.435047              0.0100241073            0.000523477283           
       1.437688             0.00961291899            0.000520293051           
       1.440328              0.0104971057            0.000554901561           
       1.442968              0.0116366274            0.000597334956           
       1.445609              0.0108755193            0.000559151027           
       1.448249               0.010002745            0.000549822956           
       1.450890              0.0106473139            0.000563558993           
       1.453530              0.0111840125            0.000604273241           
       1.456170             0.00955049152            0.000541942785           
       1.458811              0.0107182393            0.000548985279           
       1.461451              0.0109567266            0.000556515363           
       1.464092              0.0106219531            0.000551529864           
       1.466732              0.0104749937             0.00054299471           
       1.469372              0.0123143812            0.000574963618           
       1.472013              0.0104884557            0.000572292481           
       1.474653               0.011050414            0.000578362043           
       1.477293               0.012569372            0.000629833344           
       1.479934              0.0106498351            0.000553202033           
       1.482574              0.0109507572            0.000542644288           
       1.485215              0.0107599573            0.000547914587           
       1.487855              0.0107366223            0.000554540192           
       1.490495              0.0112749427             0.00056617924           
       1.493136              0.0109964797            0.000551479804           
       1.495776              0.0111929537             0.00055385123           
       1.498416              0.0113434789             0.00057580482           
       1.501057              0.0109861602            0.000554174933           
       1.503697              0.0106771436            0.000534120298           
       1.506338              0.0109104965            0.000549791778           
       1.508978              0.0103687938            0.000530698647           
       1.511618              0.0106504853            0.000572817369           
       1.514259              0.0103121589             0.00054417362           
       1.516899              0.0112805238            0.000554164171           
       1.519540              0.0112938974            0.000563434173           
       1.522180              0.0111734352            0.000565344301           
       1.524820              0.0108167598            0.000553126922           
       1.527461              0.0105796978            0.000549737572           
       1.530101              0.0101352964            0.000532686562           
       1.532741              0.0106528247            0.000542947938           
       1.535382              0.0106892977            0.000552632359           
       1.538022              0.0104567833            0.000514915646           
       1.540663              0.0101699382            0.000546174651           
       1.543303              0.0107934416            0.000522446586           
       1.545943              0.0100456075            0.000533470726           
       1.548584              0.0108000976            0.000563070846           
       1.551224             0.00948484844            0.000487883023           
       1.553864              0.0104905996            0.000542184342           
       1.556505              0.0111061647             0.00053891173           
       1.559145              0.0106418538             0.00053398858           
       1.561786              0.0107324701            0.000536670244           
       1.564426             0.00991939156            0.000499893275           
       1.567066              0.0109048938              0.0005491958           
       1.569707              0.0111197719            0.000544618277           
       1.572347             0.00916473691            0.000510794987           
       1.574988              0.0102861748            0.000515079218           
       1.577628              0.0102284257            0.000535590795           
       1.580268             0.00934945644            0.000496132788           
       1.582909             0.00886770656            0.000512153301           
       1.585549              0.0104549423            0.000539958118           
       1.588189             0.00938283129            0.000500360016           
       1.590830              0.0109076321            0.000538809762           
       1.593470               0.010009438            0.000536586341           
       1.596111               0.010016843            0.000524068707           
       1.598751             0.00996664126            0.000506530923           
       1.601391             0.00951552795            0.000505854431           
       1.604032             0.00895972665            0.000501120183           
       1.606672              0.0098696072            0.000511010344           
       1.609312             0.00964396837            0.000527302088           
       1.611953             0.00894059427            0.000496824829           
       1.614593              0.0102036159            0.000520632283           
       1.617234              0.0100259793            0.000534853819           
       1.619874             0.00911372882            0.000507926392           
       1.622514             0.00944469283            0.000510013241           
       1.625155             0.00897034494            0.000499977141           
       1.627795             0.00931411056            0.000496984388           
       1.630436              0.0100757325            0.000514205461           
       1.633076             0.00961263502              0.0005088368           
       1.635716             0.00953804313            0.000498972435           
       1.638357             0.00916936936            0.000490523563           
       1.640997             0.00888303511            0.000497429079           
       1.643637             0.00872548135            0.000479742644           
       1.646278             0.00901238574            0.000502885487           
       1.648918             0.00868643186            0.000495054532           
       1.651559             0.00928107099            0.000515690502           
       1.654199             0.00898980169            0.000493621396           
       1.656839             0.00859568708            0.000482848392           
       1.659480             0.00955370924            0.000528160987           
       1.662120             0.00920355029            0.000488239542           
       1.664761             0.00973459513            0.000521581099           
       1.667401             0.00877846243            0.000473404888           
       1.670041             0.00875295175            0.000479924378           
       1.672682             0.00929017982             0.00049240097           
       1.675322             0.00880142633            0.000476191488           
       1.677962             0.00859740886            0.000465448295           
       1.680603             0.00801253455            0.000450720168           
       1.683243             0.00866059701            0.000488889576           
       1.685884             0.00887102194            0.000498447031           
       1.688524             0.00840637219            0.000475838221           
       1.691164             0.00837858059            0.000475158829           
       1.693805             0.00838376948            0.000480527364           
       1.696445             0.00957413824            0.000516488014           
       1.699085             0.00841410266            0.000467964076           
       1.701726             0.00883635145            0.000461974632           
       1.704366             0.00925644475            0.000498111975           
       1.707007             0.00904195766            0.000481333056           
       1.709647             0.00932421151            0.000494307898           
       1.712287             0.00935079883            0.000499320845           
       1.714928             0.00856790246            0.000481814756           
       1.717568             0.00973195014            0.000483721632           
       1.720209             0.00866235898            0.000478012148           
       1.722849             0.00788650886            0.000453758456           
       1.725489             0.00784371271            0.000452905603           
       1.728130             0.00815804062            0.000490861021           
       1.730770              0.0086330017            0.000479564751           
       1.733410             0.00820720348            0.000460238589           
       1.736051             0.00879287286            0.000479692846           
       1.738691             0.00871336919            0.000467839337           
       1.741332             0.00923555123            0.000495737784           
       1.743972             0.00842820461            0.000489045908           
       1.746612             0.00821276799            0.000463567967           
       1.749253             0.00924991744              0.0005016844           
       1.751893             0.00838439498            0.000474130591           
       1.754533              0.0080415952            0.000463903284           
       1.757174             0.00847751797             0.00047185069           
       1.759814             0.00886441097            0.000475183893           
       1.762455             0.00912854575            0.000491065928           
       1.765095              0.0087721536            0.000460502817           
       1.767735             0.00811835677            0.000456676551           
       1.770376             0.00903451538            0.000483025979           
       1.773016             0.00906624833            0.000480632414           
       1.775657             0.00798675282            0.000444621107           
       1.778297              0.0086979924            0.000460000833           
       1.780937             0.00821447563            0.000471842566           
       1.783578             0.00853576705            0.000468955031           
       1.786218             0.00871775488            0.000494595584           
       1.788858             0.00865765185            0.000468124371           
       1.791499             0.00926125375            0.000478730347           
       1.794139             0.00887363233            0.000464802975           
       1.796780             0.00865368008            0.000456793427           
       1.799420             0.00926273329            0.000469977761           
       1.802060             0.00869381985            0.000458993865           
       1.804701              0.0091245877            0.000451251876           
       1.807341             0.00899531348            0.000470796662           
       1.809981             0.00856101454            0.000460822195           
       1.812622             0.00923779365            0.000470072617           
       1.815262             0.00927514847            0.000481027667           
       1.817903             0.00864416414            0.000457496829           
       1.820543             0.00873161668            0.000466970044           
       1.823183             0.00875097795             0.00046723048           
       1.825824              0.0084704076            0.000439159063           
       1.828464             0.00841222652            0.000456267199           
       1.831105             0.00911865684            0.000461905121           
       1.833745             0.00843836406            0.000453830863           
       1.836385             0.00871333069            0.000474326649           
       1.839026             0.00895984412            0.000479469902           
       1.841666             0.00885474603            0.000474959374           
       1.844306             0.00847560147            0.000452000659           
       1.846947             0.00899043856            0.000469607003           
       1.849587             0.00760895686            0.000477057923           
       1.852228             0.00857041159             0.00045782221           
       1.854868             0.00921792228            0.000501558091           
       1.857508             0.00861144781            0.000480023241           
       1.860149             0.00890454069            0.000496992262           
       1.862789             0.00896783845            0.000481414463           
       1.865429             0.00788237617            0.000471129903           
       1.868070             0.00879603107            0.000491052771           
       1.870710             0.00906950554            0.000487132262           
       1.873351             0.00867189903            0.000482223255           
       1.875991               0.009034396             0.00050023165           
       1.878631             0.00876003317            0.000483143453           
       1.881272             0.00887236187            0.000482973341           
       1.883912             0.00856966644            0.000493986257           
       1.886553             0.00854640459            0.000487800081           
       1.889193             0.00844879982            0.000484177893           
       1.891833             0.00845455731            0.000503008925           
       1.894474             0.00956955673            0.000530490158           
       1.897114             0.00847673379            0.000483144529           
       1.899754             0.00868295836            0.000491032214           
       1.902395             0.00924890642            0.000496873962           
       1.905035             0.00843879536            0.000502696617           
       1.907676             0.00856229972            0.000477247502           
       1.910316             0.00831522068            0.000482798786           
       1.912956             0.00868420378            0.000482539737           
       1.915597             0.00816909028            0.000470625422           
       1.918237             0.00919268159            0.000515593766           
       1.920878              0.0080997668            0.000481993642           
       1.923518             0.00853285008            0.000494921521           
       1.926158             0.00956880799            0.000517303841           
       1.928799             0.00884959909            0.000491724877           
       1.931439               0.007873888            0.000475991583           
       1.934079             0.00849984402            0.000515556122           
       1.936720             0.00777884445            0.000456969331           
       1.939360             0.00909646435            0.000527197667           
       1.942001             0.00831036998            0.000461853347           
       1.944641              0.0077870156             0.00045588038           
       1.947281             0.00800742676            0.000458026067           
       1.949922             0.00859960824            0.000490282253           
       1.952562             0.00870898219            0.000508855848           
       1.955202             0.00852771702            0.000502918656           
       1.957843             0.00787268769             0.00047068651           
       1.960483             0.00794647203            0.000494402775           
       1.963124             0.00876427398             0.00050856831           
       1.965764              0.0083601389             0.00046840623           
       1.968404             0.00882454483            0.000476693447           
       1.971045             0.00796433225            0.000461718566           
       1.973685             0.00842896626            0.000498235183           
       1.976326             0.00890571567            0.000505093088           
       1.978966             0.00851344479            0.000498177778           
       1.981606              0.0084094528            0.000505451967           
       1.984247              0.0080884111            0.000492450892           
       1.986887             0.00886240352            0.000509299592           
       1.989527             0.00764625948            0.000467971746           
       1.992168             0.00709099661            0.000467597668           
       1.994808             0.00849545294             0.00050961984           
       1.997449             0.00790933558             0.00048162753           
       2.000089             0.00774301043            0.000474647248           
       2.002729             0.00776482959            0.000475600501           
       2.005370             0.00819900454             0.00048345795           
       2.008010             0.00831880111            0.000508230378           
       2.010650             0.00736592001            0.000481806164           
       2.013291             0.00794450233            0.000480078356           
       2.015931             0.00814128368            0.000482552243           
       2.018572             0.00850560911            0.000527557489           
       2.021212             0.00796988153            0.000501498016           
       2.023852             0.00729261517             0.00045402936           
       2.026493             0.00745800436            0.000479662779           
       2.029133             0.00887486209            0.000512715698           
       2.031774             0.00724779615            0.000486263912           
       2.034414              0.0084881598            0.000484204954           
       2.037054              0.0074028319            0.000463652006           
       2.039695             0.00769694588            0.000469202082           
       2.042335             0.00758797194            0.000484139896           
       2.044975             0.00765689471             0.00048043579           
       2.047616             0.00771242865            0.000480977142           
       2.050256             0.00812594454             0.00049837521           
       2.052897             0.00740776473            0.000484614784           
       2.055537             0.00744607325            0.000469571246           
       2.058177              0.0078584858            0.000472399658           
       2.060818             0.00775367181            0.000491563909           
       2.063458             0.00696591092            0.000485539266           
       2.066098             0.00897629771            0.000519936091           
       2.068739             0.00764640937            0.000487336402           
       2.071379             0.00767644214            0.000501027344           
       2.074020             0.00910148904            0.000533697494           
       2.076660             0.00737764832            0.000484389382           
       2.079300              0.0077301446            0.000507974911           
       2.081941             0.00783272145            0.000468184662           
       2.084581             0.00780007711            0.000493142625           
       2.087222             0.00701364277            0.000450976705           
       2.089862             0.00748618357            0.000507459341           
       2.092502             0.00614347288            0.000445617099           
       2.095143             0.00807254173            0.000527488492           
       2.097783              0.0074326478            0.000490038818           
       2.100423             0.00752682316            0.000475179581           
       2.103064             0.00609826792            0.000443812489           
       2.105704             0.00793942117             0.00050388818           
       2.108345             0.00758104678            0.000473049805           
       2.110985             0.00755028549            0.000504225312           
       2.113625             0.00778578128            0.000516496599           
       2.116266             0.00800976989            0.000531305975           
       2.118906             0.00719757544            0.000469372453           
       2.121546             0.00729647166            0.000463562968           
       2.124187             0.00716497697            0.000482193357           
       2.126827             0.00735974146            0.000494157399           
       2.129468             0.00721632774            0.000490568963           
       2.132108             0.00729146841            0.000479764727           
       2.134748             0.00738492957            0.000480956445           
       2.137389             0.00729373613             0.00049864942           
       2.140029              0.0068978252            0.000434136268           
       2.142670             0.00742242051            0.000481290533           
       2.145310             0.00738776791             0.00046735391           
       2.147950              0.0068577828            0.000463459188           
       2.150591              0.0081682274            0.000500693792           
       2.153231             0.00738421599            0.000490028403           
       2.155871             0.00678779801            0.000453879467           
       2.158512             0.00709958717            0.000484345835           
       2.161152             0.00762442032             0.00048619991           
       2.163793             0.00694646491            0.000461991323           
       2.166433             0.00692751393            0.000473768838           
       2.169073              0.0070135215            0.000466087793           
       2.171714             0.00732660312            0.000472816084           
       2.174354             0.00733388809            0.000494294693           
       2.176995             0.00654635554             0.00046503682           
       2.179635             0.00772948335            0.000533974756           
       2.182275             0.00732257302            0.000490707095           
       2.184916             0.00632726236            0.000440572244           
       2.187556             0.00667400309            0.000447947982           
       2.190196             0.00738219419            0.000492309036           
       2.192837             0.00707398228            0.000479300287           
       2.195477              0.0074429031            0.000468719999           
       2.198118             0.00773150722             0.00048996196           
       2.200758             0.00649947046            0.000460883261           
       2.203398             0.00759272261            0.000501325967           
       2.206039              0.0077038996            0.000477923639           
       2.208679             0.00771008129            0.000489242419           
       2.211319             0.00765685417            0.000490361947           
       2.213960             0.00664825467            0.000463047539           
       2.216600             0.00788117614            0.000521540942           
       2.219241             0.00662389358            0.000456966838           
       2.221881             0.00711888634            0.000474707463           
       2.224521             0.00759428211            0.000496309775           
       2.227162             0.00691972277            0.000464269326           
       2.229802             0.00740217191            0.000495212865           
       2.232443             0.00717998228            0.000480031058           
       2.235083             0.00751959152            0.000505743109           
       2.237723             0.00751521955             0.00048519283           
       2.240364              0.0073382489            0.000491257574           
       2.243004              0.0064697429            0.000457589322           
       2.245644             0.00704289584            0.000482206913           
       2.248285             0.00704461467            0.000472604541           
       2.250925              0.0070661235            0.000476200739           
       2.253566             0.00670967428            0.000496088291           
       2.256206             0.00683896523            0.000490830697           
       2.258846              0.0070239284            0.000473187623           
       2.261487             0.00710308597            0.000499445038           
       2.264127             0.00717472718            0.000484782515           
       2.266767             0.00773796277            0.000516864744           
       2.269408             0.00654837671            0.000477425084           
       2.272048             0.00705605737            0.000492628271           
       2.274689             0.00709420292            0.000500466622           
       2.277329              0.0070444023            0.000469564699           
       2.279969             0.00721802051            0.000505946647           
       2.282610             0.00615983881            0.000454391577           
       2.285250             0.00759215753            0.000482838402           
       2.287891             0.00748869503            0.000514136245           
       2.290531             0.00802269412            0.000539305017           
       2.293171             0.00730030976            0.000501122914           
       2.295812             0.00669144269             0.00047784194           
       2.298452             0.00821727884            0.000553744886           
       2.301092             0.00703340195            0.000475994119           
       2.303733             0.00750127999            0.000511405918           
       2.306373              0.0073451763             0.00051402633           
       2.309014             0.00684663904            0.000486594435           
       2.311654             0.00674980948            0.000504180893           
       2.314294             0.00742174671            0.000487075742           
       2.316935             0.00657458844            0.000460328941           
       2.319575             0.00781646872             0.00052590179           
       2.322215             0.00690996605            0.000515318083           
       2.324856             0.00715996695            0.000482276036           
       2.327496             0.00652857328            0.000489678294           
       2.330137             0.00779940547             0.00051216565           
       2.332777             0.00635798652            0.000476807494           
       2.335417             0.00653393529            0.000468931448           
       2.338058             0.00749509037            0.000517241915           
       2.340698             0.00744557771             0.00051147938           
       2.343339             0.00612603844            0.000474157043           
       2.345979             0.00791758747             0.00050998386           
       2.348619             0.00720963223            0.000504438596           
       2.351260             0.00785927272            0.000523606738           
       2.353900             0.00610608785            0.000460063345           
       2.356540             0.00725745199            0.000500854137           
       2.359181             0.00725684537            0.000493811774           
       2.361821             0.00715046482            0.000473499787           
       2.364462             0.00782559461            0.000518073115           
       2.367102             0.00670751939            0.000492904505           
       2.369742             0.00738722334            0.000544468848           
       2.372383             0.00723965867            0.000488066208           
       2.375023             0.00629904011            0.000478574032           
       2.377663             0.00647585955            0.000463965026           
       2.380304             0.00783109085            0.000518715585           
       2.382944             0.00782816915            0.000493968004           
       2.385585             0.00781275313            0.000526306395           
       2.388225             0.00677961215            0.000487970403           
       2.390865              0.0069108604            0.000487610301           
       2.393506             0.00707956492             0.00048421512           
       2.396146             0.00759440204            0.000542258059           
       2.398787             0.00758659807            0.000499476055           
       2.401427             0.00655154207            0.000448016446           
       2.404067             0.00674657736            0.000464777056           
       2.406708             0.00697648091            0.000466962234           
       2.409348             0.00640080659            0.000474429497           
       2.411988             0.00709345954            0.000489340779           
       2.414629             0.00631330401            0.000476025222           
       2.417269             0.00733869309            0.000519220834           
       2.419910              0.0071977379            0.000515403489           
       2.422550              0.0060125846            0.000450685015           
       2.425190             0.00744168774            0.000528520548           
       2.427831             0.00772899019            0.000535598466           
       2.430471             0.00661342246            0.000472002315           
       2.433112             0.00679810144            0.000465990942           
       2.435752             0.00704333659             0.00050198031           
       2.438392             0.00712546299            0.000487330142           
       2.441033             0.00696847642            0.000510750912           
       2.443673              0.0067887657             0.00050450955           
       2.446313             0.00759321691            0.000534034888           
       2.448954             0.00635772548            0.000465273508           
       2.451594             0.00728248202            0.000535426679           
       2.454235              0.0072821694            0.000502356146           
       2.456875             0.00640310547            0.000492898085           
       2.459515             0.00717639016            0.000535321264           
       2.462156             0.00793695378            0.000531525937           
       2.464796               0.008204126            0.000533425928           
       2.467436             0.00778133776            0.000537223448           
       2.470077             0.00762544686            0.000504063969           
       2.472717             0.00789086452            0.000514982543           
       2.475358             0.00809091957            0.000526907192           
       2.477998              0.0075990444            0.000502031159           
       2.480638             0.00679489798            0.000483161033           
       2.483279             0.00712391716            0.000517061733           
       2.485919             0.00706326988            0.000496181572           
       2.488560             0.00723877609            0.000500904713           
       2.491200                0.00780346            0.000535540018           
       2.493840             0.00748396197            0.000554949584           
       2.496481             0.00692348215            0.000525033697           
       2.499121             0.00790733587            0.000545759002           
       2.501761             0.00789550684            0.000552576258           
       2.504402             0.00705980099            0.000514880707           
       2.507042             0.00669394023            0.000497647822           
       2.509683             0.00691245863            0.000497976307           
       2.512323             0.00680499807            0.000518917665           
       2.514963             0.00647169034            0.000499797891           
       2.517604             0.00732168074            0.000551624346           
       2.520244             0.00701582717            0.000506232002           
       2.522884             0.00755466111            0.000532824859           
       2.525525             0.00873157827             0.00057932854           
       2.528165             0.00748787823            0.000528122865           
       2.530806             0.00728194552             0.00052988782           
       2.533446             0.00774407087            0.000534779559           
       2.536086             0.00758005761            0.000524350627           
       2.538727             0.00737477453            0.000496176379           
       2.541367             0.00663223813            0.000475169811           
       2.544008             0.00700109402            0.000504196031           
       2.546648             0.00762692287            0.000535275414           
       2.549288             0.00798681424            0.000558919903           
       2.551929             0.00698908789            0.000514510857           
       2.554569             0.00709015503            0.000499259282           
       2.557209             0.00647136913            0.000481356265           
       2.559850             0.00705047206             0.00050404582           
       2.562490              0.0066845197            0.000507258189           
       2.565131             0.00682719788            0.000531531562           
       2.567771             0.00665349345            0.000505914759           
       2.570411             0.00681897509            0.000506625937           
       2.573052              0.0069059142            0.000516266135           
       2.575692             0.00732453981            0.000528463939           
       2.578332             0.00699776089            0.000518676953           
       2.580973             0.00732978073            0.000525788326           
       2.583613             0.00736522804            0.000514508417           
       2.586254             0.00698851214            0.000500481192           
       2.588894             0.00733559503            0.000532475478           
       2.591534             0.00704424714             0.00054015489           
       2.594175             0.00608930616            0.000492732534           
       2.596815             0.00778401762            0.000560379742           
       2.599456             0.00703119142             0.00050505492           
       2.602096             0.00654747653            0.000491081674           
       2.604736             0.00795222362             0.00055403719           
       2.607377              0.0076792008            0.000530095416           
       2.610017             0.00656237919            0.000481459117           
       2.612657             0.00675759063             0.00051966535           
       2.615298             0.00650894413            0.000497935248           
       2.617938             0.00619089582            0.000519486642           
       2.620579             0.00665195928             0.00051693874           
       2.623219             0.00648853031            0.000509821259           
       2.625859             0.00622985842            0.000485708197           
       2.628500             0.00744087131            0.000527341854           
       2.631140             0.00750919035            0.000537919898           
       2.633780             0.00619279513            0.000488075159           
       2.636421             0.00702805215            0.000532735649           
       2.639061             0.00729104719            0.000510806633           
       2.641702             0.00767831825            0.000536332603           
       2.644342             0.00724984933            0.000523374091           
       2.646982             0.00714276932             0.00051172828           
       2.649623             0.00764138991            0.000554672876           
       2.652263             0.00720655967            0.000533254587           
       2.654904             0.00716563486            0.000532273246           
       2.657544              0.0075306844            0.000513957968           
       2.660184             0.00694898009            0.000522487734           
       2.662825              0.0066091216            0.000521372234           
       2.665465             0.00746889719             0.00053604927           
       2.668105             0.00619689984            0.000514659642           
       2.670746             0.00695561966            0.000503700656           
       2.673386             0.00944147495            0.000604792374           
       2.676027             0.00889531271            0.000577617495           
       2.678667             0.00872378879            0.000558149919           
       2.681307              0.0102352437            0.000594025501           
       2.683948              0.0153934558             0.00074849051           
       2.686588              0.0116033377             0.00063906811           
       2.689229              0.0108359266            0.000603467364           
       2.691869             0.00950096728            0.000597226132           
       2.694509             0.00913859352            0.000586047942           
       2.697150              0.0072351289            0.000512994635           
       2.699790             0.00790935778            0.000562301477           
       2.702430             0.00712176278            0.000510029909           
       2.705071             0.00696651759            0.000521243833           
       2.707711             0.00720807814            0.000514602484           
       2.710352             0.00725532213            0.000545520948           
       2.712992             0.00714871057            0.000551510416           
       2.715632             0.00630287214            0.000480467735           
       2.718273             0.00707250778            0.000527466168           
       2.720913             0.00660138815            0.000508145468           
       2.723553             0.00626422019            0.000498319751           
       2.726194             0.00722897549            0.000559585208           
       2.728834             0.00749458846            0.000570040162           
       2.731475             0.00904314764            0.000577898825           
       2.734115             0.00799525448            0.000560249833           
       2.736755             0.00722552669            0.000536982715           
       2.739396              0.0073318525            0.000537785215           
       2.742036             0.00733632978            0.000562998194           
       2.744677             0.00609510949             0.00049791301           
       2.747317             0.00725019639            0.000539174906           
       2.749957             0.00693732226             0.00053111416           
       2.752598             0.00706252355            0.000541701093           
       2.755238             0.00691551495            0.000545710225           
       2.757878             0.00847618883            0.000598875163           
       2.760519             0.00786066355            0.000570605669           
       2.763159             0.00863992646            0.000592242623           
       2.765800             0.00852512608             0.00056063581           
       2.768440             0.00811784502            0.000551110237           
       2.771080              0.0081601056            0.000557155016           
       2.773721             0.00884234636             0.00059493978           
       2.776361             0.00695599273            0.000534957618           
       2.779001             0.00752395682            0.000576176525           
       2.781642             0.00621419219            0.000519771382           
       2.784282             0.00649431294            0.000540094882           
       2.786923             0.00694641258            0.000563496052           
       2.789563             0.00596578945            0.000502948832           
       2.792203             0.00622556111            0.000490808761           
       2.794844             0.00648689223            0.000549092459           
       2.797484              0.0062419619            0.000508331978           
       2.800125             0.00552379977            0.000502823146           
       2.802765              0.0077307623            0.000584616557           
       2.805405             0.00720647796            0.000566355234           
       2.808046               0.006998404            0.000567930576           
       2.810686             0.00727507384            0.000532077631           
       2.813326             0.00735143225            0.000555574687           
       2.815967             0.00612006008             0.00052132706           
       2.818607             0.00694380481            0.000529912706           
       2.821248             0.00673061642            0.000510883327           
       2.823888             0.00719024742            0.000548118152           
       2.826528             0.00665411525            0.000510651832           
       2.829169             0.00743086899            0.000565236671           
       2.831809             0.00635874148            0.000529985085           
       2.834449             0.00764216713            0.000584685476           
       2.837090             0.00536926639            0.000473344499           
       2.839730             0.00669950552            0.000526157328           
       2.842371             0.00783216186            0.000569719938           
       2.845011             0.00668576768            0.000530571923           
       2.847651             0.00752874795            0.000563719496           
       2.850292             0.00722020145            0.000557465222           
       2.852932             0.00664383165            0.000546406051           
       2.855573             0.00738535087            0.000558825371           
       2.858213             0.00708531414            0.000574790474           
       2.860853             0.00681299209            0.000524311239           
       2.863494             0.00743604068            0.000567130085           
       2.866134              0.0069105192             0.00056825053           
       2.868774             0.00695181728            0.000560140059           
       2.871415             0.00730788821            0.000583251722           
       2.874055             0.00706033116            0.000547991748           
       2.876696             0.00637023072            0.000534601356           
       2.879336             0.00734183306            0.000553152827           
       2.881976             0.00629657982            0.000528366709           
       2.884617             0.00829967597            0.000597706641           
       2.887257             0.00761502751            0.000575478527           
       2.889897             0.00684008893            0.000534186355           
       2.892538             0.00710833167            0.000596567494           
       2.895178             0.00658060091            0.000518566726           
       2.897819             0.00667245521            0.000532666718           
       2.900459             0.00641055666            0.000511951647           
       2.903099             0.00575706308            0.000480190056           
       2.905740             0.00707579857            0.000546127023           
       2.908380             0.00702249127            0.000550247792           
       2.911021             0.00721794934            0.000566922588           
       2.913661             0.00636294625             0.00053212767           
       2.916301             0.00673327726             0.00054791593           
       2.918942             0.00631525784            0.000507565812           
       2.921582             0.00696749251            0.000557810079           
       2.924222             0.00725436759            0.000551423729           
       2.926863             0.00747100138            0.000582884467           
       2.929503             0.00735285841            0.000585108232           
       2.932144             0.00668910116            0.000535717157           
       2.934784             0.00677544421            0.000530322856           
       2.937424             0.00766768682            0.000569953894           
       2.940065             0.00601746478            0.000481636822           
       2.942705             0.00805176543            0.000556433486           
       2.945346             0.00745194998            0.000568095867           
       2.947986             0.00688975056            0.000556982069           
       2.950626             0.00749196679            0.000577544224           
       2.953267              0.0066761568            0.000536384529           
       2.955907             0.00703222875            0.000571070922           
       2.958547             0.00665076542            0.000524294092           
       2.961188             0.00701435477            0.000561737692           
       2.963828             0.00688531503            0.000544405552           
       2.966469             0.00692807889            0.000535715886           
       2.969109             0.00656328584            0.000529146958           
       2.971749             0.00720544414            0.000550970388           
       2.974390             0.00695647579            0.000531993053           
       2.977030              0.0071936951            0.000553077742           
       2.979670             0.00961384794            0.000621919794           
       2.982311             0.00872843357            0.000614189141           
       2.984951             0.00754180182            0.000542990496           
       2.987592             0.00724210608             0.00054274984           
       2.990232             0.00669153063            0.000542573826           
       2.992872             0.00783405828            0.000552986272           
       2.995513             0.00873566599            0.000571286493           
       2.998153              0.0115077822            0.000666711342           
       3.000794              0.0124979401            0.000672987403           
       3.003434              0.0113737592            0.000642976303           
       3.006074              0.0405929303             0.00119767244           
       3.008715               0.114552893             0.00194215683           
       3.011355               0.195287995             0.00244535309           
       3.013995               0.102680752             0.00177798596           
       3.016636              0.0625126356             0.00135848703           
       3.019276               0.122998899             0.00187312487           
       3.021917               0.464297193             0.00349933352           
       3.024557                 1.5798724             0.00634641245           
       3.027197                1.19862572             0.00538939793           
       3.029838               0.515481786             0.00358444662           
       3.032478                0.27452144             0.00261845399           
       3.035118              0.0731806852             0.00137007024           
       3.037759              0.0954507216             0.00156269243           
       3.040399               0.130517337             0.00188494099           
       3.043040               0.505801936             0.00375616659           
       3.045680               0.420202663              0.0032211293           
       3.048320              0.0914656159              0.0015355178           
       3.050961               0.107563751             0.00169451192           
       3.053601              0.0873602138             0.00147078592           
       3.056242              0.0599633367             0.00129555415           
       3.058882               0.052897823             0.00130530228           
       3.061522              0.0409492131             0.00112677384           
       3.064163              0.0468801515             0.00119043297           
       3.066803               0.108938387             0.00191047108           
       3.069443               0.115211084             0.00205558369           
       3.072084              0.0519288886             0.00134379331           
       3.074724              0.0380451588             0.00128452346           
       3.077365               0.083476186             0.00196964167           
       3.080005              0.0176658828            0.000911229089           
       3.082645              0.0106196895            0.000742200993           
       3.085286              0.0145848914            0.000876658017           
       3.087926             0.00987251446            0.000715702205           
       3.090566              0.0114906052            0.000756537487           
       3.093207              0.0115844299            0.000790463116           
       3.095847             0.00906273137            0.000670129907           
       3.098488             0.00748534221            0.000675304732           
       3.101128             0.00912734317            0.000750499131           
       3.103768             0.00998459633            0.000770184553           
       3.106409             0.00853474219            0.000757837617           
       3.109049             0.00910156256            0.000751020892           
       3.111690             0.00763625084            0.000676104651           
       3.114330             0.00797020136            0.000705424358           
       3.116970             0.00760215047            0.000694233295           
       3.119611              0.0110411707            0.000890560697           
       3.122251               0.018904991             0.00121896103           
       3.124891              0.0369536082             0.00172011156           
       3.127532              0.0262377009             0.00141794431           
       3.130172              0.0142076212             0.00106144432           
       3.132813             0.00979871132            0.000867803747           
       3.135453             0.00775918855            0.000765866388           
       3.138093             0.00735335213            0.000807849827           
       3.140734             0.00597022633            0.000671561777           
       3.143374             0.00750829652            0.000796452012           
       3.146014             0.00517245012            0.000711654979           
       3.148655             0.00718879447            0.000779905578           
       3.151295             0.00613697765            0.000767906645           
       3.153936             0.00771703192             0.00083180183           
       3.156576             0.00591987709             0.00071862651           
       3.159216             0.00588595443            0.000720148692           
       3.161857             0.00677737817            0.000769614956           
       3.164497             0.00761381737            0.000857092114           
       3.167138             0.00824762735            0.000921708736           
       3.169778             0.00646607959            0.000802653133           
       3.172418             0.00633509502            0.000786400626           
       3.175059             0.00696304004            0.000730913879           
       3.177699             0.00603104245            0.000720334318           
       3.180339             0.00463647642            0.000676694562           
       3.182980             0.00675590716            0.000844536362           
       3.185620                0.00502557              0.0007418121           
       3.188261             0.00795619035            0.000950026323           
       3.190901             0.00526391926             0.00071070352           
       3.193541             0.00699785293            0.000861032037           
       3.196182             0.00622453572            0.000846287432           
       3.198822             0.00585159945            0.000820818705           
       3.201463             0.00510358881            0.000753356084           
       3.204103             0.00517225753            0.000753793107           
       3.206743             0.00638208425            0.000837245059           
       3.209384             0.00522932816            0.000818812993           
       3.212024             0.00623466172            0.000833547322           
       3.214664             0.00620611001            0.000945689202           
       3.217305             0.00585373112            0.000873049281           
       3.219945             0.00631051017            0.000932994121           
       3.222586             0.00599513395            0.000866170775           
       3.225226             0.00554213508            0.000923865958           
       3.227866             0.00694600494            0.000945321154           
       3.230507             0.00675987306            0.000966709898           
       3.233147             0.00662493463            0.000964740424           
       3.235787             0.00719645511              0.0010289963           
       3.238428             0.00357408285            0.000782544758           
       3.241068             0.00584057487            0.000935382772           
       3.243709             0.00657103307             0.00102505109           
       3.246349             0.00587233324            0.000883354705           
       3.248989             0.00610054709             0.00106311972           
       3.251630             0.00480873599            0.000908923294           
       3.254270             0.00424801232            0.000763502428           
       3.256911             0.00769137075             0.00112095541           
       3.259551             0.00416056031            0.000887589972           
       3.262191             0.00629787749             0.00111545156           
       3.264832             0.00668261543             0.00120055171           
       3.267472             0.00530224676             0.00100320623           
       3.270112             0.00803758993             0.00136500907           
       3.272753             0.00698752001             0.00116495441           
       3.275393             0.00623908628             0.00112319812           
       3.278034               0.005451142             0.00105047099           
       3.280674              0.0047723263             0.00106657326           
       3.283314             0.00437081477            0.000912885778           
       3.285955             0.00467056466            0.000973659757           
       3.288595             0.00756921921             0.00137899504           
       3.291235             0.00476052564             0.00112422728           
       3.293876             0.00464963787             0.00112702251           
       3.296516             0.00578693189             0.00120705925           
       3.299157             0.00563711774             0.00117636315           
       3.301797             0.00608017103             0.00139359446           
       3.304437             0.00528425163             0.00112558719           
       3.307078             0.00607150844             0.00132905968           
       3.309718             0.00404096057             0.00111916415           
       3.312359             0.00496232412             0.00124050123           
       3.314999             0.00360074797             0.00104040594           
       3.317639             0.00495539075             0.00116727878           
       3.320280             0.00462465259             0.00119892706           
       3.322920             0.00447602266             0.00119935599           
       3.325560             0.00449501243             0.00120271401           
       3.328201             0.00599229567             0.00125064883           
       3.330841             0.00579485913             0.00149683211           
       3.333482             0.00651987902             0.00150075127           
       3.336122             0.00550260018             0.00137934378           
       3.338762             0.00689523499             0.00178362394           
       3.341403             0.00545873679             0.00151643469           
       3.344043             0.00379715422             0.00121427008           
       3.346683             0.00486202034             0.00140276728           
       3.349324             0.00668159044             0.00184888793           
       3.351964             0.00395409622             0.00150403982           
       3.354605             0.00602123522             0.00212262233           
       3.357245             0.00663128497             0.00200949317           
       3.359885             0.00390863142             0.00123476873           
       3.362526             0.00663143188             0.00201129211           
       3.365166             0.00491325927              0.0016328909           
       3.367807             0.00886575157             0.00280718548           
       3.370447             0.00366060128             0.00149628102           
       3.373087              0.0020312022             0.00119190266           
       3.375728             0.00525720731             0.00216411827           
       3.378368             0.00199087536             0.00197649342           
       3.381008             0.00869236262             0.00307907588           
       3.383649               0.006207399             0.00208732831           
       3.386289             0.00489031707             0.00219272912           
       3.388930             0.00248176375             0.00247081375           
       3.391570             0.00247927375             0.00174696627           
       3.394210             0.00197347765             0.00197246067           
       3.396851             0.00732729247             0.00425145715           
       3.399491           -2.63719764e-05                         0           
       3.402131           -2.63940272e-05                         0           
       3.404772           -2.64067662e-05                         0           
       3.407412                       nan                       nan           
       3.410053             0.00925013508              0.0095744231           
       3.412693                       nan                       nan           
       3.415333           -2.65223934e-05                         0           
