################################################################################
# EDF_DataBlockID                     0.Image.Psd
# EDF_BinarySize                      2105344
# EDF_HeaderSize                      2560
# ByteOrder                           LowByteFirst
# DataType                            FloatValue
# Dim_1                               512
# Dim_2                               1028
# Image                               0
# HeaderID                            EH:000000:000000:000000
# Size                                2105344
# Center_1                            304.9000
# Center_2                            588.7000
# Comment                             Xenocs_Cell_Window - 20251028_20perc_iodine_1.23mg
# DDummy                              0.6
# Date                                2025-11-01T10:00:43
# Delta                               21.910000
# Dummy                               -1.5
# ExposureTime                        360
# Gamma                               15.360000
# Intensity1                          8.65896e-10
# PSize_1                             7.5e-05
# PSize_2                             7.5e-05
# Pressure                            0.0326223
# SampleDistance                      0.115750
# SampleEnvKind                       large
# SampleEnvPN                         ElectroChemical cell
# SampleEnvSN                         1141
# Thickness                           0
# Wavelength                          1.541891e-10
# Wavelength                          1.54189e-10
# aux                                 0
# aux_dial                            0.002375
# beamx                               588.434
# beamx_dial                          588.434
# beamz                               657.808
# beamz_dial                          657.808
# det0x                               0
# det0x_dial                          6.36945
# det0xvd                             0
# det0xvd_dial                        0
# det0y                               450.002
# det0y_dial                          481.635
# det0z                               0
# det0z_dial                          1.23302
# det0zvd                             0
# det0zvd_dial                        0
# mag                                 1.818
# mag_dial                            1.818
# om                                  0.2499
# om_dial                             -0.610199
# phi                                 -0.0120535
# phi_dial                            0
# ry                                  0.599993
# ry_dial                             0.599993
# s1bot                               0.8
# s1bot_dial                          -1.66094
# s1hl                                0.8
# s1hl_dial                           -0.608437
# s1hr                                0.8
# s1hr_dial                           0.970938
# s1top                               0.8
# s1top_dial                          -0.461562
# s2bot                               0.45
# s2bot_dial                          1.36109
# s2hl                                0.45
# s2hl_dial                           -0.83375
# s2hr                                0.45
# s2hr_dial                           -0.118594
# s2top                               0.45
# s2top_dial                          1.44734
# w2theta                             32
# w2theta_dial                        32
# waxsch                              19.2605
# waxsch_dial                         -32.7355
# waxsh                               137.085
# waxsh_dial                          -43.5338
# waxsth                              26.0607
# waxsth_dial                         -19.4086
# waxsz                               67.0407
# waxsz_dial                          -23.7954
# wind                                65.9854
# wind_dial                           66.0041
# wpsi                                124
# wpsi_dial                           124
# wstod                               115
# wstod_dial                          115
# x                                   0
# x_dial                              1.00969
# z                                   0
# z_dial                              13.3172
# CountCutoff                         6807993
# DetectorModel                       Dectris EIGER2 Si 500K, S/N E-01-0554
# ThresholdSetting                    4023.88989258
# Saturation                          0
# FlatField                           Corrected
# BackgroundReductionExtra            0.02
# BackgroundCorrectionConstant        0.0026712
# Detector                            0
# Monitor                             0
# Pil_Roi0                            0
# SumForIntensity1                    3.11723e+08
# TransmittedFlux                     865896
# det                                 0
# mon                                 0
# pilai0                              3.11723e+08
# pilai1                              786748
# pilct0                              5.38548e+08
# pilct1                              786748
# pilroi0                             0
# pilroi1                             0
# sec                                 1
# title                               20251028_20perc_iodine_1.23mg_1_00833.edf
# usaxs0                              0
# Operation                           Azimuthal average I(q)
# Error_model                         ErrorModel.poisson
# Geometrical_correction              True
# Transmission_correction             True
# Thickness_correction                False
# Binning mode                        Uniform
# Binning factor                      1.0
# Psi                                 0.0
# Omega                               0.2499
# MaskInvalidPixels                   True
# DetectorEdge                        3
# MaskFiles                           ['WAXS_corrected.edf']
################################################################################
    q(A⁻¹)                Intensity(a.u.)            Sigma_I(a.u.)            
       0.693100             0.00407445733              0.0042287897           
       0.695741              0.0137999426              0.0063507872           
       0.698381              0.0125040299             0.00740502926           
       0.701021            -2.3410697e-05                         0           
       0.703662             0.00835084439             0.00493808568           
       0.706302               0.010228898             0.00423121412           
       0.708942             0.00566850111             0.00406542313           
       0.711583              0.0131922839             0.00537053341           
       0.714223             0.00289251667             0.00290332252           
       0.716864               0.009929054             0.00351950891           
       0.719504             0.00866476276             0.00354792414           
       0.722144             0.00247427598             0.00175576697           
       0.724785             0.00933399275             0.00272024449           
       0.727425             0.00727022476             0.00324779176           
       0.730065             0.00935156315             0.00260553901           
       0.732706              0.0091175032             0.00216043985           
       0.735346             0.00602828919             0.00228994667           
       0.737987             0.00646976552             0.00167636919           
       0.740627              0.0086833266             0.00289771022           
       0.743267             0.00824239401             0.00189095298           
       0.745908             0.00459819236             0.00153234423           
       0.748548             0.00605586125             0.00162093336           
       0.751189             0.00868622666             0.00261582875           
       0.753829             0.00794406764             0.00229953647           
       0.756469             0.00555265287             0.00155025252           
       0.759110             0.00864463685             0.00203843137           
       0.761750             0.00978774425             0.00191789439           
       0.764390             0.00405932367              0.0012927534           
       0.767031               0.008939844              0.0016613188           
       0.769671             0.00916103071             0.00209785186           
       0.772312             0.00695534817             0.00139159685           
       0.774952             0.00608521243             0.00175772766           
       0.777592             0.00726363981             0.00139877563           
       0.780233             0.00784741736             0.00175411496           
       0.782873             0.00714636567             0.00160095795           
       0.785513             0.00815706717             0.00182855532           
       0.788154             0.00510127486             0.00120966277           
       0.790794             0.00649960095             0.00163240282           
       0.793435             0.00761522053             0.00158736006           
       0.796075             0.00736500108             0.00150378856           
       0.798715             0.00598909858             0.00160248453           
       0.801356              0.0101103614             0.00179197674           
       0.803996             0.00654680449             0.00147013234           
       0.806637              0.0043674259            0.000955579309           
       0.809277             0.00638580496             0.00125067113           
       0.811917             0.00792631121              0.0013025923           
       0.814558             0.00594965986              0.0011729213           
       0.817198             0.00836506852             0.00132130352           
       0.819838             0.00573836589             0.00110757763           
       0.822479             0.00946361071             0.00167023503           
       0.825119             0.00765567638             0.00127859988           
       0.827760             0.00857169149             0.00137046825           
       0.830400             0.00887013226             0.00131212728           
       0.833040             0.00935524286             0.00141179653           
       0.835681              0.0057774142             0.00126126522           
       0.838321             0.00775126449             0.00122619535           
       0.840961             0.00966475315             0.00149181428           
       0.843602             0.00690860169             0.00115665312           
       0.846242             0.00596130204             0.00107427097           
       0.848883             0.00748762257             0.00123208884           
       0.851523             0.00590781802             0.00108082424           
       0.854163             0.00581724436             0.00114056318           
       0.856804             0.00757998168             0.00117063285           
       0.859444             0.00868158293             0.00122751422           
       0.862085             0.00753760959             0.00119210889           
       0.864725             0.00613179688             0.00110036568           
       0.867365              0.0093479578              0.0012598459           
       0.870006             0.00585066819            0.000949772682           
       0.872646              0.0101891365             0.00131435107           
       0.875286             0.00751789207             0.00108615985           
       0.877927               0.005983628            0.000935048901           
       0.880567               0.008966671             0.00118586683           
       0.883208             0.00799444802             0.00110918428           
       0.885848             0.00614095344             0.00100937049           
       0.888488             0.00888473836             0.00113875234           
       0.891129             0.00767616825             0.00108682942           
       0.893769             0.00730350788              0.0010145621           
       0.896410             0.00695415775            0.000923026816           
       0.899050             0.00621443738            0.000959573601           
       0.901690             0.00649003885             0.00106818082           
       0.904331             0.00649754847            0.000947548839           
       0.906971             0.00843809881             0.00114874473           
       0.909611             0.00682442437            0.000940434075           
       0.912252             0.00606616077            0.000915816508           
       0.914892             0.00807737903               0.001154841           
       0.917533             0.00781190555             0.00107437257           
       0.920173             0.00812561315             0.00101662422           
       0.922813             0.00865831162             0.00110124718           
       0.925454              0.0072696642            0.000908648275           
       0.928094             0.00697244546            0.000950021382           
       0.930734             0.00691298943             0.00101843288           
       0.933375             0.00763912929             0.00106006106           
       0.936015             0.00677982033            0.000906997682           
       0.938656             0.00756574466             0.00102784351           
       0.941296             0.00756936787            0.000931732272           
       0.943936             0.00870282928            0.000979733171           
       0.946577             0.00662392011            0.000849091315           
       0.949217             0.00732515003             0.00082110687           
       0.951858             0.00665973073            0.000819565461           
       0.954498             0.00620935524            0.000915994656           
       0.957138             0.00753626483            0.000956013979           
       0.959779             0.00742387437            0.000935379505           
       0.962419             0.00740654466            0.000928072559           
       0.965059             0.00964962028             0.00111413273           
       0.967700              0.0084743722             0.00106934956           
       0.970340             0.00767947402            0.000900795833           
       0.972981             0.00639190113            0.000748755062           
       0.975621             0.00915887967             0.00095349235           
       0.978261             0.00546418341            0.000699781828           
       0.980902             0.00921877828             0.00108750511           
       0.983542             0.00906532331            0.000955007536           
       0.986182             0.00747239555            0.000851266195           
       0.988823             0.00777489765            0.000843146043           
       0.991463             0.00811191414            0.000918838298           
       0.994104             0.00692669204             0.00082827487           
       0.996744             0.00898977845            0.000962460261           
       0.999384             0.00907767193            0.000864959052           
       1.002025             0.00790676928            0.000900997205           
       1.004665               0.008172101            0.000837101605           
       1.007306             0.00592446344            0.000709099462           
       1.009946             0.00829427122            0.000855681926           
       1.012586             0.00796244059            0.000816542966           
       1.015227             0.00753632687            0.000853427555           
       1.017867             0.00875807985            0.000884190586           
       1.020507             0.00855604171            0.000846522377           
       1.023148              0.0104295591              0.0010084803           
       1.025788             0.00679742981            0.000746515449           
       1.028429             0.00800627735            0.000848797247           
       1.031069             0.00805294659            0.000801075446           
       1.033709             0.00845981593            0.000872791964           
       1.036350             0.00843408014            0.000782693255           
       1.038990             0.00843950123             0.00079733245           
       1.041630             0.00886610763            0.000852385522           
       1.044271             0.00810039624            0.000766239831           
       1.046911             0.00810084871            0.000806006856           
       1.049552              0.0101060312             0.00094582829           
       1.052192             0.00804897303            0.000770767316           
       1.054832              0.0084243173            0.000795707156           
       1.057473             0.00840845467            0.000783660418           
       1.060113             0.00854581856             0.00077049952           
       1.062754             0.00716279202            0.000720203042           
       1.065394             0.00857960739            0.000833352369           
       1.068034             0.00757692487            0.000712553379           
       1.070675             0.00854619509            0.000789392104           
       1.073315             0.00840493504            0.000794061983           
       1.075955              0.0092861042            0.000787956594           
       1.078596             0.00898295544            0.000823658803           
       1.081236             0.00788043089            0.000738722091           
       1.083877             0.00864191208            0.000766650725           
       1.086517             0.00834723304            0.000807936496           
       1.089157             0.00875743872            0.000858676366           
       1.091798             0.00884732652            0.000756669371           
       1.094438             0.00919539497            0.000768920325           
       1.097078             0.00716524675            0.000650995289           
       1.099719             0.00766321646            0.000728208482           
       1.102359             0.00874922622            0.000728699275           
       1.105000             0.00871794066             0.00081336966           
       1.107640             0.00831312158            0.000759442395           
       1.110280             0.00813825102            0.000685606433           
       1.112921             0.00845466483            0.000750670327           
       1.115561             0.00976615393            0.000766790455           
       1.118202             0.00779607321            0.000685743816           
       1.120842             0.00932293143            0.000788144015           
       1.123482             0.00870157639            0.000758101432           
       1.126123             0.00825141778            0.000708087802           
       1.128763             0.00955224351            0.000767084163           
       1.131403             0.00810964276            0.000681053938           
       1.134044             0.00836582412            0.000711789234           
       1.136684             0.00854525716             0.00076698604           
       1.139325             0.00905158819             0.00072717792           
       1.141965             0.00970794784            0.000758060083           
       1.144605             0.00941088328            0.000711667527           
       1.147246              0.0081463677            0.000677633865           
       1.149886              0.0100880899            0.000751403312           
       1.152527             0.00799811061            0.000678785204           
       1.155167             0.00917364049            0.000691448102           
       1.157807             0.00801784492            0.000693081833           
       1.160448             0.00944149168            0.000734445596           
       1.163088             0.00867568819            0.000671541213           
       1.165728             0.00942574764            0.000718671074           
       1.168369             0.00841334409            0.000685252192           
       1.171009             0.00975996814            0.000716264965           
       1.173650             0.00956698401            0.000727755184           
       1.176290             0.00845169593            0.000668442392           
       1.178930              0.0101068494            0.000716417807           
       1.181571             0.00944266963            0.000706209911           
       1.184211             0.00896456813            0.000690538978           
       1.186851              0.0095092278            0.000695337018           
       1.189492             0.00948163101            0.000689656213           
       1.192132             0.00910970347            0.000668409962           
       1.194773             0.00900223072            0.000667358621           
       1.197413              0.0105406455            0.000691906636           
       1.200053             0.00968836542            0.000680199095           
       1.202694             0.00958739951            0.000643451164           
       1.205334             0.00861316534            0.000657263053           
       1.207975             0.00834747202            0.000617623879           
       1.210615             0.00961012607            0.000731060875           
       1.213255              0.0102114518            0.000674818797           
       1.215896             0.00924432457            0.000653701614           
       1.218536             0.00912381141            0.000624451528           
       1.221176             0.00950330623            0.000692882279           
       1.223817              0.0103172619            0.000677702344           
       1.226457              0.0091506691            0.000651096913           
       1.229098             0.00917592845            0.000651963168           
       1.231738              0.0101000508            0.000687372304           
       1.234378              0.0105648564            0.000660584385           
       1.237019              0.0095073735            0.000645759479           
       1.239659              0.0105011015            0.000672756995           
       1.242299              0.0100082457            0.000648435308           
       1.244940             0.00881681102            0.000591917319           
       1.247580             0.00957921022            0.000635846946           
       1.250221              0.0115935963            0.000695198408           
       1.252861                0.01050559            0.000630012327           
       1.255501             0.00945677068            0.000649028301           
       1.258142             0.00970842984            0.000617940153           
       1.260782              0.0104655509            0.000655465272           
       1.263423              0.0109506141            0.000644258486           
       1.266063             0.00998663703            0.000630612048           
       1.268703              0.0106421106            0.000645576452           
       1.271344              0.0110846121            0.000681190661           
       1.273984              0.0105735126            0.000642549378           
       1.276624             0.00978968774            0.000606659193           
       1.279265              0.0100165296            0.000623838126           
       1.281905             0.00907827562            0.000596538058           
       1.284546              0.0110582311            0.000636387896           
       1.287186                0.01152222             0.00063732821           
       1.289826              0.0105361497            0.000642307361           
       1.292467              0.0107961404            0.000635863039           
       1.295107              0.0108654776               0.000631565           
       1.297747              0.0107866457            0.000602158878           
       1.300388             0.00948109054            0.000615423149           
       1.303028               0.011191497            0.000638318611           
       1.305669              0.0111393918            0.000651994469           
       1.308309              0.0104050852            0.000623933086           
       1.310949              0.0112637661            0.000648515462           
       1.313590              0.0115401998            0.000635906002           
       1.316230              0.0112804258            0.000670918768           
       1.318871              0.0111570363            0.000653478969           
       1.321511              0.0104004216            0.000619237657           
       1.324151              0.0119976518            0.000645371925           
       1.326792              0.0115925175            0.000638303959           
       1.329432              0.0111005752            0.000620205772           
       1.332072              0.0104083636            0.000591606941           
       1.334713              0.0101036787            0.000601593667           
       1.337353              0.0111942503            0.000607279526           
       1.339994               0.010833099            0.000626915066           
       1.342634              0.0116690835            0.000623937212           
       1.345274              0.0107817471            0.000620680358           
       1.347915              0.0117431315            0.000629874025           
       1.350555              0.0121050992             0.00065070814           
       1.353195              0.0111702063             0.00062814582           
       1.355836              0.0116704906            0.000632046564           
       1.358476              0.0108127161            0.000590825251           
       1.361117              0.0106510634            0.000587197024           
       1.363757               0.010924065            0.000612832875           
       1.366397              0.0102463705            0.000575558819           
       1.369038              0.0110502541            0.000603661944           
       1.371678              0.0113789062            0.000607172626           
       1.374319              0.0103311636             0.00057356244           
       1.376959              0.0106076673            0.000575342451           
       1.379599              0.0107774978            0.000621509157           
       1.382240              0.0110833729            0.000592356318           
       1.384880              0.0106561478              0.0006152283           
       1.387520              0.0111321074             0.00059720774           
       1.390161              0.0107378193            0.000557068435           
       1.392801              0.0120018343            0.000613623009           
       1.395442              0.0109945823            0.000595331028           
       1.398082              0.0117028938            0.000575179445           
       1.400722              0.0113698113            0.000593851509           
       1.403363             0.00979568795             0.00058021766           
       1.406003              0.0114680494            0.000587532336           
       1.408644              0.0115885575            0.000618703645           
       1.411284              0.0108304113            0.000566369359           
       1.413924              0.0111300457            0.000572021973           
       1.416565              0.0113669653            0.000575807326           
       1.419205              0.0109225468            0.000588799757           
       1.421845              0.0106645155            0.000581461744           
       1.424486              0.0111221088            0.000570783494           
       1.427126              0.0111372906            0.000593338211           
       1.429767              0.0117324416            0.000572981054           
       1.432407              0.0105676358            0.000569093869           
       1.435047              0.0112336704              0.0005510591           
       1.437688              0.0117586922            0.000572218967           
       1.440328              0.0114840659            0.000577153526           
       1.442968              0.0116515121            0.000594371347           
       1.445609              0.0108518228            0.000555415283           
       1.448249              0.0109445946            0.000571907067           
       1.450890              0.0110837751            0.000571775525           
       1.453530              0.0103416779            0.000577819771           
       1.456170              0.0119081507             0.00060176246           
       1.458811              0.0105635159            0.000541957926           
       1.461451              0.0112017953            0.000559555172           
       1.464092              0.0118036757            0.000578146406           
       1.466732              0.0111875672            0.000558018883           
       1.469372              0.0107250464            0.000533575662           
       1.472013              0.0117984668            0.000603583564           
       1.474653              0.0107426153            0.000567058512           
       1.477293              0.0109212921            0.000583805557           
       1.479934              0.0111330946            0.000562448328           
       1.482574              0.0102376034            0.000521740638           
       1.485215              0.0116297447            0.000566441461           
       1.487855              0.0109927921            0.000557976041           
       1.490495              0.0123301059            0.000588765736           
       1.493136              0.0114968002            0.000560729775           
       1.495776               0.010785754            0.000540640255           
       1.498416              0.0101182666            0.000540776207           
       1.501057              0.0111656561            0.000555556701           
       1.503697              0.0113798184            0.000548329435           
       1.506338              0.0107362649            0.000542331646           
       1.508978             0.00963471355            0.000508704545           
       1.511618              0.0103802731            0.000562339024           
       1.514259              0.0104793803            0.000545497595           
       1.516899              0.0108067446            0.000539366051           
       1.519540              0.0115281201            0.000566060517           
       1.522180              0.0102294061            0.000537907035           
       1.524820              0.0109042935            0.000552252032           
       1.527461              0.0100582736            0.000533019214           
       1.530101              0.0109042049            0.000549430632           
       1.532741              0.0109217377            0.000546681052           
       1.535382              0.0107856027            0.000552009163           
       1.538022              0.0104789081             0.00051257498           
       1.540663              0.0107615721            0.000558692187           
       1.543303              0.0112189296            0.000529663429           
       1.545943              0.0106313671            0.000545731976           
       1.548584              0.0119662628            0.000589373795           
       1.551224              0.0111201504            0.000525313054           
       1.553864              0.0101623213            0.000530646898           
       1.556505              0.0109622154            0.000532411098           
       1.559145              0.0101268507            0.000517991798           
       1.561786              0.0108581228            0.000536781326           
       1.564426              0.0107561531            0.000517637366           
       1.567066              0.0110846585            0.000550604808           
       1.569707              0.0100674703            0.000515307907           
       1.572347              0.0100003732            0.000530587584           
       1.574988             0.00923135852            0.000485223964           
       1.577628             0.00989401783            0.000523814364           
       1.580268             0.00957000106            0.000499140827           
       1.582909             0.00983215209            0.000536266869           
       1.585549              0.0104790898            0.000537555598           
       1.588189             0.00996834294            0.000512848964           
       1.590830              0.0092892128            0.000494449593           
       1.593470              0.0102960298            0.000541167885           
       1.596111             0.00893724078            0.000492251307           
       1.598751             0.00862235263            0.000468496978           
       1.601391             0.00986754848            0.000512243081           
       1.604032             0.00874532644            0.000492317054           
       1.606672              0.0103908996            0.000521397188           
       1.609312              0.0102772283            0.000541292436           
       1.611953             0.00977972433            0.000516708681           
       1.614593             0.00850638682            0.000472703655           
       1.617234             0.00957477356            0.000519754561           
       1.619874             0.00873117908            0.000494369341           
       1.622514             0.00995813788            0.000520761601           
       1.625155              0.0100813814            0.000527069581           
       1.627795             0.00948714275            0.000498772067           
       1.630436             0.00902236061            0.000483861217           
       1.633076             0.00972469389            0.000508929481           
       1.635716              0.0100690861            0.000509805238           
       1.638357              0.0100677995            0.000511116348           
       1.640997             0.00921616722            0.000503834621           
       1.643637             0.00901107947            0.000484801986           
       1.646278             0.00961510495            0.000516521715           
       1.648918              0.0091789831              0.0005060483           
       1.651559             0.00960578784            0.000521697715           
       1.654199              0.0103708518            0.000527215885           
       1.656839             0.00849632929            0.000477362735           
       1.659480             0.00945088701            0.000522370867           
       1.662120             0.00878622915            0.000474371808           
       1.664761             0.00896168414            0.000497645485           
       1.667401             0.00949813685            0.000489671779           
       1.670041             0.00940154335            0.000494603828           
       1.672682             0.00886609122            0.000478338449           
       1.675322             0.00847774761            0.000464737475           
       1.677962             0.00900416874            0.000473665572           
       1.680603              0.0093744103            0.000484793029           
       1.683243             0.00816986231            0.000472178909           
       1.685884             0.00877918111             0.00049308472           
       1.688524             0.00895366453            0.000488334917           
       1.691164             0.00894889155             0.00048831555           
       1.693805              0.0090234858            0.000495733175           
       1.696445             0.00886788864            0.000494291189           
       1.699085             0.00870438196            0.000473303739           
       1.701726              0.0094888982             0.00047604925           
       1.704366             0.00801154688            0.000460813739           
       1.707007             0.00857357185            0.000466077034           
       1.709647             0.00901412383            0.000483298675           
       1.712287             0.00814912062            0.000463524898           
       1.714928             0.00969152812            0.000509567033           
       1.717568             0.00927125099            0.000469490809           
       1.720209             0.00877336023            0.000478372471           
       1.722849             0.00865974675            0.000472821572           
       1.725489             0.00897109718            0.000481650469           
       1.728130             0.00875791997            0.000505741339           
       1.730770             0.00874328397            0.000479916837           
       1.733410             0.00908523212            0.000481521626           
       1.736051             0.00884493139            0.000478417913           
       1.738691             0.00851279611            0.000459835129           
       1.741332             0.00882028867            0.000481752928           
       1.743972             0.00900450072             0.00050265993           
       1.746612             0.00819528487            0.000460482385           
       1.749253             0.00825880489            0.000471392453           
       1.751893             0.00843054294            0.000472772534           
       1.754533             0.00822173042            0.000466444861           
       1.757174             0.00765173857            0.000445771861           
       1.759814             0.00919093667             0.00048114836           
       1.762455             0.00907132317            0.000486784428           
       1.765095             0.00861949591            0.000453923289           
       1.767735             0.00823241592            0.000457299421           
       1.770376             0.00769896302            0.000443400858           
       1.773016             0.00861684636            0.000465946205           
       1.775657             0.00878106331             0.00046359726           
       1.778297              0.0084791243            0.000451634344           
       1.780937             0.00814771667            0.000467291097           
       1.783578             0.00884498764            0.000474701814           
       1.786218             0.00887067633            0.000496122162           
       1.788858             0.00901877771            0.000475113518           
       1.791499             0.00872203075            0.000461984311           
       1.794139              0.0093601769            0.000474703644           
       1.796780             0.00893041582            0.000461442532           
       1.799420              0.0103803422            0.000494738739           
       1.802060             0.00867446191            0.000455916372           
       1.804701             0.00947627167            0.000457291891           
       1.807341             0.00787282657            0.000437978629           
       1.809981             0.00908170449            0.000471972622           
       1.812622             0.00901896538            0.000461871897           
       1.815262             0.00875744159            0.000464794092           
       1.817903              0.0077626477            0.000431115739           
       1.820543             0.00868506245            0.000463116779           
       1.823183             0.00875106224            0.000464617551           
       1.825824             0.00891303089            0.000447965692           
       1.828464             0.00901842281            0.000469776641           
       1.831105             0.00810845124            0.000433130383           
       1.833745             0.00788640827            0.000436281582           
       1.836385             0.00818219864            0.000457070076           
       1.839026             0.00925971404            0.000484699157           
       1.841666             0.00828133706            0.000456752563           
       1.844306             0.00834705856            0.000446049326           
       1.846947             0.00770271133             0.00043224332           
       1.849587             0.00908159555            0.000518265123           
       1.852228             0.00874173855            0.000459787625           
       1.854868             0.00836792709            0.000475199546           
       1.857508             0.00888380563            0.000484826171           
       1.860149             0.00811849765            0.000471893563           
       1.862789             0.00845871746            0.000464932449           
       1.865429               0.008063398            0.000473841936           
       1.868070             0.00818715047            0.000471100459           
       1.870710             0.00943025771            0.000493945715           
       1.873351             0.00884567914             0.00048430504           
       1.875991             0.00881330547            0.000491307473           
       1.878631             0.00828255224            0.000467162172           
       1.881272             0.00880174474            0.000478354952           
       1.883912             0.00796668211            0.000473624332           
       1.886553             0.00856128032            0.000485491751           
       1.889193             0.00877459744            0.000490663101           
       1.891833             0.00871721876            0.000507903938           
       1.894474             0.00864720416            0.000501454612           
       1.897114             0.00747554084            0.000451176485           
       1.899754             0.00822871516            0.000475340145           
       1.902395             0.00751979929            0.000445519301           
       1.905035             0.00873337398            0.000508532973           
       1.907676             0.00719439459            0.000435018705           
       1.910316             0.00700794252            0.000440744497           
       1.912956             0.00791737944            0.000458164213           
       1.915597             0.00771412019            0.000454772389           
       1.918237             0.00785428193            0.000473916845           
       1.920878              0.0075942312            0.000464097589           
       1.923518             0.00871428402            0.000497356147           
       1.926158             0.00801057347            0.000470663955           
       1.928799             0.00810589268            0.000467975547           
       1.931439             0.00890079347            0.000503247205           
       1.934079             0.00756772608            0.000483743927           
       1.936720             0.00850469975            0.000475139741           
       1.939360             0.00802808774            0.000492499254           
       1.942001             0.00815663864            0.000455000507           
       1.944641             0.00804554772            0.000460792647           
       1.947281             0.00805524268             0.00045682028           
       1.949922             0.00816950351            0.000475189707           
       1.952562             0.00731326892            0.000463691563           
       1.955202              0.0072047029            0.000459675914           
       1.957843             0.00738858023            0.000453432965           
       1.960483             0.00800794294            0.000493533411           
       1.963124              0.0092742466            0.000520227128           
       1.965764             0.00897097066            0.000482500744           
       1.968404             0.00764781795            0.000441290064           
       1.971045             0.00761977398            0.000449092758           
       1.973685             0.00782444486            0.000477349372           
       1.976326             0.00843840943            0.000488910835           
       1.978966             0.00847275559            0.000494204143           
       1.981606             0.00726925227            0.000467308033           
       1.984247             0.00753285276            0.000472577906           
       1.986887             0.00885443421              0.0005062212           
       1.989527             0.00775528078            0.000468658214           
       1.992168             0.00807002719            0.000496042114           
       1.994808             0.00861823883            0.000510416463           
       1.997449             0.00730064906            0.000460134071           
       2.000089             0.00789078867            0.000476473339           
       2.002729             0.00806031359            0.000481853105           
       2.005370             0.00791142773             0.00047224561           
       2.008010             0.00757641347            0.000482307968           
       2.010650             0.00733043332            0.000477953923           
       2.013291             0.00759327519            0.000466719237           
       2.015931             0.00705104646            0.000446567421           
       2.018572             0.00734338988            0.000487447368           
       2.021212             0.00735713518            0.000479137329           
       2.023852             0.00672212821            0.000433468995           
       2.026493             0.00832223978            0.000503856851           
       2.029133             0.00755043806            0.000470266709           
       2.031774             0.00787239514            0.000503946984           
       2.034414             0.00710206499            0.000440430239           
       2.037054             0.00763478404            0.000468224281           
       2.039695             0.00712204251            0.000448812918           
       2.042335             0.00787926386            0.000490583786           
       2.044975             0.00712526285            0.000460862969           
       2.047616               0.007470671            0.000470729068           
       2.050256             0.00882131053            0.000516355032           
       2.052897             0.00758422291            0.000487608162           
       2.055537             0.00760936279            0.000472035153           
       2.058177             0.00723991554            0.000450888586           
       2.060818             0.00775664257            0.000488906177           
       2.063458             0.00725346011            0.000492686164           
       2.066098             0.00803381718            0.000489130412           
       2.068739             0.00737001759            0.000475769607           
       2.071379             0.00824808691            0.000516440634           
       2.074020             0.00720308829            0.000472128982           
       2.076660             0.00759827098            0.000488827221           
       2.079300             0.00689087229            0.000476922606           
       2.081941             0.00760313198            0.000458690197           
       2.084581             0.00785980344            0.000492256308           
       2.087222             0.00820022395            0.000484905933           
       2.089862             0.00741117164            0.000502084489           
       2.092502             0.00886502745            0.000532300985           
       2.095143              0.0074964626            0.000505473489           
       2.097783             0.00772748033            0.000496866841           
       2.100423             0.00830857724            0.000496452382           
       2.103064             0.00833328305            0.000515901379           
       2.105704             0.00712149015            0.000474556081           
       2.108345             0.00829202571            0.000491965845           
       2.110985             0.00715933776             0.00048824942           
       2.113625             0.00756184976            0.000506165735           
       2.116266              0.0072921987            0.000504111124           
       2.118906             0.00814204698            0.000496424996           
       2.121546             0.00829645075            0.000491542199           
       2.124187             0.00795752435            0.000505318461           
       2.126827             0.00711551638            0.000483169585           
       2.129468             0.00809346466            0.000516620379           
       2.132108             0.00736669941            0.000479534263           
       2.134748             0.00646433754              0.0004474628           
       2.137389             0.00799007049            0.000518988761           
       2.140029             0.00771360327             0.00045652123           
       2.142670             0.00798596265            0.000496432873           
       2.145310             0.00798442394            0.000483140457           
       2.147950               0.007400225            0.000478745218           
       2.150591             0.00751357047            0.000477522493           
       2.153231             0.00785599929            0.000502611162           
       2.155871             0.00761633188            0.000478091877           
       2.158512             0.00738038327            0.000491067094           
       2.161152             0.00803721552             0.00049639411           
       2.163793             0.00724021319            0.000469018449           
       2.166433             0.00711549284            0.000477466201           
       2.169073             0.00717074577            0.000468645205           
       2.171714             0.00714086283            0.000464171645           
       2.174354             0.00831368797             0.00052333288           
       2.176995             0.00715893399              0.0004835864           
       2.179635             0.00709113011            0.000508587372           
       2.182275             0.00644809309            0.000457897724           
       2.184916             0.00680461848            0.000454332135           
       2.187556             0.00741129924            0.000469400892           
       2.190196              0.0069855406            0.000476219789           
       2.192837             0.00758707334            0.000493600055           
       2.195477             0.00726381626             0.00046045488           
       2.198118              0.0087838536            0.000519320155           
       2.200758             0.00685400056            0.000470637327           
       2.203398             0.00693550579            0.000476456061           
       2.206039             0.00720713606            0.000459670802           
       2.208679             0.00881551514            0.000520212553           
       2.211319             0.00744599481            0.000480856279           
       2.213960             0.00661983526            0.000459470572           
       2.216600             0.00654733567            0.000472702117           
       2.219241             0.00730182487            0.000477096325           
       2.221881             0.00757318245            0.000486879617           
       2.224521             0.00710606471            0.000477404379           
       2.227162             0.00668264695            0.000453693185           
       2.229802             0.00698366158            0.000478317512           
       2.232443             0.00764275638            0.000492487274           
       2.235083             0.00727451688            0.000494649165           
       2.237723             0.00780825211            0.000491793523           
       2.240364             0.00720096947            0.000483916999           
       2.243004             0.00765440487             0.00049493759           
       2.245644             0.00732667269            0.000489072843           
       2.248285             0.00826628215             0.00050908082           
       2.250925             0.00830155574            0.000513264883           
       2.253566             0.00684544897            0.000498277848           
       2.256206             0.00742982431            0.000508730931           
       2.258846             0.00723273009            0.000477481799           
       2.261487             0.00737763835            0.000506156947           
       2.264127             0.00729403929            0.000486060864           
       2.266767             0.00802225613            0.000523328283           
       2.269408             0.00703195029            0.000491970039           
       2.272048             0.00878109469             0.00054648087           
       2.274689             0.00767998888            0.000517804671           
       2.277329             0.00711989667            0.000469431863           
       2.279969             0.00759165244            0.000515972052           
       2.282610             0.00738653263            0.000494798372           
       2.285250             0.00713371761            0.000465414071           
       2.287891             0.00730313577            0.000504884677           
       2.290531             0.00793667094            0.000533403528           
       2.293171              0.0074554039            0.000503583578           
       2.295812             0.00651675212            0.000468923866           
       2.298452             0.00641282712            0.000486443983           
       2.301092             0.00655728505            0.000457028469           
       2.303733             0.00799448224            0.000524995506           
       2.306373             0.00790015006            0.000530107901           
       2.309014             0.00676980994            0.000481148364           
       2.311654             0.00786035091            0.000541033239           
       2.314294             0.00660748417            0.000457008056           
       2.316935             0.00624824036            0.000446246899           
       2.319575             0.00841082746            0.000542476672           
       2.322215              0.0081787979            0.000557499546           
       2.324856             0.00704128117            0.000475585243           
       2.327496             0.00704392038            0.000505791218           
       2.330137             0.00585670035            0.000441335187           
       2.332777             0.00724199657            0.000506028273           
       2.335417             0.00662184299            0.000469433131           
       2.338058             0.00752347833            0.000515319961           
       2.340698             0.00799322607            0.000526989948           
       2.343339             0.00704244668            0.000505541118           
       2.345979             0.00747658984            0.000492803891           
       2.348619             0.00677558003             0.00048628105           
       2.351260             0.00676435741            0.000483047316           
       2.353900             0.00641780607            0.000469020426           
       2.356540             0.00652918742            0.000472401318           
       2.359181             0.00650276197            0.000464834965           
       2.361821             0.00737908347             0.00047831744           
       2.364462             0.00689413651            0.000483542526           
       2.367102             0.00684487642            0.000495138821           
       2.369742             0.00731036383            0.000538597423           
       2.372383             0.00758245372            0.000496691733           
       2.375023             0.00803563444            0.000537507318           
       2.377663              0.0069667913            0.000478536741           
       2.380304             0.00628456902            0.000462081168           
       2.382944             0.00665557088            0.000452922326           
       2.385585             0.00809742053            0.000532809914           
       2.388225             0.00815938353            0.000532331399           
       2.390865              0.0067010701            0.000477464675           
       2.393506             0.00700150335            0.000478842915           
       2.396146             0.00674121872            0.000508031669           
       2.398787             0.00764582001            0.000498615211           
       2.401427             0.00706579454            0.000462663294           
       2.404067             0.00725477787            0.000479266796           
       2.406708             0.00752569543             0.00048227997           
       2.409348             0.00666801476            0.000481520698           
       2.411988             0.00644299237            0.000463754913           
       2.414629             0.00813263422            0.000537253912           
       2.417269             0.00734903168            0.000516678227           
       2.419910             0.00704321645            0.000506987452           
       2.422550             0.00775723874            0.000509047666           
       2.425190             0.00754308793            0.000529130863           
       2.427831              0.0069025717            0.000503321825           
       2.430471             0.00730513734            0.000493295941           
       2.433112              0.0070094587            0.000470531008           
       2.435752             0.00604939258            0.000462610726           
       2.438392              0.0075710769            0.000499525786           
       2.441033             0.00825874763             0.00055291667           
       2.443673             0.00737168489            0.000522780905           
       2.446313             0.00742184556             0.00052501902           
       2.448954             0.00702399775            0.000486308628           
       2.451594             0.00786640728            0.000553363952           
       2.454235             0.00788596337            0.000519841638           
       2.456875             0.00703710319            0.000513831963           
       2.459515             0.00741604639             0.00054114051           
       2.462156             0.00664740148            0.000483710867           
       2.464796             0.00858150027            0.000542502726           
       2.467436              0.0074735229            0.000523543612           
       2.470077             0.00776739558            0.000505886477           
       2.472717             0.00827442718            0.000524398616           
       2.475358             0.00806718128            0.000523188809           
       2.477998              0.0072455711            0.000487472192           
       2.480638             0.00766300171            0.000510225601           
       2.483279             0.00730827355            0.000520778106           
       2.485919             0.00737260877            0.000504093013           
       2.488560             0.00818910105            0.000529789095           
       2.491200             0.00690835631            0.000501069586           
       2.493840             0.00716564671            0.000539980149           
       2.496481              0.0076727017            0.000549618572           
       2.499121             0.00706350109            0.000512930089           
       2.501761              0.0072188472            0.000525410191           
       2.504402             0.00708893365            0.000513054143           
       2.507042             0.00684168858            0.000500293888           
       2.509683             0.00723365732            0.000506563305           
       2.512323             0.00637108471            0.000499290721           
       2.514963             0.00735653259            0.000529888495           
       2.517604              0.0076091946            0.000559203307           
       2.520244             0.00682361145             0.00049645473           
       2.522884             0.00737152247             0.00052338098           
       2.525525             0.00901019021            0.000585204803           
       2.528165             0.00795132594            0.000541174987           
       2.530806             0.00778349801            0.000544765991           
       2.533446             0.00792465116            0.000537950814           
       2.536086             0.00734030681            0.000513103525           
       2.538727             0.00812131759            0.000517770511           
       2.541367             0.00698411329            0.000484882798           
       2.544008             0.00681424212            0.000494638141           
       2.546648             0.00664958459            0.000497006684           
       2.549288             0.00678663386            0.000512333019           
       2.551929             0.00677652158            0.000503790598           
       2.554569             0.00540583925            0.000433503092           
       2.557209             0.00732113166             0.00050911982           
       2.559850             0.00686650916            0.000494642325           
       2.562490             0.00733719529            0.000528471238           
       2.565131             0.00638513516             0.00051115806           
       2.567771             0.00762991473            0.000538734363           
       2.570411              0.0077066853            0.000535579609           
       2.573052             0.00763178666            0.000539682721           
       2.575692              0.0060217714             0.00047648548           
       2.578332             0.00729556581            0.000526634425           
       2.580973             0.00676117088            0.000502156117           
       2.583613             0.00702883689            0.000499808308           
       2.586254             0.00619984436            0.000468757411           
       2.588894             0.00653599828            0.000499804609           
       2.591534             0.00730060093            0.000546817844           
       2.594175              0.0072085252            0.000533105174           
       2.596815             0.00645054497            0.000507272219           
       2.599456             0.00671448244            0.000490786683           
       2.602096              0.0066924741            0.000493710604           
       2.604736             0.00658870403            0.000501483882           
       2.607377             0.00690992592            0.000500028877           
       2.610017             0.00736072472            0.000507050711           
       2.612657             0.00667803105            0.000513705707           
       2.615298             0.00757227411            0.000534063768           
       2.617938             0.00568035205            0.000494820424           
       2.620579               0.007259693            0.000537014201           
       2.623219             0.00732814353            0.000538770873           
       2.625859             0.00700627965             0.00051220337           
       2.628500             0.00742488344            0.000523826564           
       2.631140             0.00734725605             0.00052911003           
       2.633780             0.00708126557            0.000518992572           
       2.636421             0.00791045209            0.000562027126           
       2.639061             0.00714686516            0.000502900098           
       2.641702             0.00688695649            0.000505099765           
       2.644342              0.0071308451            0.000516155529           
       2.646982             0.00645323951            0.000483679133           
       2.649623              0.0077604125            0.000555847307           
       2.652263             0.00618776168            0.000491359943           
       2.654904             0.00742833499            0.000538908948           
       2.657544             0.00647772478            0.000474006153           
       2.660184             0.00679428949            0.000513747761           
       2.662825              0.0070643608            0.000536012376           
       2.665465             0.00620137307            0.000485716382           
       2.668105             0.00688240213            0.000539343254           
       2.670746             0.00793168289             0.00053487171           
       2.673386             0.00791815371            0.000550757857           
       2.676027             0.00902710199            0.000578623751           
       2.678667              0.0104149222            0.000606441152           
       2.681307              0.0108625893            0.000608534252           
       2.683948              0.0150596713            0.000736187321           
       2.686588               0.011544521            0.000633878461           
       2.689229             0.00911122671            0.000550264558           
       2.691869             0.00941597202            0.000591220963           
       2.694509              0.0095955098            0.000597158811           
       2.697150              0.0078713393            0.000532079292           
       2.699790             0.00775341625            0.000553614577           
       2.702430             0.00714696271            0.000508071699           
       2.705071             0.00696763831            0.000518368036           
       2.707711             0.00720009397             0.00051143868           
       2.710352             0.00806896835            0.000572076939           
       2.712992             0.00748955762            0.000561345569           
       2.715632             0.00637204001            0.000480392901           
       2.718273             0.00656176327            0.000505219989           
       2.720913             0.00785063671            0.000551042652           
       2.723553             0.00647575033            0.000503827647           
       2.726194             0.00641945213            0.000524371628           
       2.728834              0.0076692569            0.000573416989           
       2.731475             0.00842170236            0.000554567352           
       2.734115             0.00681452911            0.000514334752           
       2.736755             0.00758196039            0.000546989085           
       2.739396             0.00759141525            0.000544158886           
       2.742036             0.00717943588            0.000553828235           
       2.744677             0.00723409304             0.00053940767           
       2.747317             0.00769237804            0.000552264909           
       2.749957             0.00703170807            0.000531722104           
       2.752598             0.00759246751             0.00055851338           
       2.755238             0.00880265677            0.000612236287           
       2.757878             0.00766178238            0.000566191376           
       2.760519              0.0087607929            0.000599018918           
       2.763159             0.00955403669            0.000619299092           
       2.765800             0.00806920769            0.000542385698           
       2.768440             0.00825007577            0.000552470919           
       2.771080              0.0088726289            0.000577719022           
       2.773721               0.007081895            0.000529451694           
       2.776361             0.00674764776            0.000523936159           
       2.779001             0.00726688456            0.000563078437           
       2.781642             0.00653273576            0.000529943931           
       2.784282             0.00664148349            0.000543123204           
       2.786923             0.00669042658            0.000549920423           
       2.789563             0.00741315342            0.000557511321           
       2.792203             0.00629543583            0.000490792944           
       2.794844             0.00747905952            0.000586290674           
       2.797484             0.00702742437            0.000536348806           
       2.800125             0.00697076986            0.000561693014           
       2.802765             0.00716230944            0.000559562813           
       2.805405             0.00689065404            0.000550706197           
       2.808046             0.00756035477            0.000586987951           
       2.810686             0.00657395269            0.000502958253           
       2.813326             0.00747006031            0.000556904694           
       2.815967             0.00684535317             0.00054826776           
       2.818607             0.00699224446            0.000528781479           
       2.821248             0.00588860138             0.00047518502           
       2.823888             0.00672661774            0.000527184939           
       2.826528             0.00773830878            0.000547602114           
       2.829169             0.00697673755            0.000544626883           
       2.831809             0.00743268498            0.000569787975           
       2.834449             0.00644558984            0.000533958773           
       2.837090             0.00701595827            0.000538053809           
       2.839730             0.00699295015            0.000534548135           
       2.842371             0.00688414407            0.000531138668           
       2.845011             0.00649595881             0.00052005899           
       2.847651             0.00688796648            0.000536178681           
       2.850292              0.0065846316            0.000529384493           
       2.852932             0.00621943585            0.000525707339           
       2.855573             0.00661271797            0.000525827024           
       2.858213             0.00631625145            0.000539662282           
       2.860853             0.00646991324            0.000508079658           
       2.863494             0.00645221719            0.000525325702           
       2.866134             0.00682784837            0.000561679791           
       2.868774             0.00699982517            0.000558924836           
       2.871415             0.00575281724            0.000514591637           
       2.874055             0.00599512574            0.000502137879           
       2.876696             0.00657255517            0.000539985314           
       2.879336             0.00825996589            0.000583437533           
       2.881976              0.0069684381            0.000552730164           
       2.884617             0.00679740057             0.00053788731           
       2.887257             0.00755826049            0.000570120512           
       2.889897             0.00783614068            0.000568558794           
       2.892538              0.0068875356             0.00058394242           
       2.895178             0.00662999905            0.000517596054           
       2.897819             0.00705724677            0.000544744349           
       2.900459             0.00666942015            0.000519263103           
       2.903099             0.00692891993            0.000523851019           
       2.905740             0.00700416962            0.000540314493           
       2.908380              0.0068231476            0.000539345974           
       2.911021             0.00785141522            0.000587967299           
       2.913661             0.00677076734            0.000545843337           
       2.916301             0.00745143391             0.00057316935           
       2.918942             0.00670389567            0.000520023291           
       2.921582             0.00729731508            0.000567664852           
       2.924222             0.00761821024            0.000561920016           
       2.926863              0.0072466547              0.0005708529           
       2.929503             0.00829471461            0.000617975396           
       2.932144             0.00754339192            0.000565714568           
       2.934784             0.00661139246            0.000520931094           
       2.937424             0.00700441188             0.00054169613           
       2.940065             0.00628965636            0.000489653334           
       2.942705             0.00684742939            0.000510262715           
       2.945346              0.0071140098            0.000551958273           
       2.947986             0.00711384324            0.000562799839           
       2.950626             0.00700473671            0.000555322902           
       2.953267             0.00725716852            0.000556107735           
       2.955907             0.00738198639            0.000581825198           
       2.958547             0.00735856159            0.000548400657           
       2.961188              0.0072152654            0.000566536911           
       2.963828             0.00764798445            0.000570553652           
       2.966469             0.00680649231            0.000528022155           
       2.969109             0.00729151818            0.000554609085           
       2.971749             0.00695834632            0.000538410169           
       2.974390             0.00671970151            0.000519934537           
       2.977030             0.00724492538            0.000551936963           
       2.979670             0.00946702478            0.000613698223           
       2.982311             0.00841829578            0.000599802708           
       2.984951             0.00828727252            0.000566008345           
       2.987592             0.00712624832            0.000535377472           
       2.990232             0.00796330108            0.000588579356           
       2.992872             0.00797422225            0.000554788529           
       2.995513             0.00831847339            0.000554357739           
       2.998153              0.0110247981            0.000648917823           
       3.000794              0.0121188341            0.000658992525           
       3.003434              0.0127623515             0.00067728375           
       3.006074              0.0467426719             0.00127800329           
       3.008715               0.121907743             0.00199232078           
       3.011355               0.181315989             0.00234306431           
       3.013995              0.0908077189             0.00166267568           
       3.016636              0.0618539295             0.00134374726           
       3.019276               0.130668573             0.00191983562           
       3.021917               0.503850451              0.0036249372           
       3.024557                1.68568997             0.00651881253           
       3.027197                   1.12753              0.0051978634           
       3.029838               0.509798055             0.00354467886           
       3.032478               0.256576516             0.00251725735           
       3.035118              0.0709623619             0.00134159361           
       3.037759              0.0957569573             0.00155643656           
       3.040399               0.133421454             0.00189512929           
       3.043040               0.544887937              0.0038767746           
       3.045680               0.391069538             0.00309006849           
       3.048320               0.085112454             0.00147293925           
       3.050961               0.107079417             0.00168122953           
       3.053601              0.0851341417             0.00144379939           
       3.056242              0.0552881697             0.00123706106           
       3.058882              0.0510816836             0.00127551964           
       3.061522              0.0379406625             0.00107852145           
       3.064163              0.0443090605             0.00115085092           
       3.066803               0.104456963              0.0018602917           
       3.069443               0.104465162             0.00194641806           
       3.072084              0.0505805967             0.00131881017           
       3.074724              0.0395172178             0.00130181081           
       3.077365              0.0870628842             0.00200025241           
       3.080005              0.0172312749            0.000894913299           
       3.082645              0.0114235803            0.000765471618           
       3.085286              0.0115987335            0.000777403063           
       3.087926              0.0102117118            0.000723819192           
       3.090566              0.0109181627              0.0007333244           
       3.093207             0.00959343665            0.000715309077           
       3.095847             0.00880829614            0.000656958224           
       3.098488             0.00801760122            0.000694989979           
       3.101128              0.0100168382            0.000781818038           
       3.103768              0.0102781291            0.000777049949           
       3.106409             0.00791092817            0.000725532765           
       3.109049             0.00840117664            0.000717507509           
       3.111690             0.00738995934            0.000661389366           
       3.114330             0.00888124038            0.000740482793           
       3.116970             0.00796912182            0.000706813432           
       3.119611              0.0127904216            0.000953148886           
       3.122251              0.0199300038             0.00124456513           
       3.124891              0.0355166015             0.00167689644           
       3.127532              0.0215294401             0.00127724734           
       3.130172               0.012408876            0.000986427357           
       3.132813             0.00748507028            0.000754218766           
       3.135453             0.00781638112            0.000764381335           
       3.138093             0.00736179375            0.000803789134           
       3.140734             0.00748343585            0.000747658792           
       3.143374             0.00702815534            0.000766252555           
       3.146014             0.00529478612            0.000715991556           
       3.148655             0.00685472494             0.00075730594           
       3.151295             0.00541166703            0.000717065854           
       3.153936             0.00504467865            0.000668765453           
       3.156576              0.0055825213            0.000693944019           
       3.159216             0.00721735844             0.00079298545           
       3.161857              0.0061058413            0.000726403199           
       3.164497             0.00866509285            0.000909233096           
       3.167138             0.00884649522            0.000949242481           
       3.169778             0.00657100807            0.000804610575           
       3.172418             0.00663675354            0.000800400743           
       3.175059             0.00606455023            0.000678310304           
       3.177699             0.00559188161            0.000689730214           
       3.180339             0.00624852339            0.000781177475           
       3.182980             0.00730039866            0.000872995808           
       3.185620             0.00617512052            0.000817685549           
       3.188261             0.00549433961             0.00078506056           
       3.190901             0.00568255485            0.000734290701           
       3.193541              0.0056351208            0.000768335455           
       3.196182             0.00545971976             0.00078815555           
       3.198822             0.00602867166            0.000828482079           
       3.201463             0.00527248436            0.000761434351           
       3.204103             0.00661754772            0.000847857733           
       3.206743             0.00652825347            0.000842038956           
       3.209384             0.00467247865            0.000769658011           
       3.212024             0.00607412395            0.000818140688           
       3.214664             0.00554395675            0.000888814162           
       3.217305             0.00757052644            0.000987296886           
       3.219945             0.00504107328            0.000829221456           
       3.222586             0.00569013691            0.000839127187           
       3.225226             0.00625485563            0.000975981105           
       3.227866             0.00761925935            0.000984533651           
       3.230507             0.00681845422            0.000965455393           
       3.233147             0.00582969467            0.000899922139           
       3.235787             0.00478362642            0.000834248594           
       3.238428             0.00457118609            0.000880042575           
       3.241068             0.00518288921             0.00087621339           
       3.243709             0.00568662699            0.000948240304           
       3.246349             0.00672540145             0.00094005062           
       3.248989             0.00550340449             0.00100409742           
       3.251630             0.00441143713            0.000865693521           
       3.254270             0.00623536895            0.000919837202           
       3.256911              0.0043481573            0.000838110806           
       3.259551             0.00750804686             0.00118566586           
       3.262191             0.00719997962             0.00118599156           
       3.264832             0.00488108035             0.00102030019           
       3.267472             0.00598953075             0.00106027618           
       3.270112             0.00477299032             0.00104599653           
       3.272753              0.0057459272             0.00105048489           
       3.275393             0.00558221343              0.0010564804           
       3.278034             0.00499273223            0.000999704864           
       3.280674             0.00636530689             0.00122489159           
       3.283314              0.0071793279             0.00116342794           
       3.285955             0.00643536227             0.00113650507           
       3.288595             0.00573605365             0.00119373003           
       3.291235             0.00732826095             0.00138704158           
       3.293876             0.00642417515             0.00131732843           
       3.296516             0.00546417153             0.00116635007           
       3.299157             0.00559026607             0.00116490752           
       3.301797             0.00504495329             0.00126231994           
       3.304437              0.0061652462             0.00120899627           
       3.307078             0.00486080075             0.00118253076           
       3.309718             0.00426919298             0.00114389649           
       3.312359             0.00491815232             0.00122805545           
       3.314999             0.00563253636             0.00129395989           
       3.317639             0.00490727862             0.00115509671           
       3.320280             0.00244441413            0.000866768166           
       3.322920             0.00543498029             0.00131420559           
       3.325560             0.00667932168             0.00145789234           
       3.328201             0.00591355639             0.00123545089           
       3.330841             0.00419932127              0.0012670786           
       3.333482             0.00269718842            0.000959857909           
       3.336122             0.00273251422            0.000966567326           
       3.338762             0.00454415871             0.00143985201           
       3.341403              0.0049991732             0.00144307558           
       3.344043             0.00267927797             0.00101427896           
       3.346683             0.00479344055             0.00138504303           
       3.349324             0.00605390168             0.00175005097           
       3.351964             0.00619553108             0.00187213578           
       3.354605             0.00294180047             0.00147536301           
       3.357245             0.00596148531             0.00189464253           
       3.359885             0.00696302612             0.00163883273           
       3.362526             0.00362285935             0.00147828981           
       3.365166             0.00483392633             0.00161058887           
       3.367807             0.00173184139             0.00123375732           
       3.370447             0.00543602116             0.00181317564           
       3.373087             0.00688760876              0.0021825329           
       3.375728             0.00431944262             0.00195065133           
       3.378368             0.00391592637             0.00275646797           
       3.381008              0.0021550834             0.00152456473           
       3.383649             0.00278718496             0.00139085284           
       3.386289             0.00579614048             0.00237382271           
       3.388930              0.0122614666             0.00546126629           
       3.391570             0.00364511251             0.00210639638           
       3.394210             0.00387387485             0.00274806748           
       3.396851             0.00728722697             0.00421608681           
       3.399491             0.00486851414              0.0034470589           
       3.402131              0.0143102091             0.00836122605           
       3.404772              0.0095372603             0.00965558457           
       3.407412                       nan                       nan           
       3.410053           -2.61763014e-05                         0           
       3.412693                       nan                       nan           
       3.415333           -2.62263238e-05                         0           
