################################################################################
# EDF_DataBlockID                     0.Image.Psd
# EDF_BinarySize                      2105344
# EDF_HeaderSize                      2560
# ByteOrder                           LowByteFirst
# DataType                            FloatValue
# Dim_1                               512
# Dim_2                               1028
# Image                               0
# HeaderID                            EH:000000:000000:000000
# Size                                2105344
# Center_1                            304.9000
# Center_2                            588.7000
# Comment                             Xenocs_Cell_Window - 20251028_20perc_iodine_1.23mg
# DDummy                              0.6
# Date                                2025-10-28T18:55:08
# Delta                               21.910000
# Dummy                               -1.5
# ExposureTime                        360
# Gamma                               15.360000
# Intensity1                          8.51913e-10
# PSize_1                             7.5e-05
# PSize_2                             7.5e-05
# Pressure                            0.0351458
# SampleDistance                      0.115750
# SampleEnvKind                       large
# SampleEnvPN                         ElectroChemical cell
# SampleEnvSN                         1141
# Thickness                           0
# Wavelength                          1.541891e-10
# Wavelength                          1.54189e-10
# aux                                 0
# aux_dial                            0.002375
# beamx                               588.434
# beamx_dial                          588.434
# beamz                               657.808
# beamz_dial                          657.808
# det0x                               0
# det0x_dial                          6.36945
# det0xvd                             0
# det0xvd_dial                        0
# det0y                               450.002
# det0y_dial                          481.635
# det0z                               0
# det0z_dial                          1.23302
# det0zvd                             0
# det0zvd_dial                        0
# mag                                 1.818
# mag_dial                            1.818
# om                                  0.2499
# om_dial                             -0.610199
# phi                                 -0.0120535
# phi_dial                            0
# ry                                  0.599993
# ry_dial                             0.599993
# s1bot                               0.8
# s1bot_dial                          -1.66094
# s1hl                                0.8
# s1hl_dial                           -0.608437
# s1hr                                0.8
# s1hr_dial                           0.970938
# s1top                               0.8
# s1top_dial                          -0.461562
# s2bot                               0.45
# s2bot_dial                          1.36109
# s2hl                                0.45
# s2hl_dial                           -0.83375
# s2hr                                0.45
# s2hr_dial                           -0.118594
# s2top                               0.45
# s2top_dial                          1.44734
# w2theta                             32
# w2theta_dial                        32
# waxsch                              19.2605
# waxsch_dial                         -32.7355
# waxsh                               137.085
# waxsh_dial                          -43.5338
# waxsth                              26.0607
# waxsth_dial                         -19.4086
# waxsz                               67.0407
# waxsz_dial                          -23.7954
# wind                                65.9854
# wind_dial                           66.0041
# wpsi                                124
# wpsi_dial                           124
# wstod                               115
# wstod_dial                          115
# x                                   0
# x_dial                              1.00969
# z                                   0
# z_dial                              13.3172
# CountCutoff                         6807993
# DetectorModel                       Dectris EIGER2 Si 500K, S/N E-01-0554
# ThresholdSetting                    4023.88989258
# Saturation                          0
# FlatField                           Corrected
# BackgroundReductionExtra            0.02
# BackgroundCorrectionConstant        0.0026712
# Detector                            0
# Monitor                             0
# Pil_Roi0                            0
# SumForIntensity1                    3.06689e+08
# TransmittedFlux                     851913
# det                                 0
# mon                                 0
# pilai0                              3.06689e+08
# pilai1                              800245
# pilct0                              5.31173e+08
# pilct1                              800245
# pilroi0                             0
# pilroi1                             0
# sec                                 1
# title                               20251028_20perc_iodine_1.23mg_1_00041.edf
# usaxs0                              0
# Operation                           Azimuthal average I(q)
# Error_model                         ErrorModel.poisson
# Geometrical_correction              True
# Transmission_correction             True
# Thickness_correction                False
# Binning mode                        Uniform
# Binning factor                      1.0
# Psi                                 0.0
# Omega                               0.2499
# MaskInvalidPixels                   True
# DetectorEdge                        3
# MaskFiles                           ['WAXS_corrected.edf']
################################################################################
    q(A⁻¹)                Intensity(a.u.)            Sigma_I(a.u.)            
       0.693100             0.00829184451             0.00608193844           
       0.695741             0.00846479815              0.0050145558           
       0.698381             0.00428689413             0.00437127774           
       0.701021            -2.3794952e-05                         0           
       0.703662              0.0113395474              0.0058013161           
       0.706302              0.0103894692             0.00429914906           
       0.708942              0.0086419882             0.00506073636           
       0.711583             0.00662543497             0.00383707131           
       0.714223             0.00293999342             0.00295097664           
       0.716864             0.00630456602             0.00282742423           
       0.719504             0.00743419205             0.00331320356           
       0.722144             0.00374273438              0.0021770708           
       0.724785              0.0103008324             0.00288101562           
       0.727425             0.00441696979             0.00255218244           
       0.730065             0.00364002902             0.00163886485           
       0.732706             0.00671210592             0.00186882598           
       0.735346             0.00439683609             0.00197166765           
       0.737987             0.00522186003             0.00151835477           
       0.740627             0.00683188562             0.00259129837           
       0.743267             0.00706412041             0.00176489281           
       0.745908             0.00731679361             0.00194876026           
       0.748548             0.00436696608             0.00138772162           
       0.751189              0.0064282599             0.00226869277           
       0.753829             0.00746413701             0.00224721115           
       0.756469             0.00566706713             0.00157894356           
       0.759110             0.00778847726             0.00195067196           
       0.761750             0.00689097592             0.00162240394           
       0.764390             0.00878315527             0.00191712033           
       0.767031             0.00659855531             0.00143895656           
       0.769671              0.0048994737             0.00154672323           
       0.772312             0.00451136653             0.00112990856           
       0.774952              0.0035959644             0.00136224948           
       0.777592             0.00901440797             0.00157099483           
       0.780233             0.00597322832             0.00154288828           
       0.782873             0.00474774516             0.00131557694           
       0.785513             0.00831852559             0.00186165631           
       0.788154             0.00836656322             0.00156182995           
       0.790794              0.0053316674             0.00149056445           
       0.793435             0.00572489578              0.0013875647           
       0.796075              0.0087275065             0.00165036766           
       0.798715             0.00605398083             0.00162430985           
       0.801356             0.00703170684             0.00150665789           
       0.803996             0.00605021765             0.00142482815           
       0.806637             0.00783343142             0.00129022434           
       0.809277             0.00772189602             0.00138654036           
       0.811917             0.00651568176             0.00119066098           
       0.814558             0.00656489805             0.00124214427           
       0.817198             0.00615453804             0.00114261735           
       0.819838             0.00825012011             0.00133889166           
       0.822479             0.00720068966              0.0014688297           
       0.825119             0.00563137711             0.00110556791           
       0.827760              0.0055753387             0.00111431143           
       0.830400             0.00785855073             0.00124513773           
       0.833040             0.00757512986             0.00128078096           
       0.835681             0.00644279588             0.00134280237           
       0.838321              0.0051226405             0.00100497572           
       0.840961             0.00511976513             0.00109466098           
       0.843602              0.0082229331             0.00127220377           
       0.846242              0.0076598249              0.0012276878           
       0.848883             0.00781118374             0.00126871397           
       0.851523             0.00763198748              0.0012384988           
       0.854163             0.00724323176              0.0012831048           
       0.856804             0.00898223658             0.00128473667           
       0.859444             0.00827492133             0.00120821509           
       0.862085             0.00670350232             0.00113340529           
       0.864725              0.0068339633             0.00117115593           
       0.867365             0.00741870445             0.00113150984           
       0.870006             0.00671227961             0.00102562171           
       0.872646             0.00707330186             0.00110405074           
       0.875286             0.00891832658             0.00119267641           
       0.877927             0.00727407473              0.0010393843           
       0.880567             0.00767436672             0.00110605525           
       0.883208             0.00762012912             0.00109175672           
       0.885848             0.00758852581              0.0011312189           
       0.888488             0.00725341085             0.00103732141           
       0.891129             0.00671439302             0.00102477322           
       0.893769             0.00701137954             0.00100218954           
       0.896410             0.00820918538             0.00101106092           
       0.899050             0.00783225525             0.00108606556           
       0.901690             0.00947281187             0.00130105552           
       0.904331             0.00618386492            0.000931948859           
       0.906971             0.00780104559              0.0011135581           
       0.909611             0.00699163286            0.000959665529           
       0.912252             0.00743190974             0.00102196722           
       0.914892             0.00838570148             0.00118629283           
       0.917533             0.00838963388             0.00112249178           
       0.920173              0.0076233355            0.000992750557           
       0.922813             0.00853270155             0.00110216528           
       0.925454             0.00715485087            0.000908812241           
       0.928094             0.00800326902             0.00102614745           
       0.930734             0.00804794431             0.00110784038           
       0.933375             0.00520361023            0.000882056848           
       0.936015             0.00726582601            0.000946618146           
       0.938656             0.00726172271             0.00101521081           
       0.941296             0.00723345531            0.000918268057           
       0.943936             0.00783993531            0.000937495224           
       0.946577             0.00683901282            0.000869818837           
       0.949217             0.00804078776            0.000867313222           
       0.951858              0.0072738974            0.000863523463           
       0.954498             0.00797137453             0.00104633689           
       0.957138              0.0072744046            0.000946934931           
       0.959779             0.00718220592            0.000927548683           
       0.962419             0.00517309008            0.000781959704           
       0.965059             0.00772978848               0.001005312           
       0.967700             0.00807108725             0.00105212465           
       0.970340              0.0073959882            0.000891238584           
       0.972981             0.00747309787            0.000816225814           
       0.975621             0.00838692039            0.000919882889           
       0.978261             0.00764502649            0.000834496976           
       0.980902             0.00818409664             0.00103303549           
       0.983542             0.00941213239            0.000981057377           
       0.986182             0.00691392214            0.000825530165           
       0.988823             0.00771384722            0.000846693501           
       0.991463              0.0070765288            0.000865212528           
       0.994104             0.00743897573            0.000865373038           
       0.996744             0.00849385098            0.000943182806           
       0.999384             0.00972134747            0.000902415994           
       1.002025             0.00741067118            0.000879402966           
       1.004665             0.00645357798            0.000749975087           
       1.007306             0.00577920357            0.000706076706           
       1.009946             0.00725227595            0.000806669519           
       1.012586             0.00799941024            0.000825125803           
       1.015227             0.00607679189            0.000772608041           
       1.017867             0.00852702487            0.000879580201           
       1.020507             0.00750524048            0.000799317914           
       1.023148             0.00890749437             0.00093960965           
       1.025788             0.00849143921            0.000841186571           
       1.028429             0.00841241226            0.000877170797           
       1.031069             0.00852396781            0.000830906498           
       1.033709             0.00984633436            0.000949298546           
       1.036350             0.00907514198            0.000818530162           
       1.038990             0.00781010001            0.000773293911           
       1.041630             0.00866303796            0.000849454102           
       1.044271             0.00883831907            0.000806922219           
       1.046911             0.00790048787            0.000802482693           
       1.049552             0.00757451212            0.000825533229           
       1.052192             0.00878713199            0.000811917445           
       1.054832             0.00695416974            0.000728859457           
       1.057473             0.00817061885            0.000778811826           
       1.060113             0.00905064004            0.000799411569           
       1.062754             0.00817969785            0.000775921268           
       1.065394             0.00919661682            0.000869849777           
       1.068034             0.00776653957            0.000727310634           
       1.070675             0.00852816497            0.000795004189           
       1.073315             0.00838318987            0.000799515926           
       1.075955             0.00950378399            0.000803653869           
       1.078596             0.00822044204            0.000794365824           
       1.081236             0.00886942388             0.00079011272           
       1.083877             0.00760505143            0.000725068354           
       1.086517             0.00824350061            0.000809463068           
       1.089157             0.00624478125            0.000731029352           
       1.091798             0.00914213526            0.000775459627           
       1.094438             0.00948403474            0.000787277716           
       1.097078              0.0102744204            0.000785916091           
       1.099719             0.00968724854            0.000825440268           
       1.102359             0.00850876057            0.000724489191           
       1.105000             0.00972239596            0.000865970126           
       1.107640             0.00880221025            0.000787850625           
       1.110280             0.00868281053            0.000713961428           
       1.112921             0.00915457666            0.000787508822           
       1.115561             0.00864428413            0.000727301823           
       1.118202             0.00896002185            0.000741162988           
       1.120842             0.00893699981             0.00077796571           
       1.123482             0.00730971841            0.000700509317           
       1.126123              0.0081329383            0.000708731617           
       1.128763             0.00945630295            0.000769460369           
       1.131403             0.00888179122            0.000718565184           
       1.134044             0.00935715741            0.000758934441           
       1.136684             0.00720549987            0.000710055331           
       1.139325             0.00920742649            0.000739405478           
       1.141965             0.00931644907            0.000748687121           
       1.144605             0.00881313206            0.000694324258           
       1.147246             0.00852634355            0.000698923681           
       1.149886             0.00934859639            0.000729251082           
       1.152527             0.00924656171            0.000735807219           
       1.155167             0.00836738781            0.000665761879           
       1.157807             0.00927002386            0.000751331089           
       1.160448              0.0089047236             0.00071909255           
       1.163088              0.0092886157            0.000700537591           
       1.165728              0.0090119137            0.000708461113           
       1.168369             0.00899804997            0.000714456106           
       1.171009             0.00891136783            0.000690012467           
       1.173650             0.00963106619            0.000736156602           
       1.176290             0.00844069338             0.00067346706           
       1.178930             0.00990459673            0.000715010001           
       1.181571              0.0103001334            0.000743606332           
       1.184211             0.00826394508            0.000668424665           
       1.186851             0.00972811095            0.000709042433           
       1.189492              0.0103532329            0.000726548086           
       1.192132             0.00855898719            0.000653186538           
       1.194773              0.0090028194            0.000672835223           
       1.197413              0.0104811011            0.000695588818           
       1.200053             0.00933495524            0.000673134978           
       1.202694             0.00965166805            0.000650881025           
       1.205334             0.00953204284            0.000697085525           
       1.207975             0.00978808367            0.000674265087           
       1.210615             0.00881112464            0.000705732172           
       1.213255              0.0111894144            0.000712167824           
       1.215896              0.0100483621            0.000687107751           
       1.218536             0.00944493331            0.000640538554           
       1.221176              0.0102204498            0.000724423182           
       1.223817              0.0103950165            0.000685811235           
       1.226457             0.00955333954            0.000670705799           
       1.229098               0.010555142            0.000704961399           
       1.231738               0.010548022            0.000708191984           
       1.234378             0.00933844419            0.000626136488           
       1.237019             0.00978982198            0.000660637395           
       1.239659               0.010072723             0.00066427741           
       1.242299             0.00988813285            0.000649800535           
       1.244940             0.00996683646            0.000634481833           
       1.247580              0.0096772851            0.000644317236           
       1.250221              0.0112530056            0.000690508762           
       1.252861              0.0107508204             0.00064253216           
       1.255501              0.0102361729            0.000680763488           
       1.258142               0.010059081            0.000634141702           
       1.260782              0.0100800266            0.000648536947           
       1.263423              0.0100929629            0.000623570401           
       1.266063             0.00994918618            0.000634573094           
       1.268703             0.00990417886            0.000627882353           
       1.271344              0.0108774299            0.000680309955           
       1.273984               0.010510296            0.000645861775           
       1.276624              0.0110683556            0.000650335046           
       1.279265              0.0102854139            0.000637322725           
       1.281905              0.0108244473            0.000656711443           
       1.284546              0.0108275117            0.000634861008           
       1.287186              0.0107775535              0.0006214274           
       1.289826              0.0109122018            0.000659012071           
       1.292467             0.00928751106            0.000594585393           
       1.295107              0.0115840704            0.000657445081           
       1.297747              0.0112412001             0.00061973992           
       1.300388              0.0107083853            0.000659389337           
       1.303028              0.0113999821            0.000649502378           
       1.305669              0.0107468349            0.000645637437           
       1.308309              0.0100729631            0.000618912224           
       1.310949               0.011218574            0.000652503125           
       1.313590              0.0109215426            0.000623682412           
       1.316230              0.0114260223            0.000680753639           
       1.318871              0.0109189493            0.000651752731           
       1.321511              0.0107611977            0.000635034669           
       1.324151              0.0111668642             0.00062771543           
       1.326792               0.011850043            0.000650629674           
       1.329432             0.00997044354            0.000592591675           
       1.332072              0.0111592104             0.00061758112           
       1.334713              0.0107885836            0.000626730676           
       1.337353               0.010557215            0.000594567353           
       1.339994               0.011893896            0.000662261736           
       1.342634              0.0114221919            0.000622346835           
       1.345274              0.0112111379            0.000638092327           
       1.347915              0.0111403081            0.000618508371           
       1.350555              0.0108407365            0.000620821431           
       1.353195              0.0107107479            0.000620118974           
       1.355836              0.0108063475             0.00061316764           
       1.358476              0.0117734207            0.000621553082           
       1.361117              0.0117389902            0.000621495481           
       1.363757               0.011173898             0.00062486689           
       1.366397              0.0117071113            0.000620247186           
       1.369038              0.0113334025            0.000616343849           
       1.371678              0.0107197887            0.000594142038           
       1.374319              0.0115206437            0.000610632198           
       1.376959              0.0109682779            0.000589821964           
       1.379599              0.0120816953            0.000663418753           
       1.382240              0.0116043395            0.000611072178           
       1.384880               0.012194761              0.0006635262           
       1.387520                0.01130785             0.00060682295           
       1.390161              0.0116400332            0.000584740075           
       1.392801              0.0115922714            0.000607991261           
       1.395442              0.0107844983            0.000594434993           
       1.398082              0.0116823818            0.000579372218           
       1.400722              0.0115081765            0.000602337272           
       1.403363              0.0102603773            0.000598673979           
       1.406003              0.0103567885            0.000562904594           
       1.408644              0.0108668565            0.000604025392           
       1.411284              0.0113539927            0.000584637708           
       1.413924              0.0117547726             0.00059266134           
       1.416565              0.0112291531             0.00057698386           
       1.419205              0.0126106227            0.000637836217           
       1.421845              0.0104569295            0.000580480876           
       1.424486              0.0108387289            0.000568070527           
       1.427126              0.0113321874            0.000603399104           
       1.429767              0.0125828426            0.000598233443           
       1.432407              0.0101090457            0.000561158198           
       1.435047              0.0113127936             0.00055751623           
       1.437688              0.0101342628            0.000535567313           
       1.440328              0.0116401723            0.000585812269           
       1.442968              0.0118129488            0.000603366405           
       1.445609              0.0116697054            0.000580673047           
       1.448249              0.0108657578            0.000574501115           
       1.450890              0.0106080039            0.000563941154           
       1.453530              0.0101218916            0.000576319055           
       1.456170              0.0103738645            0.000566250318           
       1.458811              0.0106104769            0.000547600738           
       1.461451              0.0107265466            0.000552032065           
       1.464092              0.0105312828            0.000550560535           
       1.466732              0.0114022301            0.000567951449           
       1.469372              0.0107897163             0.00053955619           
       1.472013               0.011628157            0.000604109001           
       1.474653               0.011473427            0.000590819314           
       1.477293              0.0116107992            0.000606872579           
       1.479934              0.0118926607            0.000586069928           
       1.482574              0.0114033405            0.000555145476           
       1.485215              0.0118757922             0.00057708061           
       1.487855              0.0118710917             0.00058457753           
       1.490495              0.0120115279            0.000585859525           
       1.493136              0.0103345486            0.000535976966           
       1.495776              0.0111816221            0.000554971618           
       1.498416              0.0110165161            0.000568881614           
       1.501057              0.0109521244            0.000554716003           
       1.503697               0.011109389            0.000546203181           
       1.506338              0.0107497748            0.000547108251           
       1.508978              0.0100025606            0.000522561072           
       1.511618              0.0116599161            0.000600864839           
       1.514259              0.0110297833            0.000564213889           
       1.516899              0.0101930945            0.000528110049           
       1.519540              0.0109024874            0.000554985529           
       1.522180              0.0116701768            0.000579236572           
       1.524820              0.0109976693            0.000559144593           
       1.527461              0.0117372314            0.000580495985           
       1.530101              0.0102763408            0.000537737544           
       1.532741             0.00983890476            0.000523114518           
       1.535382              0.0103702828            0.000545700841           
       1.538022              0.0103295879            0.000513069417           
       1.540663              0.0113646203            0.000578825221           
       1.543303              0.0107686407            0.000523166544           
       1.545943              0.0102513248            0.000540269043           
       1.548584              0.0113278553             0.00057812353           
       1.551224               0.009960291             0.00050122661           
       1.553864              0.0111881922            0.000561337908           
       1.556505              0.0104222897             0.00052337714           
       1.559145              0.0108100116            0.000539552864           
       1.561786             0.00942914704            0.000504302909           
       1.564426              0.0108133213            0.000523253242           
       1.567066              0.0111502074            0.000556744015           
       1.569707              0.0100990811            0.000520334714           
       1.572347              0.0106803597            0.000552811618           
       1.574988              0.0106470247             0.00052536218           
       1.577628             0.00993489567            0.000529185528           
       1.580268             0.00929349553             0.00049589747           
       1.582909              0.0102813541            0.000552862427           
       1.585549              0.0105311935            0.000543294924           
       1.588189             0.00913862745            0.000495055315           
       1.590830              0.0100479924            0.000518450696           
       1.593470             0.00996456979            0.000536737131           
       1.596111             0.00975765393            0.000518552937           
       1.598751             0.00975484689            0.000502388137           
       1.601391              0.0102797121            0.000527105063           
       1.604032             0.00996335196            0.000529779133           
       1.606672             0.00941509208             0.00050036813           
       1.609312             0.00926352906            0.000518104583           
       1.611953             0.00959423324            0.000515968076           
       1.614593             0.00918312173            0.000495161433           
       1.617234             0.00872249004            0.000500137638           
       1.619874              0.0100379654            0.000534408272           
       1.622514             0.00945308266            0.000511530881           
       1.625155             0.00972647117            0.000521940294           
       1.627795             0.00976373313            0.000510126165           
       1.630436             0.00980920583            0.000508642787           
       1.633076             0.00963533016            0.000510726254           
       1.635716             0.00884263807            0.000481654293           
       1.638357             0.00867033727            0.000478195774           
       1.640997              0.0100059877            0.000529270954           
       1.643637             0.00929827363            0.000496492149           
       1.646278             0.00921029106            0.000509663452           
       1.648918              0.0104945477            0.000545521401           
       1.651559             0.00857788679            0.000497024547           
       1.654199             0.00846069279            0.000480086486           
       1.656839             0.00852408177            0.000482049784           
       1.659480                0.00912426            0.000517459938           
       1.662120             0.00940042009            0.000494682428           
       1.664761              0.0100315787            0.000530817385           
       1.667401             0.00985043321            0.000502746173           
       1.670041             0.00835335364            0.000470027832           
       1.672682             0.00786840876            0.000454305395           
       1.675322             0.00961104781            0.000498870778           
       1.677962             0.00947319528            0.000489816596           
       1.680603             0.00832379986             0.00046055388           
       1.683243             0.00969295548            0.000518516485           
       1.685884             0.00913851428            0.000507186379           
       1.688524             0.00853559796            0.000480694982           
       1.691164             0.00896327649             0.00049270228           
       1.693805             0.00853265772            0.000486002183           
       1.696445              0.0099722642            0.000528451197           
       1.699085              0.0092713579            0.000492467849           
       1.701726               0.009204166            0.000472684604           
       1.704366             0.00917820265            0.000497257446           
       1.707007              0.0092689978             0.00048857185           
       1.709647             0.00949294014              0.0005000224           
       1.712287             0.00923737479            0.000497539104           
       1.714928             0.00902093889            0.000495639953           
       1.717568             0.00933541483            0.000474963219           
       1.720209             0.00832214957            0.000469716916           
       1.722849             0.00853386758            0.000473208875           
       1.725489             0.00986117009             0.00050910654           
       1.728130             0.00789797748            0.000484195956           
       1.730770             0.00874913432            0.000484001247           
       1.733410             0.00884739603            0.000479060938           
       1.736051              0.0090620703            0.000488212793           
       1.738691             0.00855490122            0.000464738631           
       1.741332             0.00947072542            0.000503280183           
       1.743972             0.00889348453            0.000503634728           
       1.746612             0.00822537317            0.000465097541           
       1.749253             0.00897101422            0.000495313356           
       1.751893             0.00834735113            0.000474279169           
       1.754533             0.00792628713            0.000461730795           
       1.757174             0.00823072425            0.000466108324           
       1.759814             0.00969482135             0.00049820063           
       1.762455              0.0083552425             0.00047099482           
       1.765095             0.00876428809            0.000461461101           
       1.767735             0.00880365086            0.000476764213           
       1.770376             0.00915587028            0.000487489731           
       1.773016             0.00920617355             0.00048555276           
       1.775657             0.00799937484            0.000446098306           
       1.778297             0.00926122135            0.000475861792           
       1.780937             0.00825027803              0.0004740663           
       1.783578             0.00867316776            0.000473910568           
       1.786218             0.00870948684            0.000495611972           
       1.788858             0.00836293219            0.000461251804           
       1.791499             0.00855792405            0.000461357812           
       1.794139             0.00956518988            0.000483796341           
       1.796780              0.0090330876            0.000467880706           
       1.799420             0.00897854988            0.000463882966           
       1.802060             0.00905114921            0.000469516677           
       1.804701             0.00964451876            0.000465104214           
       1.807341             0.00932900647            0.000480662807           
       1.809981              0.0086276403            0.000463782528           
       1.812622             0.00975854377            0.000484362965           
       1.815262             0.00989999758            0.000498224136           
       1.817903             0.00878276553            0.000462316962           
       1.820543             0.00889921689             0.00047262336           
       1.823183             0.00846768391            0.000460768507           
       1.825824              0.0086440075            0.000444759117           
       1.828464             0.00872570836            0.000465866748           
       1.831105             0.00977729083            0.000479506176           
       1.833745             0.00841500202            0.000454349032           
       1.836385             0.00839471257            0.000466751734           
       1.839026              0.0083746445            0.000464720586           
       1.841666             0.00952432467            0.000493836404           
       1.844306             0.00845134639            0.000452495592           
       1.846947             0.00815564764             0.00044840552           
       1.849587             0.00823640748            0.000497593916           
       1.852228             0.00879468537            0.000464947342           
       1.854868             0.00838995425            0.000479713691           
       1.857508             0.00828301361            0.000471971705           
       1.860149             0.00886539631            0.000497153544           
       1.862789             0.00879201833            0.000477878107           
       1.865429             0.00800221385            0.000475898972           
       1.868070              0.0082064895            0.000475511577           
       1.870710             0.00758564983            0.000446631224           
       1.873351             0.00759265792             0.00045236142           
       1.875991             0.00924462779            0.000507298896           
       1.878631             0.00737702456            0.000444489428           
       1.881272             0.00884133749            0.000483348214           
       1.883912             0.00814502215            0.000482810426           
       1.886553              0.0084278124            0.000485629623           
       1.889193             0.00805619873            0.000473991036           
       1.891833             0.00885770491            0.000516164885           
       1.894474             0.00803186026            0.000487233443           
       1.897114             0.00773699585            0.000462750155           
       1.899754             0.00839288167            0.000483982071           
       1.902395             0.00726635998            0.000441526829           
       1.905035             0.00745128326            0.000473564206           
       1.907676             0.00761820667            0.000451307367           
       1.910316             0.00816306817            0.000479571746           
       1.912956             0.00843137467            0.000476666765           
       1.915597             0.00730342403            0.000446117635           
       1.918237             0.00921784958            0.000517605586           
       1.920878             0.00763116902            0.000469027368           
       1.923518             0.00727135471            0.000458030654           
       1.926158             0.00850531217            0.000488944437           
       1.928799             0.00820441488            0.000474659073           
       1.931439             0.00796891292            0.000480066935           
       1.934079             0.00806878109            0.000503584129           
       1.936720             0.00912115521            0.000496080357           
       1.939360             0.00853056852            0.000511827662           
       1.942001             0.00834771943            0.000464061389           
       1.944641             0.00871032821            0.000483370605           
       1.947281             0.00794874848            0.000457499562           
       1.949922              0.0074345519            0.000457016453           
       1.952562             0.00800429166            0.000489068981           
       1.955202             0.00830993057            0.000497711472           
       1.957843             0.00779981403            0.000469688537           
       1.960483             0.00684779323            0.000460115259           
       1.963124             0.00761784012             0.00047534053           
       1.965764             0.00759080143            0.000447463204           
       1.968404             0.00712964527            0.000429560742           
       1.971045             0.00777409305            0.000457325185           
       1.973685             0.00778716596            0.000480103141           
       1.976326             0.00782602895             0.00047468481           
       1.978966             0.00808825894            0.000486806995           
       1.981606             0.00707193148            0.000464689267           
       1.984247             0.00746145927            0.000474177349           
       1.986887             0.00756396437            0.000471704373           
       1.989527              0.0080865039            0.000482473111           
       1.992168             0.00805367689            0.000499589608           
       1.994808             0.00730368029            0.000473719795           
       1.997449             0.00709331984            0.000457260483           
       2.000089             0.00814294544            0.000487982677           
       2.002729             0.00788926376            0.000480609305           
       2.005370             0.00807026839            0.000480861193           
       2.008010             0.00789936478            0.000496505349           
       2.010650             0.00730862866            0.000481143251           
       2.013291             0.00806433141            0.000484909351           
       2.015931             0.00789883968             0.00047651562           
       2.018572              0.0072568671             0.00048852778           
       2.021212             0.00747236632            0.000486821736           
       2.023852             0.00717522102            0.000451499765           
       2.026493             0.00814980234            0.000502684898           
       2.029133             0.00806935604            0.000490131759           
       2.031774             0.00777218635            0.000504821978           
       2.034414             0.00749148967            0.000456041268           
       2.037054             0.00750368783            0.000467980951           
       2.039695             0.00765880287            0.000469222422           
       2.042335             0.00766938333            0.000487961811           
       2.044975             0.00736120134             0.00047225978           
       2.047616             0.00853175892            0.000507160876           
       2.050256             0.00816537353            0.000500847062           
       2.052897             0.00741527251            0.000486087243           
       2.055537              0.0077992619            0.000481794894           
       2.058177             0.00761753537            0.000466278054           
       2.060818             0.00819590371            0.000506666631           
       2.063458             0.00689420036             0.00048425593           
       2.066098              0.0078352866            0.000486997107           
       2.068739             0.00689971018            0.000464101638           
       2.071379             0.00834797569             0.00052380498           
       2.074020             0.00788979997            0.000498160779           
       2.076660             0.00805378644            0.000507379939           
       2.079300             0.00697634769             0.00048379359           
       2.081941             0.00686073553            0.000439282373           
       2.084581             0.00738301302            0.000480991619           
       2.087222             0.00704448137            0.000453110783           
       2.089862             0.00787892419            0.000521917758           
       2.092502             0.00699260324            0.000476619619           
       2.095143             0.00717286904            0.000498484763           
       2.097783             0.00785565524            0.000505065277           
       2.100423             0.00699587878            0.000459272719           
       2.103064             0.00782009165            0.000503848288           
       2.105704             0.00764856723            0.000495823826           
       2.108345             0.00730441149            0.000465513727           
       2.110985             0.00686527427             0.00048202493           
       2.113625             0.00636912135            0.000468331884           
       2.116266             0.00790715411            0.000529227471           
       2.118906              0.0076003284            0.000483546519           
       2.121546             0.00747801307            0.000470481978           
       2.124187             0.00651097646            0.000460823357           
       2.126827             0.00723792635            0.000491290878           
       2.129468             0.00723720616            0.000492521295           
       2.132108             0.00812567146            0.000507747791           
       2.134748             0.00839947895            0.000514228734           
       2.137389             0.00791366606            0.000520722989           
       2.140029             0.00693470724            0.000436396882           
       2.142670             0.00791166501            0.000498156824           
       2.145310              0.0079410195            0.000485763621           
       2.147950             0.00777315742            0.000494670443           
       2.150591             0.00790155578            0.000493698946           
       2.153231             0.00680302483             0.00047153907           
       2.155871              0.0079536069            0.000492556143           
       2.158512             0.00770949806            0.000505999014           
       2.161152             0.00698479271            0.000466536705           
       2.163793             0.00762481136            0.000485248325           
       2.166433             0.00660605984            0.000463816973           
       2.169073             0.00751099883            0.000483555254           
       2.171714             0.00849330386            0.000510360244           
       2.174354              0.0079108934            0.000514670376           
       2.176995             0.00724594723            0.000490492902           
       2.179635              0.0076995831            0.000534289569           
       2.182275             0.00781752336               0.000508303           
       2.184916             0.00756119512            0.000482838655           
       2.187556             0.00792134342            0.000489250638           
       2.190196             0.00672630738            0.000471119442           
       2.192837             0.00809990012            0.000514177578           
       2.195477             0.00679345918            0.000448936983           
       2.198118             0.00738940919            0.000480211699           
       2.200758              0.0074988719              0.0004963037           
       2.203398             0.00707542018            0.000485171352           
       2.206039             0.00810258878            0.000491374598           
       2.208679             0.00799001683            0.000499305179           
       2.211319             0.00734757895            0.000481572081           
       2.213960             0.00692298392            0.000473713778           
       2.216600             0.00775328152            0.000518600898           
       2.219241             0.00750953526            0.000487789153           
       2.221881             0.00760815342            0.000491991113           
       2.224521             0.00707626404            0.000480296119           
       2.227162             0.00767164823            0.000490080679           
       2.229802             0.00824774077            0.000524055682           
       2.232443             0.00739448494             0.00048838151           
       2.235083             0.00711818238            0.000493304415           
       2.237723             0.00786996168            0.000497768539           
       2.240364             0.00637868911            0.000459173013           
       2.243004             0.00708601162            0.000480099107           
       2.245644             0.00721346492            0.000489246085           
       2.248285             0.00730396377             0.00048244318           
       2.250925             0.00722376658            0.000482701783           
       2.253566             0.00636734578            0.000484490285           
       2.256206             0.00694838523            0.000495993585           
       2.258846             0.00731157328            0.000484001107           
       2.261487             0.00767389442            0.000520438809           
       2.264127             0.00777429833            0.000505909052           
       2.266767             0.00693334552             0.00049049277           
       2.269408             0.00738831573            0.000508403728           
       2.272048             0.00707870375             0.00049466678           
       2.274689             0.00727757181            0.000508176013           
       2.277329             0.00758374198            0.000488441703           
       2.279969             0.00764275334            0.000521937121           
       2.282610             0.00606003179            0.000451835809           
       2.285250             0.00739868016            0.000477852567           
       2.287891             0.00735582265            0.000510844088           
       2.290531              0.0068584869            0.000499903407           
       2.293171             0.00608627301            0.000458719212           
       2.295812              0.0074463064            0.000505350188           
       2.298452             0.00727008641            0.000522171423           
       2.301092             0.00695250085             0.00047444622           
       2.303733             0.00820421735            0.000536184478           
       2.306373             0.00694933894            0.000501249091           
       2.309014             0.00705831953            0.000495309521           
       2.311654             0.00746732766            0.000531643891           
       2.314294             0.00667781578            0.000463189015           
       2.316935             0.00732347491            0.000487068665           
       2.319575             0.00755092886            0.000518199678           
       2.322215             0.00710107226            0.000523717383           
       2.324856             0.00686466335            0.000473420863           
       2.327496             0.00752011478            0.000526879794           
       2.330137             0.00641876979            0.000465803981           
       2.332777             0.00733027051            0.000513264078           
       2.335417             0.00676600216            0.000478393872           
       2.338058              0.0074033946            0.000515369034           
       2.340698             0.00712974364            0.000501780159           
       2.343339             0.00723286612             0.00051651764           
       2.345979             0.00759581844            0.000500777585           
       2.348619             0.00720674334            0.000505613752           
       2.351260              0.0065420669            0.000478926794           
       2.353900             0.00654431752            0.000477491767           
       2.356540             0.00712451317            0.000497501476           
       2.359181             0.00692054864            0.000483454232           
       2.361821              0.0073443639            0.000481091121           
       2.364462             0.00614099893            0.000460097095           
       2.367102             0.00801819981            0.000540278709           
       2.369742             0.00722232832             0.00053972015           
       2.372383             0.00725236764            0.000489730551           
       2.375023             0.00698976621            0.000505406548           
       2.377663             0.00674019088            0.000474537163           
       2.380304             0.00777123641            0.000518037053           
       2.382944             0.00713456983            0.000472770329           
       2.385585             0.00752783742            0.000517927904           
       2.388225             0.00738531933            0.000510591162           
       2.390865             0.00709420562            0.000495286277           
       2.393506             0.00759717803            0.000502873571           
       2.396146             0.00708648032            0.000525136388           
       2.398787             0.00763395968             0.00050230056           
       2.401427             0.00648583015            0.000446891993           
       2.404067              0.0067974671             0.00046770723           
       2.406708             0.00801894361            0.000501902929           
       2.409348             0.00713725809            0.000502247321           
       2.411988             0.00685192149            0.000482154415           
       2.414629             0.00795125122            0.000535570871           
       2.417269             0.00730430582            0.000519313747           
       2.419910             0.00754963819            0.000529188024           
       2.422550             0.00648134558            0.000469107855           
       2.425190              0.0071071542            0.000517811416           
       2.427831              0.0069794641            0.000510254193           
       2.430471             0.00633498706            0.000463128448           
       2.433112             0.00680604039            0.000467442841           
       2.435752             0.00693052907            0.000499204225           
       2.438392             0.00748763994            0.000500825926           
       2.441033              0.0085862874            0.000568382294           
       2.443673             0.00639226776            0.000490793789           
       2.446313             0.00730733401            0.000525210989           
       2.448954             0.00768959731            0.000512987563           
       2.451594             0.00747679876            0.000543895843           
       2.454235             0.00709507705            0.000497115708           
       2.456875              0.0062900251            0.000489762568           
       2.459515             0.00794335485            0.000564626235           
       2.462156              0.0080082698             0.00053525962           
       2.464796             0.00746545419            0.000510133302           
       2.467436             0.00770261392            0.000535851547           
       2.470077             0.00873241246            0.000540776391           
       2.472717             0.00776082379            0.000512013866           
       2.475358             0.00801851772            0.000525871735           
       2.477998             0.00746181738            0.000498736424           
       2.480638             0.00689413474            0.000487907969           
       2.483279             0.00784298247            0.000543902665           
       2.485919             0.00753738755             0.00051386111           
       2.488560             0.00707590083            0.000496490579           
       2.491200             0.00772451822            0.000534172619           
       2.493840             0.00694897463            0.000536099873           
       2.496481              0.0067278589            0.000518872823           
       2.499121             0.00699497743            0.000514608045           
       2.501761             0.00737454823             0.00053538663           
       2.504402             0.00781607909            0.000543128334           
       2.507042             0.00687550133            0.000505627837           
       2.509683             0.00796237575            0.000535810647           
       2.512323             0.00671044826             0.00051660406           
       2.514963             0.00693050468            0.000518520084           
       2.517604             0.00730463517            0.000552376119           
       2.520244             0.00796865788            0.000540879278           
       2.522884             0.00795468022            0.000548132995           
       2.525525             0.00814922976            0.000561092453           
       2.528165             0.00755136186            0.000531698974           
       2.530806             0.00848512122            0.000573438499           
       2.533446              0.0090900432            0.000580858983           
       2.536086             0.00714492949             0.00051036644           
       2.538727             0.00761525536            0.000505477169           
       2.541367             0.00737635718            0.000502385796           
       2.544008             0.00710400256            0.000509173297           
       2.546648             0.00691164187            0.000510846979           
       2.549288             0.00715825019            0.000530473651           
       2.551929             0.00665571744            0.000503360727           
       2.554569             0.00642656533             0.00047652462           
       2.557209             0.00715899266            0.000507565505           
       2.559850             0.00741638601            0.000518268341           
       2.562490             0.00765995127            0.000544383012           
       2.565131             0.00731860083            0.000551720905           
       2.567771             0.00734327943            0.000532837899           
       2.570411             0.00699709122            0.000514498643           
       2.573052             0.00697711189             0.00052023371           
       2.575692             0.00624376306            0.000489154428           
       2.578332             0.00663887753            0.000506480031           
       2.580973             0.00682810952            0.000508760382           
       2.583613             0.00722186617            0.000510765671           
       2.586254             0.00742769454            0.000517273243           
       2.588894             0.00648073826            0.000501755079           
       2.591534             0.00679307294            0.000531779702           
       2.594175             0.00693719185            0.000527250237           
       2.596815             0.00741716351            0.000548399494           
       2.599456             0.00769687645            0.000529759801           
       2.602096             0.00710328735            0.000512795306           
       2.604736             0.00690409536            0.000517542017           
       2.607377             0.00765850071            0.000530720071           
       2.610017              0.0073172298            0.000509682473           
       2.612657             0.00727451109            0.000540539359           
       2.615298             0.00762310803            0.000540233154           
       2.617938             0.00735514267            0.000567663257           
       2.620579             0.00657059869             0.00051506775           
       2.623219             0.00732749861            0.000543150573           
       2.625859             0.00654239785             0.00049900215           
       2.628500             0.00712554016            0.000517352841           
       2.631140             0.00712835044             0.00052542795           
       2.633780             0.00603390512            0.000482992274           
       2.636421             0.00738309538             0.00054740796           
       2.639061             0.00794737099            0.000534651653           
       2.641702             0.00691644828            0.000510317319           
       2.644342             0.00747638447            0.000532833031           
       2.646982             0.00722686395            0.000516034387           
       2.649623             0.00793317382            0.000566593817           
       2.652263              0.0071736499            0.000533381923           
       2.654904              0.0072754654            0.000537694121           
       2.657544             0.00705189686            0.000498609964           
       2.660184             0.00706589308            0.000528197928           
       2.662825             0.00747765981            0.000555976553           
       2.665465             0.00661148577             0.00050561925           
       2.668105             0.00734407461            0.000561693001           
       2.670746             0.00676587539             0.00049803997           
       2.673386             0.00820567321            0.000565250676           
       2.676027             0.00782409602            0.000543093258           
       2.678667             0.00794525546            0.000534010536           
       2.681307              0.0101818957            0.000593974655           
       2.683948              0.0107408625            0.000626809268           
       2.686588              0.0105026429            0.000609540516           
       2.689229             0.00935248026            0.000562058809           
       2.691869             0.00806253323            0.000551554265           
       2.694509             0.00846681308             0.00056552401           
       2.697150             0.00757107715            0.000526097357           
       2.699790             0.00839250379             0.00058068684           
       2.702430             0.00852066973            0.000559289101           
       2.705071             0.00722909212            0.000532319699           
       2.707711             0.00594468755            0.000468515808           
       2.710352             0.00696471368            0.000535836524           
       2.712992             0.00748224022            0.000565657152           
       2.715632               0.006699106            0.000496593468           
       2.718273             0.00671184186            0.000515141273           
       2.720913             0.00675049537            0.000515152535           
       2.723553             0.00636958437            0.000503764707           
       2.726194             0.00652859847             0.00053313283           
       2.728834             0.00667307262            0.000539252395           
       2.731475             0.00915679368            0.000582990278           
       2.734115             0.00737132047            0.000539306723           
       2.736755             0.00846785964            0.000582787159           
       2.739396             0.00676684065            0.000517955645           
       2.742036             0.00707224847            0.000554171175           
       2.744677             0.00685990609            0.000529565155           
       2.747317             0.00726065698            0.000540929097           
       2.749957             0.00844923136            0.000587622131           
       2.752598             0.00586519348            0.000494901222           
       2.755238              0.0073021522            0.000562176732           
       2.757878             0.00828235713            0.000593486117           
       2.760519              0.0072277099            0.000548535111           
       2.763159             0.00728135619            0.000545065096           
       2.765800             0.00707431186            0.000512000196           
       2.768440             0.00754747205            0.000532741408           
       2.771080             0.00748598733            0.000534995707           
       2.773721             0.00767939882            0.000555840844           
       2.776361              0.0061640652            0.000504860073           
       2.779001             0.00699230664            0.000556852588           
       2.781642             0.00668152339             0.00054032538           
       2.784282             0.00721525632             0.00057072505           
       2.786923             0.00804486802            0.000607949702           
       2.789563             0.00787241609            0.000579217215           
       2.792203             0.00664033475            0.000508177744           
       2.794844             0.00760367856            0.000595986757           
       2.797484             0.00709920428            0.000543487185           
       2.800125             0.00593097529             0.00052234441           
       2.802765             0.00678837793            0.000549212679           
       2.805405             0.00680087358            0.000551578507           
       2.808046             0.00600783009            0.000527536075           
       2.810686             0.00675075466            0.000513842542           
       2.813326             0.00725787428            0.000553425019           
       2.815967              0.0066782687            0.000545961436           
       2.818607              0.0072319667            0.000542164886           
       2.821248             0.00681007882            0.000515190654           
       2.823888             0.00784251763            0.000573888624           
       2.826528             0.00672091681            0.000514507361           
       2.829169             0.00642949312             0.00052710422           
       2.831809             0.00665579887            0.000543595378           
       2.834449             0.00733214233            0.000574152263           
       2.837090             0.00653531516             0.00052354103           
       2.839730             0.00635972682             0.00051393841           
       2.842371             0.00724169219            0.000549209725           
       2.845011             0.00662850217             0.00052963164           
       2.847651             0.00683770031            0.000538585063           
       2.850292             0.00683498975               0.000543763           
       2.852932             0.00576380844            0.000510221267           
       2.855573             0.00747988733            0.000563813764           
       2.858213             0.00688609095            0.000568085862           
       2.860853             0.00675633385            0.000523447793           
       2.863494             0.00675488319            0.000541898971           
       2.866134             0.00627662567            0.000542931728           
       2.868774             0.00611790374            0.000526800739           
       2.871415             0.00705112157             0.00057436343           
       2.874055             0.00705810081            0.000549291664           
       2.876696             0.00672191895            0.000550549926           
       2.879336             0.00764202471            0.000565776234           
       2.881976             0.00765386601            0.000584011117           
       2.884617             0.00650791743            0.000530610851           
       2.887257             0.00831319575            0.000602802418           
       2.889897             0.00787904714            0.000574773005           
       2.892538             0.00659166964            0.000575931799           
       2.895178              0.0071960471            0.000543646337           
       2.897819              0.0060955188            0.000510405874           
       2.900459             0.00598574434            0.000495949837           
       2.903099             0.00716277028            0.000536970932           
       2.905740             0.00635210377            0.000518755035           
       2.908380             0.00715319571            0.000556750166           
       2.911021             0.00684491182            0.000553475463           
       2.913661             0.00683329905            0.000552840086           
       2.916301             0.00603864597            0.000520197259           
       2.918942             0.00697112552            0.000534620819           
       2.921582             0.00650771429            0.000540455497           
       2.924222             0.00703936357            0.000544565304           
       2.926863             0.00759191123            0.000589069087           
       2.929503             0.00752658032            0.000593477905           
       2.932144             0.00680083405            0.000541539774           
       2.934784             0.00667378139            0.000527661058           
       2.937424             0.00669126379            0.000533776211           
       2.940065             0.00697907875            0.000520007431           
       2.942705             0.00700545941            0.000520335682           
       2.945346             0.00613519933            0.000516771555           
       2.947986             0.00738059676            0.000577940064           
       2.950626             0.00612559605            0.000523551125           
       2.953267              0.0078814322            0.000584269409           
       2.955907              0.0064306741            0.000547481439           
       2.958547             0.00780580422            0.000569436856           
       2.961188             0.00705657917            0.000564851658           
       2.963828             0.00740989708            0.000566192775           
       2.966469             0.00678663435            0.000531560787           
       2.969109             0.00618002936            0.000514764408           
       2.971749             0.00757956599            0.000566523132           
       2.974390             0.00748853216            0.000553359372           
       2.977030             0.00799499203            0.000584543429           
       2.979670             0.00795102543            0.000567015491           
       2.982311             0.00883567515            0.000619514458           
       2.984951             0.00806163341            0.000562812572           
       2.987592             0.00720258941            0.000542636733           
       2.990232             0.00795698631            0.000593154742           
       2.992872             0.00894585556            0.000592419697           
       2.995513             0.00916419382            0.000586611639           
       2.998153              0.0119731521            0.000681779398           
       3.000794              0.0109268505            0.000630859742           
       3.003434             0.00928080188            0.000582281914           
       3.006074              0.0138108341            0.000700358501           
       3.008715              0.0408947509             0.00116335603           
       3.011355               0.239964132             0.00271753138           
       3.013995               0.289857271             0.00299483916           
       3.016636               0.209827313             0.00249517033           
       3.019276               0.158170745             0.00212949583           
       3.021917               0.618413648             0.00404878242           
       3.024557                1.04162525             0.00516619308           
       3.027197                 1.0366682             0.00502476715           
       3.029838               0.874274312             0.00467990364           
       3.032478               0.266242751             0.00258519499           
       3.035118              0.0730658067             0.00137245871           
       3.037759               0.061992315             0.00126255535           
       3.040399              0.0837579808              0.0015138204           
       3.043040               0.221723851             0.00249320739           
       3.045680               0.262798579             0.00255380576           
       3.048320               0.163614808             0.00205889797           
       3.050961               0.224591327              0.0024547414           
       3.053601               0.150769863             0.00193707968           
       3.056242               0.208158555             0.00241995564           
       3.058882               0.405137919             0.00362152294           
       3.061522               0.357263752             0.00333661464           
       3.064163               0.304224542             0.00304022107           
       3.066803               0.136264295             0.00214209453           
       3.069443               0.108696979             0.00200167869           
       3.072084              0.0669479866             0.00152965792           
       3.074724              0.0186885864            0.000902564326           
       3.077365               0.013028357            0.000780096533           
       3.080005              0.0110718818            0.000723216325           
       3.082645              0.0301484662             0.00125370636           
       3.085286              0.0203157749             0.00103727259           
       3.087926              0.0104692352            0.000738879372           
       3.090566             0.00851554987            0.000652924473           
       3.093207              0.0117384111            0.000797712748           
       3.095847              0.0088256621            0.000662980404           
       3.098488             0.00733925926            0.000670374792           
       3.101128             0.00935373764            0.000761672356           
       3.103768             0.00955296437            0.000755259548           
       3.106409             0.00931645825            0.000793786985           
       3.109049             0.00778757582            0.000696454551           
       3.111690             0.00799210686            0.000693429109           
       3.114330             0.00895993709            0.000749835301           
       3.116970             0.00733178149            0.000683501641           
       3.119611             0.00881624258            0.000797802375           
       3.122251              0.0143849221             0.00106598953           
       3.124891              0.0338137921             0.00164957751           
       3.127532              0.0255217213             0.00140200275           
       3.130172              0.0205400447             0.00127948389           
       3.132813             0.00781565842            0.000776993565           
       3.135453             0.00728973363            0.000744214768           
       3.138093             0.00674845881            0.000775868022           
       3.140734             0.00668295855            0.000712315759           
       3.143374             0.00729794154            0.000787202915           
       3.146014              0.0069867379            0.000829194017           
       3.148655             0.00720330119            0.000782667639           
       3.151295              0.0065621602            0.000796071666           
       3.153936             0.00566152169            0.000714264242           
       3.156576             0.00717726927             0.00079327562           
       3.159216             0.00564839606            0.000707251531           
       3.161857             0.00798557121            0.000837516226           
       3.164497             0.00620521482            0.000775715161           
       3.167138             0.00619132143            0.000800605302           
       3.169778             0.00746264673            0.000864472976           
       3.172418             0.00814835084            0.000894128095           
       3.175059             0.00647175591            0.000706440232           
       3.177699             0.00534161235            0.000679628675           
       3.180339             0.00704791075            0.000836423939           
       3.182980             0.00517644194             0.00074112214           
       3.185620              0.0054937838            0.000777561286           
       3.188261             0.00603120561            0.000829244732           
       3.190901             0.00500786363            0.000694956628           
       3.193541             0.00625139748            0.000815873937           
       3.196182             0.00623976238            0.000849466062           
       3.198822             0.00704419512            0.000902865869           
       3.201463             0.00524053461            0.000765328447           
       3.204103             0.00630357746            0.000834263486           
       3.206743             0.00663638739            0.000855923181           
       3.209384             0.00694542826            0.000946038672           
       3.212024              0.0049184365            0.000742223917           
       3.214664             0.00593863171            0.000927426475           
       3.217305             0.00547721394            0.000846642028           
       3.219945             0.00429577193            0.000771729101           
       3.222586              0.0053986785             0.00082403453           
       3.225226             0.00697301386             0.00103891083           
       3.227866              0.0056903384            0.000857785059           
       3.230507             0.00582851979            0.000899919433           
       3.233147             0.00707820589            0.000999721128           
       3.235787             0.00531329928            0.000886409168           
       3.238428             0.00671724637             0.00107552402           
       3.241068             0.00826792829             0.00111572591           
       3.243709             0.00626583399             0.00100349618           
       3.246349             0.00495440391            0.000813435426           
       3.248989             0.00503405819            0.000968176404           
       3.251630             0.00674121091             0.00107889287           
       3.254270             0.00495553624            0.000826723847           
       3.256911             0.00540822585            0.000942348342           
       3.259551             0.00438652073            0.000913680101           
       3.262191             0.00495096148            0.000991507454           
       3.264832             0.00732498832              0.0012601107           
       3.267472             0.00608122106             0.00107709311           
       3.270112             0.00557304878             0.00113950604           
       3.272753             0.00780549111              0.0012343693           
       3.275393             0.00590556658             0.00109552995           
       3.278034             0.00569531485             0.00107645723           
       3.280674             0.00502241986             0.00109693206           
       3.283314             0.00767069924             0.00121241225           
       3.285955             0.00509892337             0.00101990417           
       3.288595             0.00582268635             0.00121254107           
       3.291235             0.00581193467              0.0012453305           
       3.293876             0.00630507601               0.001315727           
       3.296516             0.00481159136             0.00110343402           
       3.299157             0.00542568672             0.00115701186           
       3.301797              0.0050929067             0.00127867146           
       3.304437              0.0062331083             0.00122556776           
       3.307078             0.00436973018             0.00113037122           
       3.309718             0.00528469766             0.00128309601           
       3.312359             0.00625098707             0.00139581074           
       3.314999             0.00482668973              0.0012076157           
       3.317639             0.00778792787             0.00146704756           
       3.320280              0.0074747754             0.00152809332           
       3.322920             0.00481358292             0.00124690624           
       3.325560             0.00707485636             0.00151270183           
       3.328201             0.00546738095             0.00119763927           
       3.330841             0.00463569997             0.00134216808           
       3.333482             0.00588585722             0.00142952386           
       3.336122             0.00625056269             0.00147382424           
       3.338762             0.00463480485             0.00146602738           
       3.341403             0.00337286123             0.00119501806           
       3.344043             0.00697087135               0.001649405           
       3.346683             0.00405889123             0.00128492726           
       3.349324             0.00514940874              0.0016272225           
       3.351964             0.00571444315             0.00181267638           
       3.354605             0.00754619365             0.00238227285           
       3.357245             0.00301281666             0.00135791204           
       3.359885             0.00510635591             0.00141490213           
       3.362526             0.00426429174             0.00161693494           
       3.365166             0.00649176051              0.0018817034           
       3.367807             0.00356244306              0.0017839591           
       3.370447             0.00366795707             0.00150157377           
       3.373087             0.00556928959             0.00197861687           
       3.375728             0.00265826728             0.00154276707           
       3.378368             0.00987346476             0.00441271344           
       3.381008             0.00650904975             0.00267120899           
       3.383649              0.0063666463              0.0021192827           
       3.386289             0.00685623705             0.00260289701           
       3.388930             0.00991655733             0.00495151217           
       3.391570              0.0110113174             0.00369096151           
       3.394210             0.00597623247             0.00344114985           
       3.396851             0.00485799674              0.0034705016           
       3.399491              0.0123221406             0.00552877366           
       3.402131             0.00490362847             0.00493447552           
       3.404772           -2.65405804e-05                         0           
       3.407412                       nan                       nan           
       3.410053             -2.660595e-05                         0           
       3.412693                       nan                       nan           
       3.415333              0.0090320878             0.00949390363           
