################################################################################
# EDF_DataBlockID                     0.Image.Psd
# EDF_BinarySize                      2105344
# EDF_HeaderSize                      2560
# ByteOrder                           LowByteFirst
# DataType                            FloatValue
# Dim_1                               512
# Dim_2                               1028
# Image                               0
# HeaderID                            EH:000000:000000:000000
# Size                                2105344
# Center_1                            304.9000
# Center_2                            588.7000
# Comment                             Xenocs_Cell_Window - 20251028_20perc_iodine_1.23mg
# DDummy                              0.6
# Date                                2025-10-30T21:21:54
# Delta                               21.910000
# Dummy                               -1.5
# ExposureTime                        360
# Gamma                               15.360000
# Intensity1                          8.56069e-10
# PSize_1                             7.5e-05
# PSize_2                             7.5e-05
# Pressure                            0.032793
# SampleDistance                      0.115750
# SampleEnvKind                       large
# SampleEnvPN                         ElectroChemical cell
# SampleEnvSN                         1141
# Thickness                           0
# Wavelength                          1.541891e-10
# Wavelength                          1.54189e-10
# aux                                 0
# aux_dial                            0.002375
# beamx                               588.434
# beamx_dial                          588.434
# beamz                               657.808
# beamz_dial                          657.808
# det0x                               0
# det0x_dial                          6.36945
# det0xvd                             0
# det0xvd_dial                        0
# det0y                               450.002
# det0y_dial                          481.635
# det0z                               0
# det0z_dial                          1.23302
# det0zvd                             0
# det0zvd_dial                        0
# mag                                 1.818
# mag_dial                            1.818
# om                                  0.2499
# om_dial                             -0.610199
# phi                                 -0.0120535
# phi_dial                            0
# ry                                  0.599993
# ry_dial                             0.599993
# s1bot                               0.8
# s1bot_dial                          -1.66094
# s1hl                                0.8
# s1hl_dial                           -0.608437
# s1hr                                0.8
# s1hr_dial                           0.970938
# s1top                               0.8
# s1top_dial                          -0.461562
# s2bot                               0.45
# s2bot_dial                          1.36109
# s2hl                                0.45
# s2hl_dial                           -0.83375
# s2hr                                0.45
# s2hr_dial                           -0.118594
# s2top                               0.45
# s2top_dial                          1.44734
# w2theta                             32
# w2theta_dial                        32
# waxsch                              19.2605
# waxsch_dial                         -32.7355
# waxsh                               137.085
# waxsh_dial                          -43.5338
# waxsth                              26.0607
# waxsth_dial                         -19.4086
# waxsz                               67.0407
# waxsz_dial                          -23.7954
# wind                                65.9854
# wind_dial                           66.0041
# wpsi                                124
# wpsi_dial                           124
# wstod                               115
# wstod_dial                          115
# x                                   0
# x_dial                              1.00969
# z                                   0
# z_dial                              13.3172
# CountCutoff                         6807993
# DetectorModel                       Dectris EIGER2 Si 500K, S/N E-01-0554
# ThresholdSetting                    4023.88989258
# Saturation                          0
# FlatField                           Corrected
# BackgroundReductionExtra            0.02
# BackgroundCorrectionConstant        0.0026712
# Detector                            0
# Monitor                             0
# Pil_Roi0                            0
# SumForIntensity1                    3.08185e+08
# TransmittedFlux                     856069
# det                                 0
# mon                                 0
# pilai0                              3.08185e+08
# pilai1                              774786
# pilct0                              5.32743e+08
# pilct1                              774786
# pilroi0                             0
# pilroi1                             0
# sec                                 1
# title                               20251028_20perc_iodine_1.23mg_1_00500.edf
# usaxs0                              0
# Operation                           Azimuthal average I(q)
# Error_model                         ErrorModel.poisson
# Geometrical_correction              True
# Transmission_correction             True
# Thickness_correction                False
# Binning mode                        Uniform
# Binning factor                      1.0
# Psi                                 0.0
# Omega                               0.2499
# MaskInvalidPixels                   True
# DetectorEdge                        3
# MaskFiles                           ['WAXS_corrected.edf']
################################################################################
    q(A⁻¹)                Intensity(a.u.)            Sigma_I(a.u.)            
       0.693100              0.0124038276             0.00742057475           
       0.695741             0.00842370368             0.00499021139           
       0.698381              0.0127466037             0.00751930153           
       0.701021           -2.36794334e-05                         0           
       0.703662             0.00566668596             0.00409106594           
       0.706302             0.00854134622             0.00388859062           
       0.708942              0.0142199244             0.00647587951           
       0.711583             0.00441632639             0.00312511851           
       0.714223             0.00876823347              0.0050838401           
       0.716864              0.0100859245             0.00356750402           
       0.719504             0.00144322075             0.00145626647           
       0.722144             0.00754873826             0.00308431319           
       0.724785             0.00551581872             0.00210308915           
       0.727425             0.00442851349             0.00254930457           
       0.730065             0.00363259141             0.00163321076           
       0.732706             0.00669862316             0.00186241076           
       0.735346             0.00346440604              0.0017459074           
       0.737987             0.00521718395             0.00151398634           
       0.740627              0.0106909896             0.00323369696           
       0.743267             0.00826725394             0.00190464116           
       0.745908             0.00571422045              0.0017179865           
       0.748548             0.00748257473             0.00181209605           
       0.751189             0.00718922768             0.00239338922           
       0.753829             0.00608028497             0.00202329535           
       0.756469             0.00872050993             0.00195389673           
       0.759110             0.00680322153             0.00181868928           
       0.761750              0.0071590823             0.00164964517           
       0.764390             0.00704252745             0.00171250403           
       0.767031             0.00341850579              0.0010332006           
       0.769671             0.00633030266             0.00175385372           
       0.772312             0.00591590638             0.00129075295           
       0.774952             0.00459760184             0.00153658955           
       0.777592             0.00567639959             0.00124361476           
       0.780233             0.00911796803             0.00190161324           
       0.782873             0.00868238796             0.00177474264           
       0.785513             0.00704331755             0.00170886675           
       0.788154             0.00610456056             0.00133085469           
       0.790794             0.00656876696              0.0016504577           
       0.793435                0.00500618             0.00129439229           
       0.796075              0.0080763777             0.00158375195           
       0.798715             0.00644486035             0.00167185401           
       0.801356             0.00541932844              0.0013194722           
       0.803996             0.00597677146             0.00141271173           
       0.806637             0.00693991377             0.00121146113           
       0.809277             0.00619758187             0.00123915295           
       0.811917              0.0073817525             0.00126424478           
       0.814558             0.00863990326             0.00142152901           
       0.817198             0.00738108336             0.00124826381           
       0.819838             0.00776545776             0.00129581221           
       0.822479             0.00808075412              0.0015522211           
       0.825119             0.00818451504             0.00132959029           
       0.827760              0.0051066146             0.00106385083           
       0.830400             0.00447818069            0.000937648808           
       0.833040              0.0068742184             0.00121712371           
       0.835681             0.00919962996             0.00160067561           
       0.838321             0.00725925228             0.00119343237           
       0.840961             0.00604540554             0.00118661703           
       0.843602             0.00914287791             0.00133822149           
       0.846242             0.00681420383             0.00115512589           
       0.848883             0.00491066925             0.00100350346           
       0.851523             0.00578145392             0.00107532201           
       0.854163             0.00900557454             0.00142723303           
       0.856804             0.00637697089             0.00107987212           
       0.859444             0.00928859649             0.00127696973           
       0.862085             0.00686440184             0.00114413939           
       0.864725             0.00923262102             0.00135795114           
       0.867365             0.00838156145             0.00119977554           
       0.870006              0.0076183522             0.00108999861           
       0.872646             0.00739954429             0.00112648046           
       0.875286             0.00633836107             0.00100302711           
       0.877927             0.00884431539             0.00114330637           
       0.880567              0.0060552014            0.000980083507           
       0.883208             0.00871188852             0.00116451236           
       0.885848             0.00718704682             0.00109821259           
       0.888488             0.00938877856             0.00117730772           
       0.891129             0.00868604265             0.00116272927           
       0.893769             0.00769063948             0.00104706247           
       0.896410             0.00827051493             0.00101236426           
       0.899050             0.00689045899             0.00101620176           
       0.901690             0.00657050677             0.00108093367           
       0.904331             0.00923577388             0.00113616647           
       0.906971             0.00503338364            0.000892297604           
       0.909611             0.00708754953             0.00096387758           
       0.912252              0.0071096905            0.000997138163           
       0.914892              0.0071895824             0.00109576463           
       0.917533             0.00757527352             0.00106403046           
       0.920173             0.00616003373            0.000890230368           
       0.922813             0.00920508512              0.0011419855           
       0.925454             0.00724089803            0.000912038829           
       0.928094             0.00665176392            0.000933227896           
       0.930734             0.00603787344             0.00095723804           
       0.933375             0.00817478536             0.00110287328           
       0.936015             0.00686198826            0.000917699619           
       0.938656             0.00692968701            0.000989319228           
       0.941296             0.00697569725            0.000899567228           
       0.943936              0.0072332857            0.000898305112           
       0.946577             0.00880476711            0.000984542059           
       0.949217             0.00994495778            0.000962213347           
       0.951858             0.00814686407            0.000911651874           
       0.954498             0.00805943696             0.00104954368           
       0.957138              0.0069738245            0.000924911448           
       0.959779              0.0081093973            0.000983207796           
       0.962419             0.00739189322            0.000932460477           
       0.965059             0.00790211769             0.00101398621           
       0.967700             0.00763777206             0.00102100474           
       0.970340             0.00894203257            0.000977591094           
       0.972981             0.00751928865            0.000816754633           
       0.975621             0.00662418797             0.00081553169           
       0.978261             0.00633386353            0.000757727167           
       0.980902             0.00841721586             0.00104509877           
       0.983542             0.00702575683            0.000845551741           
       0.986182             0.00924748194            0.000952413819           
       0.988823               0.007120797            0.000811518173           
       0.991463             0.00660376751            0.000833780599           
       0.994104             0.00659805404            0.000813013882           
       0.996744              0.0091809874            0.000978208629           
       0.999384             0.00775969061            0.000804283188           
       1.002025             0.00800374556            0.000911693857           
       1.004665             0.00885970108            0.000876595684           
       1.007306             0.00762933671            0.000809290638           
       1.009946             0.00884985722            0.000888934693           
       1.012586             0.00694543129            0.000766979984           
       1.015227             0.00879472121             0.00092720618           
       1.017867               0.007852112            0.000842002073           
       1.020507             0.00763653658            0.000804319682           
       1.023148             0.00719954442            0.000842685334           
       1.025788             0.00944208286            0.000884868672           
       1.028429             0.00655949537            0.000772684754           
       1.031069             0.00709844838            0.000756408163           
       1.033709             0.00926789196            0.000918754004           
       1.036350             0.00756035143            0.000745284695           
       1.038990             0.00732381238            0.000747012958           
       1.041630             0.00879438515            0.000853789457           
       1.044271             0.00725816688             0.00072946347           
       1.046911             0.00861245154            0.000835824992           
       1.049552             0.00734710497            0.000811070464           
       1.052192             0.00701823206            0.000723844697           
       1.054832             0.00637743861            0.000696285787           
       1.057473             0.00969452811            0.000846275243           
       1.060113             0.00877240083            0.000785114962           
       1.062754             0.00922837227            0.000822157107           
       1.065394             0.00750484468            0.000783870467           
       1.068034             0.00921273729            0.000790212214           
       1.070675             0.00804867303            0.000770454508           
       1.073315             0.00857610388            0.000806697519           
       1.075955             0.00795995067            0.000733701129           
       1.078596             0.00808749125            0.000786001029           
       1.081236             0.00988552874            0.000832117273           
       1.083877             0.00777198894            0.000731201709           
       1.086517             0.00805583454            0.000798251434           
       1.089157             0.00826939355            0.000839182209           
       1.091798             0.00868451465            0.000753965345           
       1.094438             0.00859088064            0.000747469491           
       1.097078             0.00771952577            0.000679572917           
       1.099719             0.00734041153             0.00071678494           
       1.102359             0.00792116017            0.000697326859           
       1.105000             0.00936047776            0.000847634263           
       1.107640             0.00934250964            0.000809697932           
       1.110280              0.0083968963            0.000700401746           
       1.112921              0.0075538693            0.000713615485           
       1.115561             0.00909656071            0.000744272561           
       1.118202             0.00769022194            0.000684970493           
       1.120842             0.00829167463            0.000747530546           
       1.123482             0.00913612045            0.000781245876           
       1.126123              0.0076622231            0.000686244225           
       1.128763             0.00871107501             0.00073672377           
       1.131403             0.00896735193            0.000720263216           
       1.134044             0.00790209121            0.000695739324           
       1.136684             0.00884163815            0.000784638729           
       1.139325             0.00898502281            0.000728645627           
       1.141965             0.00819458783            0.000700457758           
       1.144605              0.0110005967            0.000773835338           
       1.147246             0.00933149359            0.000729402353           
       1.149886             0.00911877471            0.000718481115           
       1.152527             0.00780146824            0.000674225723           
       1.155167             0.00927739165            0.000699326777           
       1.157807             0.00908856048            0.000742132963           
       1.160448             0.00971650705            0.000749329602           
       1.163088             0.00846865895            0.000667277538           
       1.165728             0.00846774073             0.00068506932           
       1.168369             0.00778049282            0.000662747567           
       1.171009             0.00790965605            0.000648495235           
       1.173650             0.00973042765            0.000738145929           
       1.176290             0.00952278291            0.000713596114           
       1.178930             0.00903152003            0.000681110194           
       1.181571              0.0083729325            0.000668811431           
       1.184211              0.0106353589            0.000756446238           
       1.186851              0.0102414214             0.00072574044           
       1.189492              0.0100576855            0.000714362479           
       1.192132             0.00871889308            0.000657657763           
       1.194773              0.0100656648            0.000709714893           
       1.197413             0.00813912123            0.000611478417           
       1.200053              0.0098518172            0.000689838531           
       1.202694             0.00877813745            0.000619219819           
       1.205334             0.00916635467            0.000681921899           
       1.207975              0.0101507392            0.000684973718           
       1.210615             0.00915576575            0.000717653516           
       1.213255             0.00968752986            0.000661041057           
       1.215896              0.0097622133            0.000675607702           
       1.218536              0.0101822926             0.00066345558           
       1.221176              0.0104130401            0.000729439611           
       1.223817              0.0101567669            0.000676258885           
       1.226457             0.00977514212            0.000676798259           
       1.229098               0.010021966            0.000685256236           
       1.231738               0.010213726            0.000695185706           
       1.234378              0.0105871025            0.000665064162           
       1.237019              0.0110906001            0.000701449672           
       1.239659             0.00963126249            0.000647978932           
       1.242299              0.0103089417            0.000661870764           
       1.244940             0.00915342665            0.000606562582           
       1.247580             0.00950641418            0.000637051562           
       1.250221             0.00923220235            0.000623922748           
       1.252861             0.00919325552            0.000592723259           
       1.255501              0.0103015602            0.000681274588           
       1.258142              0.0106557061            0.000651090737           
       1.260782              0.0100017259            0.000644443126           
       1.263423              0.0103504293            0.000629939109           
       1.266063             0.00969335786            0.000624839154           
       1.268703              0.0102002406            0.000635649171           
       1.271344             0.00994172434             0.00064881036           
       1.273984              0.0102634898            0.000636682442           
       1.276624              0.0101179134            0.000620275066           
       1.279265              0.0103308391            0.000637176213           
       1.281905              0.0123204262            0.000698920569           
       1.284546              0.0120794275            0.000668930097           
       1.287186              0.0108728223            0.000622650996           
       1.289826              0.0100247626             0.00063011158           
       1.292467              0.0103059307            0.000624814946           
       1.295107              0.0112461651            0.000646211009           
       1.297747              0.0106029775            0.000600427103           
       1.300388              0.0102443574            0.000643376989           
       1.303028              0.0121196654            0.000668062681           
       1.305669              0.0110302742             0.00065250645           
       1.308309             0.00991147727            0.000612439045           
       1.310949             0.00996159612            0.000613368501           
       1.313590              0.0109810662            0.000623859793           
       1.316230              0.0111533952            0.000670948556           
       1.318871             0.00985708693            0.000617746034           
       1.321511              0.0106366663            0.000629815196           
       1.324151              0.0113962446            0.000632588517           
       1.326792             0.00969952799            0.000587208645           
       1.329432              0.0101331109            0.000595954278           
       1.332072               0.011247447            0.000618511092           
       1.334713              0.0114870552             0.00064512865           
       1.337353               0.011729686             0.00062519113           
       1.339994              0.0109517758            0.000633947222           
       1.342634              0.0111918772            0.000614543267           
       1.345274               0.011692836            0.000650072571           
       1.347915              0.0113624752            0.000623127177           
       1.350555              0.0107803306             0.00061758478           
       1.353195              0.0112009161            0.000632608659           
       1.355836              0.0112089425            0.000622967399           
       1.358476              0.0120142001             0.00062635069           
       1.361117              0.0106974894            0.000591843354           
       1.363757              0.0119481532            0.000644582916           
       1.366397              0.0110499803            0.000601123794           
       1.369038              0.0112036629            0.000611316565           
       1.371678              0.0113131625            0.000608880994           
       1.374319              0.0109739678            0.000594519914           
       1.376959              0.0111714203            0.000593812247           
       1.379599              0.0121109582            0.000662607417           
       1.382240              0.0110733744            0.000595477733           
       1.384880              0.0111700607            0.000633493895           
       1.387520              0.0111540622            0.000601217685           
       1.390161               0.010394967            0.000551239772           
       1.392801              0.0117939894             0.00061176788           
       1.395442              0.0121022979            0.000628176306           
       1.398082              0.0105421531             0.00054903479           
       1.400722              0.0112950743            0.000595284074           
       1.403363              0.0104190917            0.000601820372           
       1.406003             0.00997704087             0.00055114561           
       1.408644              0.0109084823            0.000603710364           
       1.411284              0.0114222716            0.000584967849           
       1.413924              0.0122430388            0.000603375028           
       1.416565              0.0122048594            0.000600067067           
       1.419205               0.011977891            0.000620117982           
       1.421845              0.0100224639            0.000566912865           
       1.424486              0.0129401013            0.000619191743           
       1.427126              0.0110176661            0.000593520642           
       1.429767              0.0125204467            0.000595298041           
       1.432407              0.0119963987            0.000609816141           
       1.435047              0.0109882392            0.000548125331           
       1.437688              0.0111557501            0.000560545161           
       1.440328              0.0107273838            0.000561007807           
       1.442968              0.0115043226            0.000593985341           
       1.445609              0.0105718399            0.000551340948           
       1.448249             0.00993625666            0.000548044098           
       1.450890              0.0109754208            0.000572230207           
       1.453530              0.0110018354            0.000599387865           
       1.456170              0.0108774153            0.000578421287           
       1.458811                0.01165301            0.000572478088           
       1.461451              0.0115550871            0.000571563111           
       1.464092              0.0110415437            0.000562370557           
       1.466732              0.0106157034            0.000546680943           
       1.469372              0.0110190908            0.000543935976           
       1.472013              0.0118101998            0.000607339773           
       1.474653              0.0102408496            0.000556825785           
       1.477293              0.0116315817            0.000605939247           
       1.479934              0.0110124849            0.000562594942           
       1.482574              0.0108289729            0.000539669195           
       1.485215              0.0114041526             0.00056413096           
       1.487855              0.0100203819            0.000535774652           
       1.490495              0.0103163417            0.000541627198           
       1.493136              0.0101955045            0.000531065353           
       1.495776              0.0112858681            0.000556197575           
       1.498416              0.0122681364            0.000598869638           
       1.501057              0.0116772159            0.000571392327           
       1.503697             0.00980130211            0.000511792908           
       1.506338              0.0106048854            0.000542088018           
       1.508978               0.010319911            0.000529495987           
       1.511618              0.0113250151            0.000590733648           
       1.514259              0.0107204838            0.000554894874           
       1.516899               0.010194138            0.000526853534           
       1.519540               0.011356927            0.000565057335           
       1.522180              0.0102543903            0.000541645846           
       1.524820             0.00963823316            0.000522174612           
       1.527461              0.0105044973            0.000547831829           
       1.530101              0.0118534147             0.00057612416           
       1.532741               0.010774675            0.000546095655           
       1.535382              0.0105177154            0.000548230593           
       1.538022              0.0111290879            0.000531260657           
       1.540663              0.0107829351            0.000562447141           
       1.543303              0.0102361497            0.000508828082           
       1.545943              0.0104331361            0.000543714307           
       1.548584               0.010891691            0.000565506619           
       1.551224               0.010640812            0.000516807407           
       1.553864              0.0108876705            0.000552401865           
       1.556505              0.0104505821            0.000522813336           
       1.559145              0.0105128769            0.000530792712           
       1.561786              0.0115946084            0.000557861704           
       1.564426              0.0110613775            0.000527934712           
       1.567066              0.0111510061            0.000555410836           
       1.569707              0.0101216997            0.000519651077           
       1.572347              0.0102775925            0.000540969968           
       1.574988              0.0107493198            0.000526597029           
       1.577628             0.00978409078            0.000523877538           
       1.580268             0.00997025119            0.000512387625           
       1.582909             0.00972899169             0.00053649919           
       1.585549             0.00981398749            0.000523194101           
       1.588189               0.010214451            0.000522112382           
       1.590830              0.0100655047            0.000517641191           
       1.593470             0.00966367947            0.000527286752           
       1.596111              0.0090431971            0.000497994594           
       1.598751             0.00962848477            0.000497910585           
       1.601391             0.00854614641            0.000479440936           
       1.604032             0.00985589419            0.000525633899           
       1.606672             0.00890347646            0.000485400701           
       1.609312             0.00964843243            0.000527473708           
       1.611953             0.00940990719            0.000509745738           
       1.614593             0.00852783343            0.000476007979           
       1.617234             0.00974337104            0.000527311394           
       1.619874              0.0099426683             0.00053057287           
       1.622514             0.00944441227            0.000510053621           
       1.625155             0.00955369076            0.000516026496           
       1.627795              0.0101972374             0.00052006084           
       1.630436             0.00921408116            0.000491773611           
       1.633076             0.00994203626            0.000517530313           
       1.635716             0.00880377127            0.000479426597           
       1.638357             0.00877386671            0.000479873195           
       1.640997                0.01009125            0.000530229392           
       1.643637             0.00896431155              0.0004863097           
       1.646278             0.00936750834            0.000512745781           
       1.648918             0.00935877155              0.0005139047           
       1.651559             0.00922653273            0.000514221444           
       1.654199             0.00992038558            0.000518589873           
       1.656839             0.00946914054            0.000506835011           
       1.659480             0.00835629177            0.000494001129           
       1.662120              0.0089084139            0.000480392572           
       1.664761             0.00861365651            0.000490679041           
       1.667401             0.00857369605            0.000467894982           
       1.670041              0.0103461384            0.000521825767           
       1.672682             0.00932630649             0.00049340383           
       1.675322             0.00851034314            0.000468294945           
       1.677962             0.00904732784            0.000477516796           
       1.680603             0.00831882406            0.000459297243           
       1.683243             0.00891770105            0.000496139896           
       1.685884             0.00974266529            0.000522410519           
       1.688524             0.00930103472            0.000500566156           
       1.691164             0.00902441682             0.00049317833           
       1.693805             0.00840567613            0.000481200003           
       1.696445              0.0084924219            0.000486482269           
       1.699085             0.00823206451            0.000462917745           
       1.701726             0.00816611714            0.000444150623           
       1.704366             0.00865024784            0.000481570623           
       1.707007             0.00834362294            0.000462415756           
       1.709647              0.0088872713             0.00048263248           
       1.712287             0.00818704151            0.000467261147           
       1.714928             0.00872012531            0.000486121732           
       1.717568             0.00848642094            0.000451750551           
       1.720209             0.00963430004            0.000504163921           
       1.722849             0.00859761897            0.000473818775           
       1.725489             0.00856934509            0.000473436247           
       1.728130             0.00853620395            0.000502156214           
       1.730770             0.00833149995            0.000471160391           
       1.733410             0.00910806665            0.000484885686           
       1.736051             0.00819100191            0.000463027935           
       1.738691             0.00833801773            0.000457694737           
       1.741332             0.00742259313            0.000444466745           
       1.743972             0.00843292089            0.000489228718           
       1.746612             0.00842201055            0.000469480293           
       1.749253             0.00846123934            0.000479865462           
       1.751893             0.00830720775            0.000471987484           
       1.754533             0.00889014658            0.000487811055           
       1.757174             0.00909159583            0.000488687387           
       1.759814             0.00847709832            0.000464730541           
       1.762455             0.00873347925            0.000480367354           
       1.765095             0.00801737481            0.000440287247           
       1.767735             0.00768290037            0.000444301809           
       1.770376             0.00831060149            0.000463313679           
       1.773016             0.00873456925            0.000471803145           
       1.775657             0.00913297345            0.000475501494           
       1.778297             0.00911225677            0.000470872053           
       1.780937             0.00830261997            0.000474411938           
       1.783578             0.00832001695             0.00046303398           
       1.786218             0.00944875635            0.000514963049           
       1.788858             0.00771465798            0.000441937003           
       1.791499             0.00820168226            0.000450555579           
       1.794139             0.00910582654            0.000470889174           
       1.796780             0.00896897211            0.000465084215           
       1.799420             0.00914803605            0.000467102828           
       1.802060              0.0089187655            0.000464937708           
       1.804701             0.00917029488            0.000452423215           
       1.807341             0.00927794818            0.000478180685           
       1.809981             0.00943393426            0.000483791271           
       1.812622             0.00983493293            0.000485073289           
       1.815262             0.00892543638            0.000471916525           
       1.817903              0.0091899334            0.000471762703           
       1.820543             0.00868076739             0.00046565212           
       1.823183             0.00918571523            0.000478740529           
       1.825824             0.00896828345            0.000451923778           
       1.828464               0.008930959            0.000470168632           
       1.831105             0.00904445067            0.000460065083           
       1.833745             0.00922888043            0.000474657385           
       1.836385             0.00951166016            0.000495626392           
       1.839026             0.00862044058            0.000470345171           
       1.841666             0.00844790701            0.000463963489           
       1.844306              0.0091127243            0.000468725687           
       1.846947             0.00865330193            0.000460761188           
       1.849587             0.00789182288            0.000485890102           
       1.852228             0.00937108385            0.000478775331           
       1.854868              0.0080259717            0.000468052281           
       1.857508             0.00829110901            0.000471054683           
       1.860149             0.00807253081            0.000473248837           
       1.862789             0.00884455528            0.000478138902           
       1.865429             0.00849219091            0.000489060741           
       1.868070             0.00854608151            0.000484071081           
       1.870710             0.00938113203            0.000495477054           
       1.873351             0.00795878015            0.000462013997           
       1.875991             0.00908509931            0.000501680568           
       1.878631             0.00816185717            0.000466400013           
       1.881272             0.00848455025            0.000472344415           
       1.883912             0.00826786528            0.000485255469           
       1.886553             0.00787488869            0.000468288174           
       1.889193             0.00868148039            0.000490845908           
       1.891833             0.00794994061             0.00048781262           
       1.894474             0.00900425248            0.000514631171           
       1.897114             0.00903087206            0.000498733423           
       1.899754             0.00779414544            0.000465265889           
       1.902395             0.00821669046            0.000468371374           
       1.905035             0.00810075175            0.000492571445           
       1.907676             0.00820805893            0.000467314781           
       1.910316             0.00787438918            0.000469870903           
       1.912956              0.0077134308            0.000454812832           
       1.915597             0.00839613567            0.000477165564           
       1.918237             0.00873381658            0.000502608023           
       1.920878             0.00892538036            0.000506010179           
       1.923518             0.00813038246            0.000483154028           
       1.926158             0.00815742549            0.000477676829           
       1.928799             0.00873737581            0.000488643049           
       1.931439             0.00905731571            0.000510558187           
       1.934079             0.00840887688            0.000512838123           
       1.936720             0.00864907631            0.000481898095           
       1.939360             0.00845910032            0.000508440446           
       1.942001             0.00772023397            0.000445194696           
       1.944641             0.00867024402            0.000481085065           
       1.947281             0.00808922903            0.000460402962           
       1.949922             0.00860283181            0.000490420246           
       1.952562             0.00806522683            0.000489733933           
       1.955202              0.0087425776            0.000509262783           
       1.957843             0.00851919552            0.000489677747           
       1.960483             0.00854246355            0.000512656092           
       1.963124             0.00844334234            0.000499216988           
       1.965764             0.00873009181            0.000478703008           
       1.968404             0.00845316007            0.000466598573           
       1.971045             0.00795511791            0.000461494786           
       1.973685             0.00861555454            0.000503766968           
       1.976326             0.00799451673            0.000478601389           
       1.978966             0.00763517085            0.000471826038           
       1.981606             0.00887289711             0.00051924172           
       1.984247             0.00740431974            0.000471210259           
       1.986887             0.00809607884            0.000486828245           
       1.989527             0.00784800455            0.000474149803           
       1.992168             0.00857037951            0.000514114153           
       1.994808             0.00742668582            0.000476531286           
       1.997449              0.0074411298            0.000467198648           
       2.000089             0.00806494368            0.000484459581           
       2.002729             0.00844183161            0.000495947285           
       2.005370             0.00737521351            0.000458570673           
       2.008010             0.00872424892            0.000520517229           
       2.010650             0.00745865121             0.00048487505           
       2.013291             0.00800386016            0.000481913796           
       2.015931              0.0078610555            0.000474219229           
       2.018572             0.00896305629            0.000541609133           
       2.021212             0.00730634651            0.000480213376           
       2.023852             0.00790702278            0.000472813229           
       2.026493             0.00745371168            0.000479569807           
       2.029133             0.00731082569            0.000465393011           
       2.031774             0.00777552923            0.000503703384           
       2.034414             0.00729710326             0.00044899193           
       2.037054             0.00737574573             0.00046284652           
       2.039695             0.00840589195            0.000490380792           
       2.042335             0.00815463091            0.000501939073           
       2.044975              0.0070538746            0.000461172834           
       2.047616             0.00783612953             0.00048486462           
       2.050256             0.00695942188            0.000461261197           
       2.052897             0.00755936246            0.000489594452           
       2.055537             0.00719540057            0.000461642906           
       2.058177             0.00726991908            0.000454407783           
       2.060818             0.00722067662            0.000474412435           
       2.063458             0.00798246268            0.000519810063           
       2.066098             0.00915689224            0.000525189733           
       2.068739             0.00732557257            0.000477047585           
       2.071379             0.00790898852            0.000508607483           
       2.074020             0.00718962132            0.000474387003           
       2.076660             0.00781782851            0.000498677237           
       2.079300             0.00780006955            0.000510315226           
       2.081941             0.00781527083            0.000467706808           
       2.084581             0.00744654625            0.000481882744           
       2.087222             0.00831627833            0.000491120012           
       2.089862             0.00681170146            0.000484105094           
       2.092502             0.00682794876            0.000469830099           
       2.095143             0.00689147064            0.000487421442           
       2.097783             0.00730478718            0.000485851251           
       2.100423             0.00788878581            0.000486516788           
       2.103064             0.00852413494            0.000524761859           
       2.105704             0.00761211018            0.000493438598           
       2.108345              0.0079444705            0.000484301253           
       2.110985             0.00825030788            0.000527131379           
       2.113625              0.0079237722            0.000521102542           
       2.116266             0.00705616045            0.000498723392           
       2.118906             0.00685195613            0.000458007518           
       2.121546             0.00684686071            0.000449095668           
       2.124187              0.0073342356            0.000487901425           
       2.126827             0.00746493303            0.000497723122           
       2.129468              0.0080189243            0.000517178944           
       2.132108             0.00723134829            0.000477827664           
       2.134748             0.00713614218             0.00047283014           
       2.137389             0.00674364123            0.000479521802           
       2.140029             0.00755082051            0.000454263544           
       2.142670             0.00709077209            0.000470459389           
       2.145310             0.00751016641            0.000471253809           
       2.147950             0.00812618166            0.000504549443           
       2.150591               0.007891233            0.000492177284           
       2.153231             0.00683484053            0.000471491736           
       2.155871              0.0069166796            0.000458211247           
       2.158512             0.00783694513            0.000508924384           
       2.161152             0.00816237201            0.000503107147           
       2.163793             0.00756556916             0.00048218482           
       2.166433             0.00713012659            0.000480692386           
       2.169073             0.00788624703            0.000494283013           
       2.171714              0.0069849801            0.000461704736           
       2.174354             0.00790093753            0.000513096387           
       2.176995             0.00784382777            0.000509087467           
       2.179635             0.00743053801            0.000523596166           
       2.182275             0.00765409298            0.000501739374           
       2.184916             0.00743168077            0.000477522203           
       2.187556             0.00751011372            0.000475224119           
       2.190196             0.00665914276            0.000467622147           
       2.192837             0.00796575326            0.000508662785           
       2.195477             0.00790183288            0.000482999917           
       2.198118             0.00804769885            0.000499927439           
       2.200758             0.00742984202            0.000492813473           
       2.203398             0.00702194626            0.000482159823           
       2.206039             0.00722656432            0.000462924297           
       2.208679             0.00702710788            0.000467114955           
       2.211319             0.00684306627            0.000463615322           
       2.213960             0.00776257499            0.000500397921           
       2.216600             0.00765937203             0.00051419791           
       2.219241             0.00682374172            0.000463852751           
       2.221881             0.00680950335            0.000464321275           
       2.224521             0.00797646992            0.000508692888           
       2.227162             0.00798074401            0.000498641211           
       2.229802             0.00696843095            0.000480530182           
       2.232443             0.00743824251            0.000488633966           
       2.235083             0.00793520002            0.000519580236           
       2.237723             0.00720963123            0.000475270543           
       2.240364             0.00674768823            0.000471119824           
       2.243004             0.00777029829            0.000501524381           
       2.245644             0.00703916284            0.000482124433           
       2.248285             0.00611844863            0.000440484634           
       2.250925             0.00764954388            0.000495516429           
       2.253566             0.00616041408            0.000475394382           
       2.256206             0.00790846316            0.000527865649           
       2.258846             0.00746773776            0.000487953799           
       2.261487             0.00678679031             0.00048824434           
       2.264127             0.00663257672            0.000466150578           
       2.266767             0.00742995663            0.000506521128           
       2.269408             0.00830340923            0.000537659671           
       2.272048             0.00819811308              0.0005310508           
       2.274689             0.00731532468            0.000508254172           
       2.277329             0.00772247088            0.000491691091           
       2.279969             0.00703544398            0.000499553787           
       2.282610             0.00773494255             0.00050923117           
       2.285250             0.00756082983            0.000481886506           
       2.287891             0.00691890042            0.000494236168           
       2.290531             0.00743343361            0.000519170385           
       2.293171             0.00716472429            0.000496494216           
       2.295812             0.00726727873             0.00049802498           
       2.298452              0.0074254417            0.000526438566           
       2.301092             0.00728830471            0.000484588345           
       2.303733             0.00683268445            0.000488128964           
       2.306373             0.00817703727            0.000542404241           
       2.309014             0.00764025851            0.000514071211           
       2.311654             0.00712287613            0.000517975427           
       2.314294             0.00701340977            0.000473531504           
       2.316935             0.00720223877            0.000481846364           
       2.319575             0.00633526894            0.000473502978           
       2.322215             0.00764353135            0.000542032449           
       2.324856             0.00706122607            0.000478984066           
       2.327496             0.00753486163            0.000526114398           
       2.330137             0.00712727404            0.000489646058           
       2.332777             0.00721753579            0.000508064183           
       2.335417             0.00657007221            0.000470270624           
       2.338058             0.00700634384             0.00050014028           
       2.340698             0.00744243695            0.000511419575           
       2.343339             0.00723907845            0.000515483565           
       2.345979             0.00798481232            0.000512192468           
       2.348619             0.00755068242            0.000516280461           
       2.351260             0.00692830466            0.000491663955           
       2.353900             0.00770331415             0.00051679196           
       2.356540             0.00778307492            0.000518723137           
       2.359181             0.00789363541            0.000515070732           
       2.361821             0.00764620825            0.000489684713           
       2.364462             0.00798024667            0.000523216433           
       2.367102             0.00692400756            0.000500842784           
       2.369742             0.00695131189             0.00052821003           
       2.372383             0.00711025396             0.00048373007           
       2.375023             0.00730930784            0.000515573876           
       2.377663              0.0072507252             0.00049098485           
       2.380304             0.00752132541            0.000508400759           
       2.382944             0.00788825279            0.000495906686           
       2.385585             0.00787414954            0.000528420017           
       2.388225             0.00696622401            0.000494687127           
       2.390865             0.00674390002            0.000481729462           
       2.393506             0.00734591004            0.000493285897           
       2.396146             0.00669970123            0.000509363447           
       2.398787             0.00756649853            0.000498860876           
       2.401427              0.0069223931            0.000460565236           
       2.404067             0.00640567631            0.000452924963           
       2.406708             0.00675917763            0.000459675458           
       2.409348             0.00691929937            0.000493317163           
       2.411988             0.00668565724             0.00047511118           
       2.414629             0.00632628529            0.000476559174           
       2.417269             0.00630913477            0.000481469172           
       2.419910             0.00683557235              0.0005023167           
       2.422550             0.00733763487            0.000497922099           
       2.425190             0.00854600539            0.000566433031           
       2.427831             0.00701528164            0.000510318528           
       2.430471             0.00643713312            0.000465712694           
       2.433112             0.00681202781            0.000466511867           
       2.435752             0.00697735363            0.000499670446           
       2.438392             0.00682535837            0.000477002103           
       2.441033              0.0076518158             0.00053525819           
       2.443673             0.00678950448            0.000504584442           
       2.446313             0.00742559266              0.0005281571           
       2.448954             0.00742236958            0.000502770239           
       2.451594             0.00747580225             0.00054253784           
       2.454235             0.00738190429            0.000505832082           
       2.456875             0.00716498579            0.000521447157           
       2.459515             0.00833867381            0.000577099637           
       2.462156             0.00751475186            0.000517244276           
       2.464796             0.00830519479            0.000536752044           
       2.467436             0.00805126722            0.000546513358           
       2.470077             0.00766746242            0.000505498264           
       2.472717             0.00749231524            0.000501855941           
       2.475358             0.00769984422             0.00051406376           
       2.477998             0.00755322546            0.000500562419           
       2.480638             0.00716681234            0.000496254299           
       2.483279             0.00792611083            0.000545448651           
       2.485919             0.00652025714            0.000476772203           
       2.488560             0.00749377798            0.000509699012           
       2.491200             0.00761744576             0.00052916833           
       2.493840             0.00780832187            0.000566901274           
       2.496481             0.00703671132            0.000529359354           
       2.499121             0.00764067028            0.000536527985           
       2.501761             0.00704068297            0.000521855715           
       2.504402             0.00712556032            0.000517321746           
       2.507042             0.00598942174            0.000470776174           
       2.509683             0.00699820315            0.000501102437           
       2.512323             0.00596178718            0.000485750796           
       2.514963             0.00856177056            0.000574921013           
       2.517604             0.00648354451            0.000519140744           
       2.520244             0.00741555349            0.000520502447           
       2.522884             0.00766620298            0.000536794401           
       2.525525              0.0082668557            0.000563753903           
       2.528165             0.00822712353            0.000553631035           
       2.530806             0.00809634565            0.000558786081           
       2.533446             0.00767743281            0.000532523756           
       2.536086             0.00624638438            0.000476037018           
       2.538727             0.00673821683            0.000474323932           
       2.541367             0.00635323756            0.000465111596           
       2.544008             0.00755128001            0.000523681931           
       2.546648             0.00774046028            0.000539295562           
       2.549288             0.00652971284            0.000505417947           
       2.551929             0.00677605711            0.000506656543           
       2.554569             0.00684628191            0.000490644016           
       2.557209             0.00654976016            0.000484308483           
       2.559850             0.00676435487            0.000493758911           
       2.562490             0.00688059829            0.000514692571           
       2.565131             0.00787315529            0.000570851381           
       2.567771             0.00800359917            0.000554927162           
       2.570411             0.00753067123            0.000532458233           
       2.573052             0.00671394012            0.000509087713           
       2.575692             0.00735999406            0.000529791214           
       2.578332             0.00692044403            0.000515852117           
       2.580973             0.00713888317            0.000518945106           
       2.583613             0.00675221566             0.00049267823           
       2.586254             0.00598713759            0.000463282455           
       2.588894             0.00660336175            0.000505248832           
       2.591534             0.00723926441            0.000547632324           
       2.594175             0.00737072216            0.000542154652           
       2.596815             0.00589219155            0.000487595608           
       2.599456             0.00772008937            0.000529268617           
       2.602096             0.00625781952            0.000480141344           
       2.604736             0.00662991511            0.000505928849           
       2.607377             0.00720632384            0.000513563038           
       2.610017             0.00681138093            0.000490554398           
       2.612657             0.00647665855            0.000508796548           
       2.615298              0.0063959427            0.000493640423           
       2.617938             0.00740563117            0.000568223919           
       2.620579             0.00613742627            0.000496590341           
       2.623219             0.00773041952            0.000556528152           
       2.625859             0.00711310459            0.000519047109           
       2.628500              0.0066137869            0.000497217355           
       2.631140             0.00642939919            0.000497791049           
       2.633780             0.00685163562            0.000513430084           
       2.636421             0.00697854605            0.000530905936           
       2.639061             0.00668342116            0.000489104685           
       2.641702             0.00669748473            0.000500953995           
       2.644342             0.00725077328            0.000523456656           
       2.646982              0.0062656924             0.00047932654           
       2.649623             0.00675914061            0.000521719806           
       2.652263             0.00661526038            0.000510957658           
       2.654904             0.00645197615            0.000505119939           
       2.657544             0.00770964318            0.000520077846           
       2.660184             0.00678858798             0.00051647122           
       2.662825             0.00739485232            0.000551545842           
       2.665465             0.00724148405            0.000527874998           
       2.668105             0.00725169629            0.000556792675           
       2.670746             0.00652179387            0.000487785597           
       2.673386             0.00859064922            0.000576952702           
       2.676027              0.0094151741            0.000594312331           
       2.678667             0.00980478295            0.000591777055           
       2.681307              0.0113052706            0.000624363217           
       2.683948              0.0143524364            0.000722806225           
       2.686588              0.0118223656            0.000645132184           
       2.689229              0.0107729152            0.000601766792           
       2.691869                0.01001804            0.000613319971           
       2.694509             0.00884368601             0.00057656856           
       2.697150             0.00872197397            0.000563297618           
       2.699790             0.00735683177            0.000542356514           
       2.702430             0.00697507717            0.000504797548           
       2.705071             0.00731007965            0.000533992245           
       2.707711             0.00714327542            0.000512332218           
       2.710352             0.00631025614            0.000508800361           
       2.712992             0.00693330862            0.000543188995           
       2.715632             0.00692387061            0.000503628487           
       2.718273             0.00720087412            0.000532281456           
       2.720913             0.00699157601            0.000522996519           
       2.723553             0.00750726739            0.000545577399           
       2.726194             0.00684217541            0.000544459759           
       2.728834             0.00718624715            0.000558243235           
       2.731475             0.00749445241            0.000526141779           
       2.734115             0.00741086069            0.000539437023           
       2.736755             0.00706429454            0.000531007659           
       2.739396             0.00680541848            0.000518167596           
       2.742036             0.00626451061            0.000520297799           
       2.744677             0.00773088474            0.000560813104           
       2.747317             0.00728977488            0.000540695405           
       2.749957             0.00714935882            0.000539220416           
       2.752598             0.00847074209            0.000593309527           
       2.755238             0.00679506199             0.00054098768           
       2.757878             0.00723950134            0.000553517239           
       2.760519             0.00844825651            0.000591603669           
       2.763159              0.0081882325            0.000576607856           
       2.765800              0.0077430363            0.000534351351           
       2.768440              0.0082685657            0.000556255126           
       2.771080              0.0084023392            0.000565417304           
       2.773721             0.00704853452            0.000531226214           
       2.776361              0.0081909439            0.000580560691           
       2.779001             0.00837831831            0.000608067337           
       2.781642             0.00705025968            0.000553685838           
       2.784282             0.00631316853            0.000532559311           
       2.786923             0.00704132626            0.000567386057           
       2.789563             0.00664329828            0.000530789783           
       2.792203              0.0076107322            0.000542721606           
       2.794844             0.00830582555            0.000621383011           
       2.797484             0.00599213409            0.000498102213           
       2.800125             0.00709990638             0.00057011628           
       2.802765             0.00667146329            0.000543139435           
       2.805405             0.00640406386            0.000533944416           
       2.808046             0.00662498482            0.000552623087           
       2.810686             0.00650094436            0.000503020121           
       2.813326             0.00658547751            0.000525885191           
       2.815967             0.00684251777            0.000551291412           
       2.818607             0.00626961596            0.000503578158           
       2.821248             0.00775547075             0.00054845276           
       2.823888             0.00688796079            0.000536523112           
       2.826528               0.007478909            0.000541426732           
       2.829169              0.0065154712            0.000529327281           
       2.831809             0.00560589725            0.000497670003           
       2.834449             0.00570561045            0.000505249548           
       2.837090             0.00645957363            0.000519233398           
       2.839730             0.00566384922            0.000483827919           
       2.842371             0.00687664342            0.000533887409           
       2.845011             0.00694100448            0.000540655494           
       2.847651             0.00718427213            0.000550723867           
       2.850292             0.00714739541             0.00055469961           
       2.852932             0.00609964423            0.000523599565           
       2.855573             0.00739733788            0.000559331285           
       2.858213             0.00811763993            0.000615298326           
       2.860853             0.00725201082            0.000540991301           
       2.863494             0.00669240276            0.000538076069           
       2.866134             0.00840827118            0.000626871752           
       2.868774             0.00708748464            0.000565632504           
       2.871415               0.007131524            0.000576224992           
       2.874055             0.00787876806            0.000578937225           
       2.876696             0.00678047199             0.00055159875           
       2.879336             0.00714729473            0.000545826434           
       2.881976             0.00744718691            0.000574672019           
       2.884617             0.00751361245            0.000568751746           
       2.887257             0.00687008039            0.000546657272           
       2.889897             0.00729011978            0.000551531197           
       2.892538             0.00646407537            0.000568944344           
       2.895178             0.00645924702            0.000513811301           
       2.897819             0.00645486115            0.000523958652           
       2.900459             0.00620763565            0.000503831152           
       2.903099             0.00728318461            0.000540149729           
       2.905740             0.00644621116            0.000521313575           
       2.908380             0.00685619107            0.000543744648           
       2.911021             0.00717296477            0.000565206347           
       2.913661             0.00681547715            0.000550776856           
       2.916301              0.0072350875            0.000568019711           
       2.918942             0.00722245212            0.000542850183           
       2.921582             0.00742178274            0.000575762076           
       2.924222             0.00692093854            0.000538652901           
       2.926863             0.00842722904            0.000619122101           
       2.929503             0.00736258879            0.000585550309           
       2.932144              0.0066022691            0.000532278738           
       2.934784             0.00617512105            0.000506331598           
       2.937424             0.00747157516            0.000562670908           
       2.940065             0.00745181955            0.000536024824           
       2.942705             0.00676625713            0.000510132255           
       2.945346             0.00715669997            0.000556780356           
       2.947986             0.00626488538            0.000531174069           
       2.950626             0.00762139361            0.000582566293           
       2.953267             0.00654785301            0.000531255298           
       2.955907             0.00793510089            0.000606681307           
       2.958547             0.00739169812            0.000552779711           
       2.961188             0.00759981916             0.00058476607           
       2.963828             0.00778971175             0.00057911147           
       2.966469             0.00683379551            0.000532108182           
       2.969109             0.00721481335            0.000554841618           
       2.971749             0.00771757804              0.0005702683           
       2.974390             0.00733400848             0.00054628951           
       2.977030             0.00744487469            0.000562703607           
       2.979670             0.00860925062            0.000588585102           
       2.982311             0.00912089519            0.000627904428           
       2.984951             0.00743901397            0.000539328279           
       2.987592             0.00684404063             0.00052767241           
       2.990232             0.00788917407            0.000589186392           
       2.992872              0.0072841317            0.000533274332           
       2.995513             0.00866733132            0.000569101172           
       2.998153              0.0100328265            0.000622579064           
       3.000794              0.0124005667            0.000670423636           
       3.003434              0.0101739773            0.000608175848           
       3.006074               0.039773146             0.00118562858           
       3.008715               0.111974823             0.00192035841           
       3.011355               0.202405506             0.00248975034           
       3.013995               0.118100445             0.00190699876           
       3.016636              0.0696944013             0.00143453573           
       3.019276               0.133955319             0.00195495576           
       3.021917               0.483260906             0.00357041728           
       3.024557                 1.4795097             0.00614210208           
       3.027197                1.17877259             0.00534508117           
       3.029838               0.548866012             0.00369904367           
       3.032478               0.266864643             0.00258192228           
       3.035118              0.0710295288             0.00134991026           
       3.037759              0.0851994634             0.00147653303           
       3.040399               0.116150969             0.00177834456           
       3.043040               0.472128577             0.00362932266           
       3.045680               0.412387974             0.00319133642           
       3.048320              0.0963867327             0.00157643253           
       3.050961               0.107593108              0.0016949025           
       3.053601              0.0888748904             0.00148362107           
       3.056242              0.0624625073             0.00132240114           
       3.058882              0.0555017926             0.00133716973           
       3.061522              0.0393453282             0.00110459074           
       3.064163              0.0511263146              0.0012432931           
       3.066803                0.11310701              0.0019468639           
       3.069443               0.115474757             0.00205812806           
       3.072084              0.0463888842             0.00127021068           
       3.074724              0.0361980375             0.00125307102           
       3.077365              0.0844888521             0.00198173904           
       3.080005               0.015354866            0.000849618094           
       3.082645              0.0114841894            0.000771892156           
       3.085286              0.0152769907             0.00089730141           
       3.087926             0.00942616327            0.000699401855           
       3.090566              0.0111961055            0.000746849899           
       3.093207              0.0115954745            0.000790914202           
       3.095847             0.00826208105            0.000639904269           
       3.098488             0.00908149729            0.000743898233           
       3.101128             0.00919392314            0.000753302265           
       3.103768              0.0102122956             0.00077899034           
       3.106409              0.0107554121            0.000850815354           
       3.109049             0.00916534871            0.000753718839           
       3.111690             0.00826342159            0.000703387458           
       3.114330             0.00878571444            0.000740704838           
       3.116970             0.00842895926            0.000731080196           
       3.119611              0.0100270577            0.000848757361           
       3.122251               0.019053852             0.00122386584           
       3.124891              0.0356907995             0.00169062452           
       3.127532              0.0248922098             0.00138123905           
       3.130172               0.015785023             0.00111892242           
       3.132813             0.00903690785            0.000833465833           
       3.135453             0.00731105747            0.000743491128           
       3.138093              0.0054897108             0.00069807731           
       3.140734             0.00664419059            0.000708520544           
       3.143374             0.00777208758            0.000810398416           
       3.146014             0.00674804737            0.000812926409           
       3.148655             0.00608178655            0.000717414937           
       3.151295             0.00585783806            0.000750309889           
       3.153936             0.00493379517            0.000665159986           
       3.156576             0.00636213306            0.000745056312           
       3.159216             0.00659656775            0.000762453877           
       3.161857             0.00662810687            0.000761163974           
       3.164497             0.00685641576            0.000813421559           
       3.167138             0.00906077656            0.000966168188           
       3.169778              0.0054649573            0.000737974922           
       3.172418              0.0079102554            0.000878826961           
       3.175059             0.00604606041             0.00068115169           
       3.177699             0.00619276024            0.000729996674           
       3.180339             0.00660866377            0.000807972021           
       3.182980             0.00642750835            0.000823832036           
       3.185620             0.00668032084            0.000855343866           
       3.188261             0.00522055094            0.000769630128           
       3.190901             0.00518024775             0.00070509877           
       3.193541             0.00646231649            0.000827507336           
       3.196182             0.00609383718             0.00083743415           
       3.198822             0.00470649797            0.000736206627           
       3.201463             0.00699007655            0.000881747552           
       3.204103             0.00659713537            0.000851394076           
       3.206743             0.00737784618            0.000900278668           
       3.209384             0.00410274108            0.000725336725           
       3.212024             0.00590188693            0.000811073272           
       3.214664             0.00575898113            0.000911071284           
       3.217305             0.00559579543            0.000853678066           
       3.219945             0.00633799418            0.000935111557           
       3.222586             0.00512164467            0.000800662776           
       3.225226             0.00632249031            0.000986859514           
       3.227866             0.00461067556            0.000770255751           
       3.230507             0.00593455997            0.000905861895           
       3.233147             0.00448799695            0.000794121198           
       3.235787              0.0060158351            0.000940899632           
       3.238428             0.00700862759             0.00109593351           
       3.241068             0.00598260748            0.000946776912           
       3.243709              0.0051124273            0.000904238706           
       3.246349             0.00546565283            0.000852298328           
       3.248989             0.00704251347             0.00114235861           
       3.251630             0.00603535429             0.00101836622           
       3.254270             0.00699305182             0.00097969693           
       3.256911             0.00408646979            0.000817149359           
       3.259551             0.00661302677             0.00111912205           
       3.262191             0.00375002247            0.000860818084           
       3.264832             0.00581626454             0.00112013546           
       3.267472             0.00491109087            0.000965584027           
       3.270112             0.00391758004            0.000953064706           
       3.272753             0.00718553528             0.00118145666           
       3.275393             0.00504607747             0.00101021466           
       3.278034             0.00442330117            0.000946355704           
       3.280674             0.00452162672             0.00103827839           
       3.283314             0.00686673749             0.00114433004           
       3.285955             0.00630292494             0.00113118706           
       3.288595             0.00605670872             0.00123366244           
       3.291235             0.00663762196             0.00132761991           
       3.293876              0.0057113726             0.00124920613           
       3.296516             0.00453696374              0.0010688774           
       3.299157             0.00636738584             0.00125035771           
       3.301797             0.00863094366             0.00166053674           
       3.304437             0.00622639721             0.00122193088           
       3.307078             0.00461694909             0.00115908306           
       3.309718             0.00523102693             0.00127346143           
       3.312359             0.00651985826             0.00142204896           
       3.314999             0.00721073375             0.00147243803           
       3.317639             0.00384906787              0.0010288552           
       3.320280              0.0077512584             0.00155231605           
       3.322920             0.00514061664             0.00128543587           
       3.325560             0.00538976065             0.00131711136           
       3.328201             0.00599292016              0.0012508316           
       3.330841             0.00617302696             0.00154504656           
       3.333482             0.00517473038             0.00133713005           
       3.336122             0.00413267853             0.00119548791           
       3.338762             0.00458176502             0.00145407229           
       3.341403             0.00505064455             0.00145878695           
       3.344043             0.00582295401             0.00150382981           
       3.346683             0.00526023844             0.00145922006           
       3.349324             0.00615377541              0.0017745258           
       3.351964              0.0096829382             0.00235385732           
       3.354605              0.0082754046             0.00248865895           
       3.357245             0.00722954921             0.00209837997           
       3.359885              0.0027171372             0.00102960319           
       3.362526             0.00842299357             0.00226696891           
       3.365166             0.00379151079             0.00143456196           
       3.367807             0.00534629503             0.00218012113           
       3.370447              0.0116553398             0.00267017827           
       3.373087             0.00626204083             0.00209296995           
       3.375728             0.00442420484             0.00198546341           
       3.378368             0.00773078536             0.00389516609           
       3.381008             0.00651871887             0.00266669554           
       3.383649             0.00345249496             0.00155683754           
       3.386289             0.00391267225             0.00196152589           
       3.388930              0.0024822305             0.00247127843           
       3.391570              0.0111943456             0.00371246587           
       3.394210             0.00397070144             0.00279812233           
       3.396851             0.00741308664             0.00427667665           
       3.399491             0.00245112076             0.00245986528           
       3.402131             0.00964085295             0.00690213082           
       3.404772           -2.64117325e-05                         0           
       3.407412                       nan                       nan           
       3.410053             0.00925187475             0.00957622376           
       3.412693                       nan                       nan           
       3.415333           -2.65273814e-05                         0           
