################################################################################
# EDF_DataBlockID                     0.Image.Psd
# EDF_BinarySize                      2105344
# EDF_HeaderSize                      2560
# ByteOrder                           LowByteFirst
# DataType                            FloatValue
# Dim_1                               512
# Dim_2                               1028
# Image                               0
# HeaderID                            EH:000000:000000:000000
# Size                                2105344
# Center_1                            304.9000
# Center_2                            588.7000
# Comment                             Xenocs_Cell_Window - 20251028_20perc_iodine_1.23mg
# DDummy                              0.6
# Date                                2025-11-03T08:42:13
# Delta                               21.910000
# Dummy                               -1.5
# ExposureTime                        360
# Gamma                               15.360000
# Intensity1                          8.81436e-10
# PSize_1                             7.5e-05
# PSize_2                             7.5e-05
# Pressure                            0.0330276
# SampleDistance                      0.115750
# SampleEnvKind                       large
# SampleEnvPN                         ElectroChemical cell
# SampleEnvSN                         1141
# Thickness                           0
# Wavelength                          1.541891e-10
# Wavelength                          1.54189e-10
# aux                                 0
# aux_dial                            0.002375
# beamx                               588.434
# beamx_dial                          588.434
# beamz                               657.808
# beamz_dial                          657.808
# det0x                               0
# det0x_dial                          6.36945
# det0xvd                             0
# det0xvd_dial                        0
# det0y                               450.002
# det0y_dial                          481.635
# det0z                               0
# det0z_dial                          1.23302
# det0zvd                             0
# det0zvd_dial                        0
# mag                                 1.818
# mag_dial                            1.818
# om                                  0.2499
# om_dial                             -0.610199
# phi                                 -0.0120535
# phi_dial                            0
# ry                                  0.599993
# ry_dial                             0.599993
# s1bot                               0.8
# s1bot_dial                          -1.66094
# s1hl                                0.8
# s1hl_dial                           -0.608437
# s1hr                                0.8
# s1hr_dial                           0.970938
# s1top                               0.8
# s1top_dial                          -0.461562
# s2bot                               0.45
# s2bot_dial                          1.36109
# s2hl                                0.45
# s2hl_dial                           -0.83375
# s2hr                                0.45
# s2hr_dial                           -0.118594
# s2top                               0.45
# s2top_dial                          1.44734
# w2theta                             32
# w2theta_dial                        32
# waxsch                              19.2605
# waxsch_dial                         -32.7355
# waxsh                               137.085
# waxsh_dial                          -43.5338
# waxsth                              26.0607
# waxsth_dial                         -19.4086
# waxsz                               67.0407
# waxsz_dial                          -23.7954
# wind                                65.9854
# wind_dial                           66.0041
# wpsi                                124
# wpsi_dial                           124
# wstod                               115
# wstod_dial                          115
# x                                   0
# x_dial                              1.00969
# z                                   0
# z_dial                              13.3172
# CountCutoff                         6807993
# DetectorModel                       Dectris EIGER2 Si 500K, S/N E-01-0554
# ThresholdSetting                    4023.88989258
# Saturation                          0
# FlatField                           Corrected
# BackgroundReductionExtra            0.02
# BackgroundCorrectionConstant        0.0026712
# Detector                            0
# Monitor                             0
# Pil_Roi0                            0
# SumForIntensity1                    3.17317e+08
# TransmittedFlux                     881436
# det                                 0
# mon                                 0
# pilai0                              3.17317e+08
# pilai1                              796552
# pilct0                              5.48897e+08
# pilct1                              796552
# pilroi0                             0
# pilroi1                             0
# sec                                 1
# title                               20251028_20perc_iodine_1.23mg_1_01257.edf
# usaxs0                              0
# Operation                           Azimuthal average I(q)
# Error_model                         ErrorModel.poisson
# Geometrical_correction              True
# Transmission_correction             True
# Thickness_correction                False
# Binning mode                        Uniform
# Binning factor                      1.0
# Psi                                 0.0
# Omega                               0.2499
# MaskInvalidPixels                   True
# DetectorEdge                        3
# MaskFiles                           ['WAXS_corrected.edf']
################################################################################
    q(A⁻¹)                Intensity(a.u.)            Sigma_I(a.u.)            
       0.693100             0.00400262333             0.00415423478           
       0.695741             0.00535236064             0.00392011746           
       0.698381             0.00811725657             0.00591349031           
       0.701021              0.0257013775              0.0148754337           
       0.703662              0.0027122535             0.00278930522           
       0.706302             0.00671804753             0.00339867464           
       0.708942              0.0111470666             0.00565053289           
       0.711583             0.00643378692             0.00371730538           
       0.714223             0.00279411655             0.00282824535           
       0.716864             0.00243042109              0.0017258632           
       0.719504             0.00714557708             0.00319339114           
       0.722144             0.00609365225             0.00273098373           
       0.724785              0.0116651804             0.00301409831           
       0.727425             0.00283938504             0.00201170306           
       0.730065              0.0106615452             0.00275742066           
       0.732706             0.00801285805             0.00200740692           
       0.735346              0.0136505255             0.00341539147           
       0.737987             0.00596662236             0.00159561148           
       0.740627             0.00659774385             0.00250349705           
       0.743267             0.00721275817             0.00175324337           
       0.745908             0.00655031831               0.001812723           
       0.748548             0.00851200974              0.0019047182           
       0.751189             0.00700098663             0.00232761329           
       0.753829             0.00458118149             0.00173079272           
       0.756469             0.00719773285             0.00174939354           
       0.759110              0.0089859668             0.00205988321           
       0.761750             0.00700702503              0.0016083764           
       0.764390              0.0104837588             0.00205913506           
       0.767031              0.0060493918             0.00135450727           
       0.769671             0.00473028258             0.00149411376           
       0.772312             0.00597825775             0.00127872982           
       0.774952             0.00546736913             0.00165135478           
       0.777592             0.00550680807             0.00120714197           
       0.780233             0.00501128018             0.00138933346           
       0.782873             0.00522187131             0.00135640026           
       0.785513             0.00519283922              0.0014460423           
       0.788154             0.00559727131             0.00125588712           
       0.790794             0.00755912624             0.00174484665           
       0.793435             0.00940664575             0.00174859437           
       0.796075             0.00725293533              0.0014790905           
       0.798715             0.00754377048             0.00178256273           
       0.801356              0.0098948902             0.00175708185           
       0.803996             0.00707606145             0.00151486879           
       0.806637             0.00550522056             0.00106335628           
       0.809277              0.0079500953             0.00138311707           
       0.811917             0.00356213234            0.000865496759           
       0.814558             0.00700622331             0.00126154361           
       0.817198             0.00737173965              0.0012293918           
       0.819838             0.00840849192             0.00132885191           
       0.822479             0.00753073636             0.00147674446           
       0.825119             0.00669843364             0.00118540562           
       0.827760              0.0088464627             0.00137993304           
       0.830400             0.00606038611             0.00107497544           
       0.833040             0.00960669628             0.00141797666           
       0.835681             0.00840932673              0.0015081959           
       0.838321             0.00800919911             0.00123539377           
       0.840961             0.00744068327             0.00129736823           
       0.843602             0.00641786173             0.00110494512           
       0.846242             0.00777932176             0.00121633056           
       0.848883             0.00697126093             0.00117831985           
       0.851523             0.00698709858             0.00116500404           
       0.854163              0.0101197436             0.00149101813           
       0.856804             0.00746692015             0.00115158197           
       0.859444             0.00663288176             0.00106344657           
       0.862085             0.00610334782             0.00106321389           
       0.864725             0.00834693224             0.00127245982           
       0.867365             0.00765631344              0.0011300727           
       0.870006             0.00696014781             0.00102674748           
       0.872646             0.00599427174            0.000999190697           
       0.875286             0.00814731514             0.00112070274           
       0.877927             0.00931842477             0.00115654027           
       0.880567             0.00909517374             0.00118375896           
       0.883208             0.00816195214             0.00111082069           
       0.885848              0.0074364919             0.00110091612           
       0.888488             0.00787461122             0.00106257354           
       0.891129             0.00694572171             0.00102467304           
       0.893769             0.00759274336             0.00102529708           
       0.896410             0.00695059512            0.000914619633           
       0.899050             0.00597084678            0.000932250921           
       0.901690             0.00656052134             0.00106445616           
       0.904331             0.00732982103            0.000997495625           
       0.906971             0.00875089854             0.00115948471           
       0.909611              0.0073780253             0.00096917653           
       0.912252             0.00732064826            0.000997157486           
       0.914892             0.00792920166             0.00113406819           
       0.917533             0.00608702331            0.000939975161           
       0.920173             0.00886535403              0.0010524898           
       0.922813             0.00631213768            0.000931952781           
       0.925454             0.00578371148             0.00080330305           
       0.928094             0.00671338501            0.000923951275           
       0.930734             0.00752485834             0.00105313999           
       0.933375             0.00821540792             0.00108958469           
       0.936015             0.00763886715            0.000954221149           
       0.938656             0.00892061539             0.00110620608           
       0.941296             0.00675154551            0.000872168518           
       0.943936             0.00866297536            0.000968832267           
       0.946577             0.00671317714            0.000847224261           
       0.949217             0.00694318043            0.000792333693           
       0.951858             0.00821212781            0.000902029285           
       0.954498             0.00783311422             0.00101970463           
       0.957138             0.00799197937            0.000975777542           
       0.959779             0.00845910229            0.000989628413           
       0.962419             0.00683915725            0.000883919832           
       0.965059             0.00769255275            0.000985949193           
       0.967700             0.00648049734            0.000926845984           
       0.970340              0.0047785686            0.000704282696           
       0.972981             0.00746634434            0.000802077307           
       0.975621             0.00750370661            0.000855404308           
       0.978261             0.00782438298            0.000829970298           
       0.980902             0.00878065739             0.00105195125           
       0.983542             0.00860154743            0.000922021225           
       0.986182              0.0073515329            0.000836877493           
       0.988823             0.00773546521            0.000833558643           
       0.991463             0.00991788653             0.00100698838           
       0.994104             0.00895983182            0.000933681919           
       0.996744             0.00962391784            0.000987010427           
       0.999384              0.0074524888             0.00077677716           
       1.002025             0.00888347504            0.000946570201           
       1.004665              0.0087842631            0.000860203992           
       1.007306             0.00876298242            0.000854763736           
       1.009946             0.00901658911            0.000884263822           
       1.012586             0.00764266381            0.000792895206           
       1.015227             0.00778066891            0.000859473994           
       1.017867             0.00824772476            0.000850444528           
       1.020507             0.00633746913            0.000722100091           
       1.023148             0.00756208942            0.000851123977           
       1.025788             0.00893215748            0.000848168413           
       1.028429             0.00751516749            0.000815071023           
       1.031069             0.00830583948            0.000806353086           
       1.033709             0.00732212512            0.000804796965           
       1.036350             0.00690768848            0.000702063793           
       1.038990             0.00785204721            0.000762272012           
       1.041630             0.00749468084            0.000776754202           
       1.044271             0.00788429116            0.000749256284           
       1.046911             0.00852145723            0.000819347031           
       1.049552             0.00757043884            0.000811371941           
       1.052192             0.00893346303            0.000804823133           
       1.054832               0.008273243            0.000781558104           
       1.057473             0.00581366089            0.000645850708           
       1.060113             0.00868228717            0.000769750689           
       1.062754             0.00947716532            0.000821089473           
       1.065394             0.00652377219            0.000720247625           
       1.068034             0.00836948269            0.000742262801           
       1.070675             0.00688082301            0.000702043535           
       1.073315             0.00788380837            0.000762241742           
       1.075955             0.00840211316            0.000742877587           
       1.078596             0.00734281405             0.00073808514           
       1.081236             0.00665430043            0.000672813631           
       1.083877             0.00862360782            0.000759057372           
       1.086517             0.00967202386             0.00086198977           
       1.089157             0.00927328366            0.000875780363           
       1.091798             0.00964643354            0.000783106791           
       1.094438             0.00864506675            0.000738954668           
       1.097078             0.00935628101            0.000737312121           
       1.099719             0.00829481497            0.000750915402           
       1.102359             0.00799463841            0.000690399395           
       1.105000              0.0094695806            0.000840202291           
       1.107640             0.00878830138            0.000773931845           
       1.110280              0.0103726305              0.0007671694           
       1.112921             0.00753022756            0.000702170494           
       1.115561             0.00745903507            0.000664192114           
       1.118202             0.00872830029            0.000719161218           
       1.120842             0.00830873584            0.000737452899           
       1.123482             0.00843109345            0.000739618515           
       1.126123                 0.0096668            0.000759629228           
       1.128763             0.00956229778            0.000760692143           
       1.131403             0.00769505952            0.000657542931           
       1.134044             0.00844748505            0.000708921652           
       1.136684             0.00925730699            0.000791233558           
       1.139325             0.00797993767            0.000676730131           
       1.141965             0.00888327347            0.000718726904           
       1.144605             0.00854651777             0.00067219307           
       1.147246             0.00917958154            0.000712954828           
       1.149886             0.00924619425            0.000712996855           
       1.152527             0.00882642304            0.000706754379           
       1.155167              0.0099496843            0.000713724913           
       1.157807             0.00953686409            0.000749196882           
       1.160448             0.00921540749            0.000719174152           
       1.163088             0.00850997735            0.000659207864           
       1.165728             0.00843424053            0.000673802669           
       1.168369             0.00902909175            0.000703599651           
       1.171009             0.00964535435            0.000705742184           
       1.173650             0.00912849427            0.000704587334           
       1.176290             0.00938580837            0.000698176729           
       1.178930             0.00817885688            0.000638766678           
       1.181571              0.0101621715            0.000726134623           
       1.184211              0.0105954448            0.000744081631           
       1.186851              0.0100317177            0.000707860782           
       1.189492              0.0097573348            0.000693416555           
       1.192132              0.0080727037            0.000623645473           
       1.194773             0.00952864219            0.000680514196           
       1.197413             0.00924643069            0.000642300746           
       1.200053             0.00943697992            0.000665372404           
       1.202694             0.00924634158            0.000626307511           
       1.205334             0.00910956504            0.000669952671           
       1.207975             0.00954223436             0.00065449918           
       1.210615              0.0100986944            0.000742778099           
       1.213255             0.00971808041             0.00065248592           
       1.215896             0.00961503681            0.000660776995           
       1.218536             0.00873715168            0.000605665722           
       1.221176             0.00773331248            0.000619501477           
       1.223817             0.00930387748            0.000637861259           
       1.226457              0.0094992864            0.000657509718           
       1.229098               0.010708622            0.000698075381           
       1.231738             0.00876633325            0.000634712005           
       1.234378              0.0090462319            0.000605853803           
       1.237019             0.00903923685             0.00062408518           
       1.239659              0.0108415717            0.000677523546           
       1.242299              0.0096800848            0.000632069348           
       1.244940              0.0094749775            0.000608179601           
       1.247580              0.0100774286            0.000646398109           
       1.250221              0.0103838752            0.000652104032           
       1.252861             0.00920269341            0.000584431713           
       1.255501              0.0103276885            0.000672250674           
       1.258142             0.00988095212            0.000617886619           
       1.260782              0.0105208303            0.000651375055           
       1.263423              0.0114003483             0.00065153454           
       1.266063              0.0100829882            0.000628036284           
       1.268703              0.0106322474              0.0006395637           
       1.271344              0.0101875287            0.000647262331           
       1.273984              0.0106168311            0.000638163253           
       1.276624              0.0100387174            0.000608887351           
       1.279265              0.0113803597             0.00065906575           
       1.281905               0.010958761            0.000649612952           
       1.284546             0.00941856487            0.000582115175           
       1.287186              0.0103840872            0.000599676043           
       1.289826              0.0103928469            0.000632275962           
       1.292467              0.0114105668            0.000647918536           
       1.295107              0.0100580206            0.000602264657           
       1.297747              0.0105340904            0.000589798797           
       1.300388              0.0108080282            0.000651261479           
       1.303028              0.0109390386             0.00062549014           
       1.305669               0.010260197            0.000620195338           
       1.308309               0.010870896            0.000632099345           
       1.310949              0.0108792193            0.000631705799           
       1.313590              0.0107846329            0.000609293324           
       1.316230              0.0128738637            0.000710393735           
       1.318871              0.0103465208            0.000623723107           
       1.321511              0.0107275512            0.000623332338           
       1.324151              0.0107788828            0.000606298219           
       1.326792              0.0107382186            0.000608894784           
       1.329432               0.011035082            0.000612898162           
       1.332072              0.0111558671            0.000607059378           
       1.334713              0.0111547816            0.000626515043           
       1.337353              0.0104738894             0.00058221394           
       1.339994              0.0115285147            0.000640997748           
       1.342634              0.0127303113            0.000645921146           
       1.345274              0.0107513528            0.000614316899           
       1.347915               0.011609378            0.000620731361           
       1.350555              0.0113120077            0.000623461132           
       1.353195              0.0116435298            0.000635637751           
       1.355836              0.0122238768            0.000641130554           
       1.358476              0.0107759733             0.00058459807           
       1.361117              0.0108115865            0.000586367038           
       1.363757              0.0117377715            0.000629622469           
       1.366397              0.0109271231            0.000589108213           
       1.369038              0.0119808593            0.000623001546           
       1.371678              0.0117066197            0.000610400884           
       1.374319              0.0108769814            0.000583307755           
       1.376959              0.0113637594            0.000590221414           
       1.379599              0.0119283498            0.000648061494           
       1.382240              0.0107565989             0.00057839165           
       1.384880              0.0114763889            0.000632814306           
       1.387520              0.0116263868            0.000604918117           
       1.390161              0.0103467094            0.000541987294           
       1.392801              0.0109627829            0.000581267049           
       1.395442              0.0106337051            0.000580295136           
       1.398082              0.0117738495             0.00057181223           
       1.400722               0.011969033             0.00060390447           
       1.403363              0.0106233186             0.00059888171           
       1.406003              0.0115199753            0.000583646983           
       1.408644              0.0104402739             0.00058205149           
       1.411284              0.0127410864            0.000608860751           
       1.413924              0.0124715815            0.000600153684           
       1.416565              0.0111066449             0.00056413603           
       1.419205              0.0114686071            0.000597996275           
       1.421845              0.0118250776            0.000606862156           
       1.424486               0.012047093            0.000588784601           
       1.427126              0.0118820945            0.000607430393           
       1.429767              0.0112431151            0.000555938644           
       1.432407              0.0113410868            0.000584332174           
       1.435047              0.0106482962            0.000531759033           
       1.437688               0.010657927            0.000539953777           
       1.440328              0.0110221589              0.0005604209           
       1.442968               0.011931927            0.000596155409           
       1.445609              0.0113462018            0.000562897351           
       1.448249              0.0112473162            0.000574629014           
       1.450890              0.0110908077            0.000566892579           
       1.453530              0.0119060882            0.000614495796           
       1.456170              0.0110659394            0.000574955919           
       1.458811              0.0106305807            0.000538861674           
       1.461451              0.0110235046            0.000550169382           
       1.464092              0.0112121867            0.000558485409           
       1.466732              0.0112185885            0.000553844248           
       1.469372              0.0104767563            0.000522693762           
       1.472013              0.0112737543            0.000584785205           
       1.474653              0.0101744676            0.000546973371           
       1.477293              0.0111883674            0.000585668745           
       1.479934              0.0108579655            0.000550536835           
       1.482574             0.00983230997             0.00050678152           
       1.485215              0.0105115468            0.000533753495           
       1.487855              0.0104560302            0.000539364594           
       1.490495              0.0106124611            0.000541383051           
       1.493136              0.0111663011             0.00054771832           
       1.495776               0.011202032             0.00054609601           
       1.498416              0.0109881651            0.000558553245           
       1.501057              0.0105184044            0.000534439654           
       1.503697              0.0114135081            0.000544278205           
       1.506338              0.0108042096            0.000539227847           
       1.508978              0.0108367842            0.000534729201           
       1.511618             0.00975410314            0.000540287574           
       1.514259              0.0108757488            0.000550797674           
       1.516899               0.010904163             0.00053699446           
       1.519540              0.0108394383            0.000544032043           
       1.522180              0.0108867297            0.000550006989           
       1.524820              0.0106196452            0.000540170715           
       1.527461              0.0105907181            0.000542102388           
       1.530101              0.0104472355            0.000533032923           
       1.532741              0.0110766967            0.000545670856           
       1.535382              0.0102383048            0.000533059369           
       1.538022              0.0108436439            0.000516802357           
       1.540663             0.00951473885            0.000520679703           
       1.543303              0.0108446086            0.000516141396           
       1.545943              0.0114642198            0.000561687254           
       1.548584              0.0101397769            0.000537728716           
       1.551224             0.00998860275            0.000493460855           
       1.553864              0.0105797495            0.000536641601           
       1.556505              0.0102331916            0.000509848284           
       1.559145              0.0105679317            0.000524466982           
       1.561786              0.0105781842            0.000525125445           
       1.564426              0.0106377096            0.000510221401           
       1.567066              0.0113174866            0.000551431166           
       1.569707               0.011183303             0.00053830591           
       1.572347             0.00972771881            0.000518670989           
       1.574988              0.0103407012            0.000509004827           
       1.577628              0.0103617532            0.000531306532           
       1.580268             0.00995556921             0.00050458882           
       1.582909              0.0093308499              0.0005177913           
       1.585549              0.0104302549            0.000531552962           
       1.588189              0.0095451207            0.000497400462           
       1.590830             0.00978434189            0.000502962786           
       1.593470              0.0104469515            0.000540293054           
       1.596111              0.0104679063            0.000528022632           
       1.598751             0.00927426229            0.000481582909           
       1.601391             0.00969696713            0.000503299969           
       1.604032             0.00908736294            0.000497408588           
       1.606672             0.00905614051            0.000482448723           
       1.609312              0.0106322649              0.0005456879           
       1.611953               0.010483285            0.000530235282           
       1.614593             0.00887202653             0.00047848165           
       1.617234             0.00865313432            0.000489731738           
       1.619874             0.00896354729            0.000496469432           
       1.622514             0.00908123908            0.000492901245           
       1.625155             0.00844884748            0.000478238064           
       1.627795             0.00943927369            0.000493107002           
       1.630436             0.00899273006            0.000478788792           
       1.633076             0.00923717388            0.000491616752           
       1.635716              0.0104067213            0.000513693065           
       1.638357             0.00936480626            0.000488584142           
       1.640997             0.00930587652            0.000501798029           
       1.643637             0.00963573993            0.000496885118           
       1.646278             0.00985270126            0.000518234954           
       1.648918             0.00953899047            0.000511308917           
       1.651559             0.00876365761            0.000493892708           
       1.654199             0.00948938974            0.000499847922           
       1.656839             0.00894759839            0.000485538375           
       1.659480             0.00905091731            0.000506671453           
       1.662120             0.00957052399            0.000490707777           
       1.664761             0.00887760127            0.000490919795           
       1.667401             0.00883317026            0.000468038565           
       1.670041             0.00951861934            0.000493267328           
       1.672682             0.00882337455            0.000472959579           
       1.675322             0.00798330244            0.000446988365           
       1.677962             0.00849346542            0.000455963358           
       1.680603             0.00854481623            0.000458746987           
       1.683243             0.00841938292             0.00047509102           
       1.685884             0.00877074307            0.000488483849           
       1.688524             0.00914157432            0.000489063601           
       1.691164             0.00852545109            0.000472402394           
       1.693805              0.0091357845            0.000494391746           
       1.696445             0.00884962752             0.00048940987           
       1.699085             0.00822446933            0.000455997417           
       1.701726             0.00854136877            0.000447656817           
       1.704366             0.00899402945            0.000483929232           
       1.707007             0.00887696766            0.000470052753           
       1.709647             0.00801052227            0.000451566521           
       1.712287              0.0085200065            0.000469759024           
       1.714928             0.00942807854            0.000498143265           
       1.717568             0.00842762186            0.000443657595           
       1.720209              0.0092216413            0.000486099065           
       1.722849             0.00794736637            0.000448945661           
       1.725489             0.00950083888            0.000491278387           
       1.728130              0.0085399694             0.00049498678           
       1.730770             0.00858082276            0.000471227508           
       1.733410              0.0090280073            0.000475752641           
       1.736051             0.00938345889            0.000488403931           
       1.738691             0.00870986529            0.000461008809           
       1.741332             0.00849824745            0.000468689392           
       1.743972             0.00823767665            0.000476523467           
       1.746612              0.0089676688              0.0004774284           
       1.749253             0.00889567892             0.00048489873           
       1.751893             0.00883333199            0.000479649744           
       1.754533             0.00787301009            0.000452404145           
       1.757174             0.00878961191            0.000473538085           
       1.759814             0.00850635837            0.000458784182           
       1.762455             0.00774866604            0.000445915228           
       1.765095             0.00870416024            0.000452108263           
       1.767735             0.00800910493            0.000447060671           
       1.770376             0.00804795504            0.000449325077           
       1.773016             0.00857953567             0.00046081963           
       1.775657             0.00872525379            0.000458029885           
       1.778297             0.00878930411            0.000455749478           
       1.780937             0.00776967384            0.000452281075           
       1.783578             0.00853225776            0.000462106135           
       1.786218             0.00825618039            0.000474391963           
       1.788858             0.00888026205            0.000467276469           
       1.791499             0.00865801578            0.000456210295           
       1.794139             0.00910461146            0.000464032844           
       1.796780             0.00915962952            0.000463188972           
       1.799420              0.0084036248            0.000441205465           
       1.802060             0.00893488987            0.000458612611           
       1.804701             0.00958513163            0.000455838775           
       1.807341              0.0099596664            0.000488255841           
       1.809981             0.00833577235            0.000448170763           
       1.812622             0.00991209826            0.000479914036           
       1.815262             0.00889269396            0.000464222432           
       1.817903             0.00868710307            0.000452026506           
       1.820543             0.00901745868            0.000467717477           
       1.823183             0.00818750056             0.00044542888           
       1.825824             0.00909562666            0.000448524154           
       1.828464             0.00839302302            0.000449182475           
       1.831105             0.00780606778            0.000421214514           
       1.833745             0.00914378201            0.000465615745           
       1.836385             0.00796450352            0.000446955833           
       1.839026             0.00851828064            0.000460772895           
       1.841666             0.00860227753            0.000461397208           
       1.844306             0.00777788205            0.000426760592           
       1.846947             0.00844890531            0.000448687711           
       1.849587             0.00843614903            0.000495085836           
       1.852228             0.00821690856            0.000441824783           
       1.854868             0.00713591309            0.000434939973           
       1.857508             0.00851722126            0.000470514456           
       1.860149             0.00772167049            0.000456141226           
       1.862789              0.0085563832            0.000463468461           
       1.865429             0.00847483828            0.000481479311           
       1.868070             0.00756571147            0.000448858552           
       1.870710             0.00770835463            0.000442624816           
       1.873351             0.00926493941             0.00049126086           
       1.875991             0.00823100608            0.000470595635           
       1.878631             0.00888285036            0.000479511718           
       1.881272             0.00884994884            0.000475415946           
       1.883912             0.00790077311             0.00046748484           
       1.886553             0.00792303192            0.000462909053           
       1.889193             0.00798364342             0.00046388234           
       1.891833             0.00760191678            0.000470101501           
       1.894474             0.00839628879             0.00048975055           
       1.897114             0.00716581172            0.000437819719           
       1.899754             0.00777588231            0.000457984514           
       1.902395             0.00810573915            0.000458455499           
       1.905035             0.00812930353            0.000486286522           
       1.907676             0.00692003025             0.00042286552           
       1.910316             0.00838843088            0.000477935701           
       1.912956             0.00835202271            0.000466405584           
       1.915597             0.00868588963            0.000478294643           
       1.918237             0.00712870086            0.000447498488           
       1.920878              0.0082130703            0.000478363076           
       1.923518             0.00823978649            0.000479343772           
       1.926158             0.00725022555            0.000443805182           
       1.928799             0.00755409009            0.000447766183           
       1.931439             0.00861946933            0.000490845427           
       1.934079             0.00786460184            0.000488774645           
       1.936720             0.00754947364            0.000443698209           
       1.939360              0.0074457378            0.000470100665           
       1.942001             0.00749895867            0.000432408501           
       1.944641             0.00764127902             0.00044509041           
       1.947281             0.00873015841            0.000471362033           
       1.949922             0.00782906776            0.000461064509           
       1.952562             0.00723681119            0.000457177152           
       1.955202             0.00777358951            0.000473251486           
       1.957843             0.00759062426            0.000455521432           
       1.960483             0.00793881387            0.000487047544           
       1.963124             0.00808183942            0.000481333688           
       1.965764             0.00720715933            0.000428645042           
       1.968404             0.00729658829            0.000427221179           
       1.971045             0.00733088893            0.000436597055           
       1.973685             0.00752450659            0.000463965915           
       1.976326             0.00709045996            0.000444195388           
       1.978966             0.00801879417            0.000476525395           
       1.981606              0.0072011039            0.000460994123           
       1.984247             0.00833112088            0.000492586909           
       1.986887             0.00772374236            0.000468609712           
       1.989527             0.00785705229            0.000467546453           
       1.992168             0.00744933915            0.000472364661           
       1.994808             0.00775323463            0.000479837681           
       1.997449             0.00817717321            0.000482661578           
       2.000089             0.00802933686            0.000476382405           
       2.002729             0.00760378446            0.000463864425           
       2.005370              0.0071078812            0.000443657728           
       2.008010             0.00778096902            0.000484447725           
       2.010650              0.0076779545            0.000484821028           
       2.013291             0.00805928712            0.000476570242           
       2.015931              0.0071762746            0.000446526509           
       2.018572             0.00707366317            0.000474175487           
       2.021212             0.00890979928            0.000522609228           
       2.023852             0.00815428753            0.000473189532           
       2.026493             0.00739821933            0.000470856025           
       2.029133              0.0076473147            0.000469083457           
       2.031774             0.00707478636            0.000473506066           
       2.034414             0.00787010414            0.000459528575           
       2.037054             0.00690620336            0.000441380059           
       2.039695             0.00677768523            0.000433951546           
       2.042335             0.00756059085            0.000476305626           
       2.044975             0.00740750966             0.00046574152           
       2.047616             0.00719599088            0.000457903526           
       2.050256             0.00792215674            0.000484999229           
       2.052897             0.00726140203            0.000472893275           
       2.055537             0.00695506961              0.0004472892           
       2.058177             0.00752652116            0.000455656017           
       2.060818             0.00847813961            0.000506613072           
       2.063458             0.00748204317            0.000495958494           
       2.066098              0.0083765678            0.000495033082           
       2.068739             0.00773190829            0.000482995689           
       2.071379             0.00729944104            0.000481533015           
       2.074020             0.00670497615            0.000451478824           
       2.076660             0.00800237742            0.000497215871           
       2.079300              0.0076769185            0.000498932446           
       2.081941             0.00832377738            0.000475686577           
       2.084581             0.00772065195            0.000483559489           
       2.087222             0.00737338492            0.000455738344           
       2.089862             0.00731423989            0.000494373796           
       2.092502             0.00765182023            0.000490159113           
       2.095143             0.00770573521            0.000507942683           
       2.097783             0.00724825553            0.000476952669           
       2.100423             0.00763494202            0.000471687768           
       2.103064              0.0074425071            0.000483232044           
       2.105704             0.00658224452            0.000452195863           
       2.108345             0.00907397099            0.000510082942           
       2.110985             0.00794697741            0.000509851585           
       2.113625             0.00719497197            0.000489362569           
       2.116266             0.00767045823            0.000512442526           
       2.118906             0.00662844598            0.000443946027           
       2.121546             0.00774580536             0.00047074466           
       2.124187             0.00730336419            0.000479816447           
       2.126827             0.00715586691            0.000480247352           
       2.129468             0.00778433101            0.000502171913           
       2.132108             0.00775916904            0.000487784786           
       2.134748              0.0076554969            0.000482635308           
       2.137389             0.00671730294            0.000471647558           
       2.140029             0.00687952878            0.000427315996           
       2.142670             0.00775391604            0.000484836064           
       2.145310             0.00770403539            0.000470379321           
       2.147950             0.00629530546            0.000437650939           
       2.150591             0.00722638702            0.000464161093           
       2.153231             0.00775826708            0.000495052489           
       2.155871             0.00777683923            0.000478825719           
       2.158512             0.00755019558            0.000492286528           
       2.161152             0.00656296474            0.000444591672           
       2.163793              0.0076526873            0.000477923854           
       2.166433             0.00774454303            0.000493714082           
       2.169073             0.00719360398              0.0004652354           
       2.171714             0.00800524086            0.000487111001           
       2.174354              0.0069590546            0.000474562873           
       2.176995             0.00742186198            0.000488026956           
       2.179635              0.0080747376            0.000537909891           
       2.182275             0.00718084333             0.00047893661           
       2.184916             0.00770186426            0.000479078818           
       2.187556             0.00697836584            0.000451451476           
       2.190196             0.00775537971            0.000497332036           
       2.192837             0.00716620903            0.000475466879           
       2.195477              0.0073970934            0.000460545646           
       2.198118             0.00768865491            0.000481565419           
       2.200758             0.00692662389            0.000468934925           
       2.203398             0.00733302533            0.000485582307           
       2.206039             0.00633637471            0.000427192342           
       2.208679             0.00790626447            0.000488292578           
       2.211319             0.00798480348            0.000493541319           
       2.213960             0.00707224251            0.000470706459           
       2.216600             0.00725095002            0.000493049104           
       2.219241             0.00735834567            0.000474698579           
       2.221881              0.0075413819            0.000481554366           
       2.224521              0.0072418507            0.000477676721           
       2.227162             0.00760282201            0.000479637227           
       2.229802             0.00736573199            0.000486877965           
       2.232443             0.00785881891            0.000494978255           
       2.235083              0.0073424644            0.000492553718           
       2.237723             0.00699290863            0.000461288144           
       2.240364             0.00700340028            0.000473006755           
       2.243004             0.00698750343            0.000468698124           
       2.245644             0.00673992563            0.000464927441           
       2.248285              0.0070009993            0.000464353918           
       2.250925             0.00777186763            0.000492223086           
       2.253566             0.00712390093            0.000503810276           
       2.256206             0.00818948673            0.000529376536           
       2.258846             0.00700920899            0.000465883867           
       2.261487             0.00775155961             0.00051423134           
       2.264127             0.00786356831            0.000500211775           
       2.266767             0.00798605439            0.000517522876           
       2.269408             0.00633441235            0.000462797921           
       2.272048             0.00727649925            0.000493059525           
       2.274689             0.00699846889            0.000489919427           
       2.277329             0.00763738752             0.00048188744           
       2.279969              0.0063817223            0.000468882955           
       2.282610             0.00791112906            0.000507533439           
       2.285250             0.00746187675            0.000471783842           
       2.287891             0.00613696945            0.000458724523           
       2.290531               0.007259983             0.00050564064           
       2.293171             0.00752810358            0.000501552314           
       2.295812             0.00660134879            0.000467778817           
       2.298452             0.00739066319            0.000517591636           
       2.301092             0.00711211783            0.000471756799           
       2.303733             0.00718154632            0.000493181608           
       2.306373             0.00730108909            0.000505100624           
       2.309014             0.00836613412            0.000530140107           
       2.311654             0.00735843246            0.000518839591           
       2.314294             0.00724389489            0.000474274019           
       2.316935             0.00689717939            0.000464696694           
       2.319575              0.0081269654            0.000528522384           
       2.322215             0.00683772163            0.000505234458           
       2.324856             0.00663002451            0.000457401483           
       2.327496             0.00698764752            0.000499306287           
       2.330137             0.00679422624            0.000471139514           
       2.332777             0.00663991597            0.000480246702           
       2.335417             0.00726682761            0.000487409738           
       2.338058             0.00770101637            0.000516748382           
       2.340698              0.0069534402             0.00048716785           
       2.343339             0.00731494313            0.000510666833           
       2.345979             0.00695162533            0.000470980583           
       2.348619              0.0075821417            0.000509855993           
       2.351260             0.00642554222             0.00046662582           
       2.353900             0.00866970152            0.000540303785           
       2.356540             0.00691986754            0.000482023152           
       2.359181             0.00760262862            0.000498160424           
       2.361821             0.00697853505            0.000461035758           
       2.364462             0.00620099066            0.000454530206           
       2.367102             0.00682277614            0.000489961785           
       2.369742             0.00776032241            0.000550011958           
       2.372383             0.00723235021            0.000480794229           
       2.375023             0.00749531967            0.000514525437           
       2.377663             0.00722849353            0.000483125833           
       2.380304             0.00720938724            0.000490531804           
       2.382944             0.00593917758             0.00042406429           
       2.385585             0.00682223303            0.000484729777           
       2.388225             0.00685790509            0.000483711731           
       2.390865             0.00739240674            0.000497049415           
       2.393506             0.00571415705            0.000428756756           
       2.396146             0.00679632048             0.00050558709           
       2.398787             0.00771898924            0.000496559369           
       2.401427             0.00744271182            0.000470638683           
       2.404067             0.00744299933            0.000481145853           
       2.406708             0.00732839021            0.000471701953           
       2.409348             0.00668993162            0.000478040837           
       2.411988              0.0074439653            0.000494065307           
       2.414629             0.00663249531            0.000480883545           
       2.417269             0.00706247973            0.000502020189           
       2.419910              0.0061744411            0.000470487397           
       2.422550             0.00721750134            0.000486671353           
       2.425190             0.00678830509             0.00049751555           
       2.427831             0.00815287248            0.000542167024           
       2.430471               0.007411474            0.000492473786           
       2.433112             0.00685620889            0.000461238449           
       2.435752             0.00736598433            0.000505955922           
       2.438392             0.00731474764            0.000486649443           
       2.441033              0.0060347604            0.000468457371           
       2.443673             0.00725599217            0.000514069943           
       2.446313             0.00724331794            0.000514073633           
       2.448954             0.00733627162            0.000492600637           
       2.451594             0.00683065212            0.000511082733           
       2.454235             0.00783668042            0.000513626269           
       2.456875             0.00684963427             0.00050245286           
       2.459515             0.00694049982            0.000518867747           
       2.462156             0.00712325031            0.000496291077           
       2.464796             0.00708102564            0.000488433983           
       2.467436             0.00791557847            0.000534034094           
       2.470077             0.00929011819            0.000548357077           
       2.472717             0.00792787436            0.000508754685           
       2.475358             0.00668816714            0.000472159325           
       2.477998             0.00721490741            0.000482132481           
       2.480638             0.00762627222            0.000504494471           
       2.483279             0.00784111103            0.000534652494           
       2.485919             0.00758257537            0.000506694192           
       2.488560             0.00720206458             0.00049243723           
       2.491200             0.00739275916            0.000513749523           
       2.493840             0.00755041221            0.000549380074           
       2.496481             0.00673346909            0.000510321837           
       2.499121             0.00709699921            0.000509592493           
       2.501761             0.00734999047             0.00052546698           
       2.504402              0.0066568673             0.00049277103           
       2.507042             0.00657836884            0.000486228186           
       2.509683             0.00696389042            0.000492626988           
       2.512323             0.00580008068            0.000472173161           
       2.514963             0.00681697988            0.000505570109           
       2.517604              0.0075098649            0.000550622459           
       2.520244             0.00751684594            0.000516449436           
       2.522884             0.00857944271            0.000559636914           
       2.525525              0.0117411553            0.000662115559           
       2.528165             0.00784653854            0.000532837115           
       2.530806              0.0085033372            0.000564358087           
       2.533446             0.00906508343            0.000570263887           
       2.536086             0.00753753496            0.000515347337           
       2.538727             0.00823709364            0.000516830983           
       2.541367             0.00749162394            0.000497744647           
       2.544008               0.007225712            0.000504843326           
       2.546648             0.00774034088            0.000531474571           
       2.549288             0.00755696954            0.000535841625           
       2.551929             0.00673266798             0.00049771155           
       2.554569             0.00683427631            0.000483108165           
       2.557209              0.0071602697            0.000499037361           
       2.559850             0.00664286783            0.000482212599           
       2.562490             0.00773458285            0.000537789402           
       2.565131             0.00703467885             0.00053177728           
       2.567771             0.00728056503            0.000521596722           
       2.570411             0.00621174107            0.000476578415           
       2.573052             0.00666725907            0.000499961477           
       2.575692             0.00596092906            0.000469874623           
       2.578332             0.00671732283            0.000500858836           
       2.580973             0.00736926051            0.000519609678           
       2.583613             0.00665833562             0.00048214987           
       2.586254             0.00742921338            0.000508588626           
       2.588894             0.00706613851            0.000515077809           
       2.591534             0.00736836554            0.000544485639           
       2.594175             0.00674002241            0.000510925798           
       2.596815             0.00689085907            0.000519657301           
       2.599456             0.00623758189            0.000468848038           
       2.602096             0.00776372942            0.000527049949           
       2.604736             0.00722892644            0.000520632598           
       2.607377             0.00692309921            0.000496073631           
       2.610017             0.00713288654            0.000494722019           
       2.612657             0.00688141609            0.000516852424           
       2.615298             0.00677666315            0.000500755094           
       2.617938             0.00715555846            0.000550451719           
       2.620579             0.00654079262            0.000505218572           
       2.623219             0.00688371427            0.000517554415           
       2.625859             0.00648302668            0.000488343124           
       2.628500             0.00719085734            0.000510940713           
       2.631140             0.00691988326            0.000508944312           
       2.633780             0.00627829512            0.000484355281           
       2.636421             0.00733542657            0.000536422254           
       2.639061              0.0076485326            0.000515644586           
       2.641702             0.00693585508            0.000502401557           
       2.644342             0.00700579862            0.000507079883           
       2.646982             0.00744369683            0.000514873183           
       2.649623             0.00746505925            0.000540340109           
       2.652263              0.0080128861            0.000554197955           
       2.654904             0.00665036672            0.000505393819           
       2.657544             0.00657198183            0.000473214872           
       2.660184             0.00671245467            0.000506123003           
       2.662825             0.00682661273            0.000522250048           
       2.665465             0.00747665368            0.000528603372           
       2.668105             0.00663992129            0.000525066328           
       2.670746             0.00594259895            0.000458873145           
       2.673386             0.00889535417            0.000578585885           
       2.676027             0.00788717394            0.000536068473           
       2.678667              0.0110444456            0.000618970689           
       2.681307               0.011488763            0.000620286683           
       2.683948              0.0145088394            0.000716200135           
       2.686588               0.011164254            0.000617831951           
       2.689229              0.0093207626            0.000551628013           
       2.691869             0.00964609309            0.000593103441           
       2.694509             0.00950147969            0.000588964224           
       2.697150             0.00742205569            0.000512096278           
       2.699790             0.00768856114            0.000546412943           
       2.702430             0.00688305186            0.000494188053           
       2.705071             0.00722465363             0.00052316828           
       2.707711             0.00700014202            0.000499822024           
       2.710352             0.00652982697            0.000510074658           
       2.712992             0.00761551987             0.00056103437           
       2.715632             0.00730665111            0.000509863583           
       2.718273             0.00686669441            0.000512249544           
       2.720913             0.00618940263             0.00048494738           
       2.723553             0.00636265606            0.000494986832           
       2.726194             0.00740482409            0.000558193854           
       2.728834             0.00770671339            0.000569725938           
       2.731475             0.00788471237            0.000531844603           
       2.734115              0.0072749844            0.000526721992           
       2.736755              0.0072212084            0.000529090932           
       2.739396             0.00762270438             0.00054045105           
       2.742036             0.00692735409            0.000539201511           
       2.744677             0.00611064062            0.000491366923           
       2.747317              0.0061895774            0.000491004094           
       2.749957             0.00645763255            0.000505043095           
       2.752598             0.00665316986            0.000518195803           
       2.755238             0.00747810304            0.000559300721           
       2.757878             0.00764367096            0.000560514446           
       2.760519             0.00937400906             0.00061414227           
       2.763159              0.0109993412            0.000658609215           
       2.765800             0.00856199243            0.000553755021           
       2.768440             0.00860940015            0.000559376704           
       2.771080             0.00859466774            0.000563563074           
       2.773721             0.00741533563            0.000536975513           
       2.776361             0.00752020159            0.000548219382           
       2.779001              0.0073641663            0.000561815911           
       2.781642             0.00683083888            0.000537102127           
       2.784282              0.0065741637            0.000535579001           
       2.786923             0.00643642653            0.000534604767           
       2.789563             0.00653467587            0.000518802066           
       2.792203             0.00694231818            0.000510828526           
       2.794844             0.00608183478            0.000524015671           
       2.797484             0.00622634081            0.000500383692           
       2.800125             0.00754518787            0.000579203469           
       2.802765             0.00622254132            0.000516944208           
       2.805405             0.00703247743            0.000551418571           
       2.808046             0.00729274532            0.000571401133           
       2.810686             0.00690956606            0.000511071323           
       2.813326             0.00598612691            0.000494116389           
       2.815967              0.0069895142            0.000549105444           
       2.818607             0.00769566923            0.000549830218           
       2.821248             0.00595879912            0.000473776494           
       2.823888              0.0064334448            0.000511003512           
       2.826528             0.00698912515            0.000515811442           
       2.829169              0.0063332127             0.00051430695           
       2.831809             0.00669098665               0.000535825           
       2.834449             0.00638210252            0.000526618069           
       2.837090             0.00627282066            0.000504256055           
       2.839730             0.00667066152            0.000517462079           
       2.842371             0.00724988612            0.000540239098           
       2.845011             0.00673897124            0.000525007192           
       2.847651             0.00722273216            0.000544192133           
       2.850292             0.00585554116            0.000494796328           
       2.852932             0.00641256294            0.000529080601           
       2.855573             0.00644440692            0.000514495824           
       2.858213             0.00684690206            0.000556899583           
       2.860853             0.00755857319            0.000544302043           
       2.863494             0.00719074895            0.000549665778           
       2.866134             0.00594325999            0.000519393731           
       2.868774             0.00684387909            0.000547770261           
       2.871415             0.00682028103            0.000555342671           
       2.874055             0.00668535137            0.000525561362           
       2.876696             0.00645180802            0.000530265072           
       2.879336             0.00713604166            0.000537491252           
       2.881976             0.00783573899            0.000580928787           
       2.884617             0.00731230911            0.000552948408           
       2.887257             0.00747243403             0.00056185501           
       2.889897             0.00777122692            0.000561185627           
       2.892538              0.0079274257            0.000620928597           
       2.895178              0.0067134735            0.000516232494           
       2.897819             0.00634865981            0.000512098596           
       2.900459             0.00750291291            0.000545878329           
       2.903099             0.00618831362            0.000490680336           
       2.905740             0.00610390487             0.00049993051           
       2.908380             0.00657518251            0.000524766906           
       2.911021             0.00726987495            0.000560764025           
       2.913661             0.00682652461            0.000543233286           
       2.916301             0.00727937861            0.000561497284           
       2.918942             0.00724835137            0.000535940115           
       2.921582             0.00636998492            0.000525674768           
       2.924222             0.00725009676            0.000543322139           
       2.926863             0.00756796613            0.000578205864           
       2.929503              0.0088760324            0.000633603219           
       2.932144             0.00670276575            0.000528540805           
       2.934784             0.00693335795            0.000528741133           
       2.937424             0.00686374931            0.000531481407           
       2.940065             0.00738566387            0.000525905243           
       2.942705             0.00739951212            0.000525737641           
       2.945346             0.00609906831            0.000506545243           
       2.947986             0.00712811095            0.000558375711           
       2.950626             0.00735187009            0.000563879184           
       2.953267              0.0076220274            0.000564869414           
       2.955907             0.00716190804            0.000568012314           
       2.958547             0.00657795608            0.000513906915           
       2.961188             0.00748203082            0.000571806748           
       2.963828             0.00807362265            0.000581024827           
       2.966469             0.00789087924            0.000563495743           
       2.969109             0.00642029731            0.000515813901           
       2.971749             0.00650882491            0.000516117997           
       2.974390              0.0080789349            0.000565051725           
       2.977030             0.00674314566            0.000527765827           
       2.979670             0.00832490464            0.000570394353           
       2.982311             0.00910671441            0.000618321951           
       2.984951             0.00668843571            0.000503984032           
       2.987592             0.00758797195            0.000547557774           
       2.990232             0.00748834295            0.000565703408           
       2.992872             0.00737658876            0.000528869553           
       2.995513              0.0083681718            0.000551088144           
       2.998153              0.0105030659            0.000627769051           
       3.000794              0.0107752064            0.000615886014           
       3.003434              0.0117711224            0.000644691164           
       3.006074              0.0442331018             0.00123221468           
       3.008715               0.117200688             0.00193618198           
       3.011355               0.185572958             0.00234942171           
       3.013995              0.0989298813             0.00172007498           
       3.016636              0.0596674777             0.00130809793           
       3.019276               0.119719396             0.00182137011           
       3.021917               0.456246007             0.00341890218           
       3.024557                1.61126917             0.00631685872           
       3.027197                1.18895042             0.00529029824           
       3.029838               0.511443315             0.00351895761           
       3.032478               0.271471446             0.00256636674           
       3.035118               0.071616076             0.00133582537           
       3.037759              0.0965560028             0.00154907829           
       3.040399               0.129712694              0.0018520586           
       3.043040               0.506817217             0.00370578407           
       3.045680               0.416804008             0.00316187378           
       3.048320              0.0878638032             0.00148330599           
       3.050961               0.105416438             0.00165335325           
       3.053601              0.0853783231             0.00143306621           
       3.056242              0.0532906122             0.00120375432           
       3.058882              0.0474437704              0.0012183768           
       3.061522               0.036314579             0.00104581366           
       3.064163              0.0423675967             0.00111539113           
       3.066803              0.0980442152             0.00178632638           
       3.069443              0.0997874927              0.0018854973           
       3.072084               0.057436692             0.00139290821           
       3.074724              0.0420129906              0.0013304053           
       3.077365              0.0830437209             0.00193623984           
       3.080005              0.0203859603            0.000964773393           
       3.082645             0.00995664716            0.000708307772           
       3.085286              0.0123157286            0.000793978041           
       3.087926             0.00906232289            0.000675830924           
       3.090566              0.0101836755            0.000701957963           
       3.093207              0.0111934647            0.000765819414           
       3.095847             0.00746616283            0.000599484562           
       3.098488             0.00746391731            0.000664625808           
       3.101128             0.00965743178            0.000760866839           
       3.103768             0.00957767599            0.000743463149           
       3.106409              0.0101826119            0.000815850116           
       3.109049             0.00800236251            0.000694069528           
       3.111690             0.00847837071            0.000702149934           
       3.114330             0.00756990183            0.000677580278           
       3.116970             0.00763838999            0.000685863908           
       3.119611              0.0139638926            0.000987095201           
       3.122251              0.0193519139             0.00121552354           
       3.124891              0.0354880534             0.00166138049           
       3.127532              0.0233067212             0.00131715446           
       3.130172              0.0123482173            0.000975300603           
       3.132813              0.0109250001            0.000903124436           
       3.135453              0.0075317092            0.000743689169           
       3.138093             0.00739093002             0.00079824706           
       3.140734             0.00703919835            0.000718707209           
       3.143374             0.00853729518            0.000837045147           
       3.146014             0.00778981217            0.000860765115           
       3.148655             0.00641141791            0.000725923514           
       3.151295             0.00662256684            0.000786220128           
       3.153936             0.00433759859            0.000614637751           
       3.156576             0.00720186855            0.000781212732           
       3.159216             0.00717711456            0.000783769747           
       3.161857             0.00617023328            0.000723757803           
       3.164497             0.00899606775            0.000918232074           
       3.167138              0.0078940811            0.000888750399           
       3.169778             0.00570392465            0.000743009044           
       3.172418             0.00690096445            0.000808950611           
       3.175059             0.00566898344            0.000650008723           
       3.177699             0.00626322521            0.000723497035           
       3.180339             0.00623548366            0.000773452343           
       3.182980              0.0058416832            0.000774007814           
       3.185620             0.00562878254            0.000773763631           
       3.188261             0.00462338507            0.000713777605           
       3.190901              0.0059462876             0.00074448618           
       3.193541             0.00719443463            0.000860468684           
       3.196182             0.00604465231            0.000821958517           
       3.198822             0.00443433245            0.000704245212           
       3.201463              0.0059483163            0.000801602969           
       3.204103             0.00652098785            0.000834196984           
       3.206743             0.00639444299            0.000825985673           
       3.209384             0.00672524897            0.000915199531           
       3.212024             0.00487372665            0.000726363855           
       3.214664             0.00602147872            0.000918100241           
       3.217305             0.00567040867            0.000846894635           
       3.219945             0.00427012812            0.000756426879           
       3.222586             0.00826630762             0.00100244301           
       3.225226             0.00523240116            0.000884750376           
       3.227866             0.00561288475            0.000837538391           
       3.230507             0.00562537848            0.000869165735           
       3.233147             0.00751282525             0.00101256089           
       3.235787             0.00683827278            0.000988615786           
       3.238428             0.00397918819            0.000813811731           
       3.241068             0.00609182886            0.000941532346           
       3.243709             0.00496469734            0.000878162532           
       3.246349             0.00515719515            0.000815898981           
       3.248989             0.00576287517             0.00101839724           
       3.251630             0.00653648195             0.00104444032           
       3.254270             0.00465613138            0.000787825403           
       3.256911             0.00540022895            0.000925747138           
       3.259551             0.00717833204             0.00114907421           
       3.262191             0.00555676957             0.00103267731           
       3.264832             0.00713753079             0.00122287329           
       3.267472             0.00532351847            0.000990739467           
       3.270112             0.00447413222             0.00100375298           
       3.272753             0.00358332971            0.000822224874           
       3.275393             0.00568897127             0.00105709148           
       3.278034             0.00625235968             0.00110882273           
       3.280674             0.00554706177             0.00113333149           
       3.283314             0.00630728135             0.00108082696           
       3.285955              0.0062873669              0.0011134142           
       3.288595             0.00660699679             0.00126981087           
       3.291235             0.00669490445             0.00131401004           
       3.293876             0.00552441563             0.00121078219           
       3.296516             0.00462959006             0.00106408299           
       3.299157             0.00666488424             0.00126069198           
       3.301797             0.00684384113             0.00145723067           
       3.304437             0.00489189283             0.00106739629           
       3.307078             0.00449253448             0.00112678672           
       3.309718             0.00690104719             0.00144148062           
       3.312359             0.00663599862             0.00141386391           
       3.314999             0.00348156241             0.00100830839           
       3.317639             0.00534816838             0.00119519289           
       3.320280             0.00573186922             0.00131553126           
       3.322920             0.00559380255             0.00132146409           
       3.325560             0.00587608024             0.00135531613           
       3.328201             0.00558338868             0.00118983714           
       3.330841             0.00559211824             0.00144923779           
       3.333482             0.00368677419             0.00111227467           
       3.336122             0.00400411195             0.00115968883           
       3.338762             0.00579614261             0.00161175162           
       3.341403             0.00574883128             0.00153379474           
       3.344043             0.00600015204             0.00150441318           
       3.346683             0.00354107881             0.00117989909           
       3.349324             0.00350179004             0.00131921488           
       3.351964             0.00553149596             0.00175330248           
       3.354605             0.00508862011             0.00192322358           
       3.357245             0.00588555731             0.00186586971           
       3.359885             0.00494836655             0.00136931707           
       3.362526             0.00709345053             0.00205021825           
       3.365166             0.00473891788             0.00158056276           
       3.367807             0.00689580302             0.00244008852           
       3.370447             0.00416362123             0.00157279597           
       3.373087             0.00335084605             0.00150883335           
       3.375728             0.00257951245             0.00149407391           
       3.378368             0.00376013238              0.0026771625           
       3.381008              0.0064037088             0.00260475626           
       3.383649             0.00742361815             0.00224979825           
       3.386289             0.00764092073             0.00270140159           
       3.388930              0.0142876503             0.00584305568           
       3.391570             0.00718603893             0.00293134469           
       3.394210             0.00574496206             0.00331692504           
       3.396851             0.00950485867              0.0047724205           
       3.399491             0.00959917189             0.00479738801           
       3.402131             0.00943390371             0.00672868458           
       3.404772             0.00936911533             0.00948535351           
       3.407412                       nan                       nan           
       3.410053           -2.57148048e-05                         0           
       3.412693                       nan                       nan           
       3.415333              0.0174848936              0.0129862713           
