################################################################################
# EDF_DataBlockID                     0.Image.Psd
# EDF_BinarySize                      4366944
# EDF_HeaderSize                      2560
# ByteOrder                           LowByteFirst
# DataType                            FloatValue
# Dim_1                               1028
# Dim_2                               1062
# Image                               0
# HeaderID                            EH:000000:000000:000000
# Size                                4366944
# Center_1                            607.5200
# Center_2                            651.5500
# Comment                             Xenocs_Cell_Window - 20251028_20perc_iodine_1.23mg
# DDummy                              0.6
# Date                                2025-10-29T13:16:07
# Delta                               0
# Dummy                               -1.5
# ExposureTime                        360
# Gamma                               0
# Intensity1                          8.54605e-10
# PSize_1                             7.5e-05
# PSize_2                             7.5e-05
# Pressure                            0.0328808
# SampleDistance                      0.450002
# SampleEnvKind                       large
# SampleEnvPN                         ElectroChemical cell
# SampleEnvSN                         1141
# Thickness                           0
# Wavelength                          1.541891e-10
# Wavelength                          1.54189e-10
# aux                                 0
# aux_dial                            0.002375
# beamx                               588.434
# beamx_dial                          588.434
# beamz                               657.808
# beamz_dial                          657.808
# det0x                               0
# det0x_dial                          6.36945
# det0xvd                             0
# det0xvd_dial                        0
# det0y                               450.002
# det0y_dial                          481.635
# det0z                               0
# det0z_dial                          1.23302
# det0zvd                             0
# det0zvd_dial                        0
# mag                                 1.818
# mag_dial                            1.818
# om                                  0.2499
# om_dial                             -0.610199
# phi                                 -0.0120535
# phi_dial                            0
# ry                                  0.599993
# ry_dial                             0.599993
# s1bot                               0.8
# s1bot_dial                          -1.66094
# s1hl                                0.8
# s1hl_dial                           -0.608437
# s1hr                                0.8
# s1hr_dial                           0.970938
# s1top                               0.8
# s1top_dial                          -0.461562
# s2bot                               0.45
# s2bot_dial                          1.36109
# s2hl                                0.45
# s2hl_dial                           -0.83375
# s2hr                                0.45
# s2hr_dial                           -0.118594
# s2top                               0.45
# s2top_dial                          1.44734
# w2theta                             32
# w2theta_dial                        32
# waxsch                              19.2605
# waxsch_dial                         -32.7355
# waxsh                               137.085
# waxsh_dial                          -43.5338
# waxsth                              26.0607
# waxsth_dial                         -19.4086
# waxsz                               67.0407
# waxsz_dial                          -23.7954
# wind                                65.9854
# wind_dial                           66.0041
# wpsi                                124
# wpsi_dial                           124
# wstod                               115
# wstod_dial                          115
# x                                   0
# x_dial                              1.00969
# z                                   0
# z_dial                              13.3172
# CountCutoff                         15302352
# DetectorModel                       Dectris EIGER2 Si 1M, S/N E-02-0362
# ThresholdSetting                    4023.88989258
# Saturation                          0
# FlatField                           Corrected
# BackgroundReductionExtra            0.02
# BackgroundCorrectionConstant        0.0026712
# Detector                            0
# Monitor                             0
# Pil_Roi0                            0
# SumForIntensity1                    3.07658e+08
# TransmittedFlux                     854605
# det                                 0
# mon                                 0
# pilai0                              3.07658e+08
# pilai1                              768260
# pilct0                              5.32874e+08
# pilct1                              768260
# pilroi0                             0
# pilroi1                             0
# sec                                 1
# title                               20251028_20perc_iodine_1.23mg_0_00208.edf
# usaxs0                              0
# Operation                           Azimuthal average I(q)
# Error_model                         ErrorModel.poisson
# Geometrical_correction              True
# Transmission_correction             True
# Thickness_correction                False
# Binning mode                        Uniform
# Binning factor                      1.0
# Psi                                 0.0
# Omega                               0.2499
# MaskInvalidPixels                   True
# DetectorEdge                        3
# MaskFiles                           ['20251028_20perc_iodine_1.23mg_0_00012_mask.edf']
################################################################################
    q(A⁻¹)                Intensity(a.u.)            Sigma_I(a.u.)            
       0.000340                372583.519                120.550888           
       0.001019                360382.539                72.6032584           
       0.001698                350891.104                50.6576989           
       0.002377                330903.216                44.0002169           
       0.003056                307079.596                35.8233221           
       0.003735                253244.881                28.6905299           
       0.004415                205118.435                25.8208588           
       0.005094                153432.931                19.3400851           
       0.005773                101363.476                14.5534713           
       0.006452                59105.4446                10.6480199           
       0.007131                32333.0273                7.62933548           
       0.007810                16156.4504                5.35206532           
       0.008490                8070.59181                3.35300084           
       0.009169                3840.52554                2.28595122           
       0.009848                 1178.0102                1.22405724           
       0.010527                453.623194               0.759582741           
       0.011206                114.677462               0.364502077           
       0.011885                53.5865388               0.231503144           
       0.012564                24.9820663               0.162283732           
       0.013244                17.1380376               0.125661236           
       0.013923                12.5537143               0.109283996           
       0.014602                9.51513021              0.0882394387           
       0.015281                 7.5277539              0.0798945121           
       0.015960                6.15903969              0.0717491355           
       0.016639                5.02412557              0.0611934635           
       0.017319                4.19410207              0.0550410952           
       0.017998                3.42682001              0.0475975479           
       0.018677                2.94880192              0.0457305981           
       0.019356                2.54051037              0.0419414723           
       0.020035                2.11436378              0.0358976732           
       0.020714                1.88811329              0.0342817279           
       0.021394                1.64113516              0.0302406211           
       0.022073                1.45491668               0.029624222           
       0.022752                1.29070612              0.0266916304           
       0.023431                1.11294103              0.0240588458           
       0.024110                1.06273717              0.0245108491           
       0.024789               0.886857677              0.0207946964           
       0.025469               0.835635862              0.0208010963           
       0.026148                0.74754192              0.0184854659           
       0.026827               0.654632715              0.0175754454           
       0.027506               0.649535641              0.0177593476           
       0.028185                 0.5494704              0.0155770056           
       0.028864               0.503092651              0.0148214987           
       0.029544               0.465006018              0.0138179362           
       0.030223               0.423126177              0.0133700243           
       0.030902               0.389345705              0.0129425893           
       0.031581               0.377211929              0.0121101135           
       0.032260               0.350403158              0.0118707215           
       0.032939               0.315428006              0.0108597151           
       0.033619               0.305385723              0.0108424876           
       0.034298               0.279309719              0.0100909667           
       0.034977               0.280224733             0.00990884876           
       0.035656               0.240476648             0.00942217066           
       0.036335               0.217173221             0.00868426903           
       0.037014               0.212295743             0.00861180706           
       0.037693               0.192925384             0.00789746047           
       0.038373               0.173843678             0.00757030465           
       0.039052               0.173084252             0.00758589024           
       0.039731               0.169781027             0.00733806471           
       0.040410               0.154129225              0.0069447707           
       0.041089               0.151243931             0.00677169883           
       0.041768               0.144923438             0.00666332571           
       0.042448                0.13963878             0.00648995503           
       0.043127               0.126249378             0.00602522244           
       0.043806               0.115835577             0.00581440967           
       0.044485               0.119566423             0.00578594746           
       0.045164               0.113227766             0.00574146379           
       0.045843               0.113044674               0.005502306           
       0.046523               0.108941867             0.00542018599           
       0.047202               0.102022673             0.00528189008           
       0.047881              0.0967507333             0.00504442042           
       0.048560               0.100976111             0.00520036732           
       0.049239              0.0908436258             0.00473614288           
       0.049918              0.0927016913              0.0048778616           
       0.050598              0.0903731587             0.00474395117           
       0.051277              0.0803844856             0.00445991219           
       0.051956              0.0869056572             0.00460816902           
       0.052635              0.0809799146             0.00435388743           
       0.053314              0.0768406307             0.00436515227           
       0.053993              0.0766340453             0.00423971778           
       0.054673              0.0775622205             0.00417030364           
       0.055352              0.0702905243             0.00402831762           
       0.056031              0.0722608602             0.00399856822           
       0.056710              0.0775005278              0.0042424754           
       0.057389              0.0690255159             0.00386090372           
       0.058068              0.0700303909             0.00392899388           
       0.058748               0.065799463             0.00385596589           
       0.059427              0.0658877802             0.00379322404           
       0.060106              0.0662343167             0.00383918196           
       0.060785              0.0587753613             0.00350819249           
       0.061464              0.0635813615             0.00373675488           
       0.062143              0.0547404382             0.00343201848           
       0.062822              0.0580684951             0.00349332734           
       0.063502              0.0578705581             0.00348113785           
       0.064181              0.0541718054             0.00333248807           
       0.064860              0.0554927382             0.00342424562           
       0.065539              0.0573088942             0.00344580116           
       0.066218              0.0525876861             0.00323013896           
       0.066897              0.0474182302             0.00309094712           
       0.067577              0.0486056462             0.00315947344           
       0.068256              0.0451516612              0.0031199493           
       0.068935              0.0518058867             0.00328791464           
       0.069614              0.0409266562             0.00295145421           
       0.070293              0.0503836987              0.0033049452           
       0.070972              0.0472631645              0.0031775259           
       0.071652              0.0467782835             0.00316698279           
       0.072331              0.0473302737             0.00312883827           
       0.073010              0.0410762095             0.00298140047           
       0.073689               0.047827753             0.00319942574           
       0.074368               0.042845575             0.00302269601           
       0.075047              0.0427982718             0.00298855563           
       0.075727              0.0380063506             0.00279888856           
       0.076406              0.0399426261             0.00292654832           
       0.077085              0.0405319481             0.00289296351           
       0.077764              0.0426388972             0.00295680543           
       0.078443              0.0336805164             0.00264417216           
       0.079122              0.0344584069             0.00264883965           
       0.079802               0.038475316             0.00282866157           
       0.080481              0.0379481481             0.00271445644           
       0.081160              0.0374837827             0.00275315607           
       0.081839              0.0370183817             0.00269220858           
       0.082518              0.0345311332             0.00260238178           
       0.083197              0.0323528899             0.00247982567           
       0.083876              0.0338329111             0.00249377457           
       0.084556              0.0341936273             0.00257675666           
       0.085235              0.0364557975             0.00260922337           
       0.085914              0.0327657743              0.0024976792           
       0.086593               0.031028023             0.00241490088           
       0.087272              0.0275562315             0.00224362103           
       0.087951              0.0317433745             0.00246244899           
       0.088631              0.0295713239             0.00229575743           
       0.089310              0.0310145975             0.00240097972           
       0.089989               0.032531019             0.00243022826           
       0.090668              0.0272691216             0.00224957964           
       0.091347              0.0278311741             0.00228536898           
       0.092026              0.0334362832              0.0023943298           
       0.092706              0.0307862711             0.00238088169           
       0.093385              0.0235779285             0.00205159295           
       0.094064              0.0253928592             0.00215387034           
       0.094743              0.0349337017             0.00248780793           
       0.095422              0.0278787715             0.00219766403           
       0.096101              0.0313943557             0.00238014728           
       0.096781              0.0275133851             0.00219627503           
       0.097460              0.0300783115             0.00223372599           
       0.098139              0.0245670939             0.00200320524           
       0.098818               0.026881864             0.00206964934           
       0.099497              0.0284009755             0.00213169205           
       0.100176               0.029343745             0.00210991598           
       0.100856              0.0270699239             0.00202522147           
       0.101535              0.0281242012             0.00206030111           
       0.102214              0.0277900895             0.00204803918           
       0.102893              0.0266158832               0.001981468           
       0.103572              0.0249726556             0.00189097307           
       0.104251              0.0237120369             0.00184943401           
       0.104931              0.0266458061             0.00194266043           
       0.105610              0.0268873963             0.00195977159           
       0.106289              0.0262638993             0.00190468215           
       0.106968              0.0290569429             0.00200934657           
       0.107647              0.0219007016             0.00174549851           
       0.108326              0.0255177751             0.00185892866           
       0.109005               0.024929845             0.00182582866           
       0.109685              0.0260306655             0.00184477696           
       0.110364              0.0253204234             0.00184010075           
       0.111043              0.0245684179             0.00180538297           
       0.111722              0.0256327965             0.00182153601           
       0.112401              0.0243389303             0.00177990382           
       0.113080              0.0231359451             0.00171547298           
       0.113760              0.0209359861             0.00165913204           
       0.114439              0.0253314875             0.00179896119           
       0.115118              0.0213958923             0.00164085254           
       0.115797              0.0255238025             0.00180876382           
       0.116476              0.0187976605             0.00152901525           
       0.117155              0.0221427231             0.00167287747           
       0.117835              0.0216381123             0.00162083074           
       0.118514              0.0225606957             0.00167600855           
       0.119193              0.0229243765             0.00168947544           
       0.119872              0.0214906294             0.00161533276           
       0.120551              0.0244530979             0.00171159821           
       0.121230              0.0194604912             0.00151153845           
       0.121910              0.0221752911             0.00162912403           
       0.122589              0.0212335597             0.00159579897           
       0.123268              0.0226244726             0.00161532421           
       0.123947              0.0221933673             0.00161020721           
       0.124626              0.0256300315             0.00170923571           
       0.125305              0.0212762368             0.00156495119           
       0.125985               0.025013605             0.00168367589           
       0.126664               0.018987112             0.00145292486           
       0.127343              0.0218536782             0.00157681613           
       0.128022              0.0209416954             0.00153172509           
       0.128701              0.0198242866             0.00148253669           
       0.129380               0.022217481              0.0015498169           
       0.130059                0.01950166             0.00145537928           
       0.130739              0.0224306283             0.00157182614           
       0.131418              0.0232991076              0.0015974814           
       0.132097              0.0199324769             0.00145861621           
       0.132776              0.0206647653             0.00147846313           
       0.133455               0.018886622             0.00142440492           
       0.134134               0.019520649              0.0014435047           
       0.134814              0.0224480894              0.0015320139           
       0.135493               0.017581942             0.00136132073           
       0.136172              0.0206278111             0.00146339862           
       0.136851              0.0207880396             0.00147761514           
       0.137530              0.0221684863             0.00148963519           
       0.138209              0.0198444776             0.00142593878           
       0.138889              0.0201133626             0.00144189475           
       0.139568              0.0209479515             0.00147086989           
       0.140247              0.0194623347             0.00141589626           
       0.140926              0.0202556231             0.00140316273           
       0.141605              0.0175629383             0.00133976791           
       0.142284              0.0197325697             0.00139658044           
       0.142964              0.0197893665             0.00140393821           
       0.143643              0.0182723194              0.0013473484           
       0.144322              0.0185315588             0.00132847956           
       0.145001              0.0174270923             0.00131472676           
       0.145680              0.0198178096             0.00136883982           
       0.146359              0.0181373886             0.00131431033           
       0.147039              0.0192233273             0.00136422398           
       0.147718              0.0170868988             0.00126496014           
       0.148397              0.0221465279             0.00146249637           
       0.149076              0.0190502926             0.00131433738           
       0.149755              0.0209770468             0.00140049878           
       0.150434              0.0197733351             0.00136027823           
       0.151114               0.015751563             0.00120737121           
       0.151793              0.0179755251             0.00128980426           
       0.152472              0.0219830635             0.00140115806           
       0.153151              0.0192648795             0.00132435587           
       0.153830              0.0205033647             0.00135630809           
       0.154509              0.0191456971             0.00130516547           
       0.155188              0.0172589229             0.00123872892           
       0.155868              0.0182582956             0.00126502184           
       0.156547              0.0184055711             0.00127827218           
       0.157226              0.0164710398              0.0011796959           
       0.157905              0.0208748388             0.00133922572           
       0.158584              0.0196113326             0.00129570476           
       0.159263              0.0183025634             0.00125632933           
       0.159943              0.0181433507             0.00125178595           
       0.160622              0.0177868246             0.00121550666           
       0.161301              0.0171392899             0.00120913514           
       0.161980              0.0191898132             0.00125767095           
       0.162659              0.0186323473             0.00125300443           
       0.163338              0.0150107524             0.00111549028           
       0.164018              0.0178109925               0.001208713           
       0.164697              0.0173583354             0.00120857654           
       0.165376              0.0165801899             0.00115536945           
       0.166055              0.0159776353             0.00114166099           
       0.166734              0.0176165996             0.00119341679           
       0.167413              0.0184406063             0.00122186342           
       0.168093              0.0179721083              0.0012176526           
       0.168772              0.0166188411             0.00113666878           
       0.169451              0.0159426533             0.00113378717           
       0.170130              0.0180444976             0.00119037657           
       0.170809               0.017683488              0.0011924718           
       0.171488              0.0165714831             0.00114384615           
       0.172168              0.0161443321             0.00111816178           
       0.172847              0.0186662421             0.00121812199           
       0.173526              0.0174975844             0.00115687517           
       0.174205              0.0165075196             0.00112884398           
       0.174884              0.0178441599             0.00116754046           
       0.175563              0.0163076323             0.00112090723           
       0.176243              0.0173536407             0.00116786918           
       0.176922              0.0166650828             0.00111464061           
       0.177601               0.016719881             0.00112874147           
       0.178280              0.0166679172             0.00111440591           
       0.178959              0.0172389583             0.00114245064           
       0.179638              0.0187974384             0.00118953941           
       0.180317              0.0154751658             0.00107144962           
       0.180997              0.0176666836             0.00115101902           
       0.181676              0.0169434772             0.00111517757           
       0.182355                0.01929439             0.00119717825           
       0.183034              0.0171562718              0.0011107802           
       0.183713                0.01891503             0.00118053068           
       0.184392               0.016451391             0.00110063591           
       0.185072              0.0168637431             0.00110164444           
       0.185751              0.0175505776             0.00112698122           
       0.186430              0.0157291597             0.00105942741           
       0.187109              0.0188582264             0.00117294803           
       0.187788              0.0170184593             0.00111151786           
       0.188467              0.0188875244             0.00115710747           
       0.189147              0.0176094164             0.00112858587           
       0.189826              0.0145603605             0.00100809052           
       0.190505              0.0169036604              0.0011040652           
       0.191184              0.0166298986             0.00107930558           
       0.191863              0.0165624317             0.00107938314           
       0.192542              0.0153084372             0.00104750311           
       0.193222              0.0160333737             0.00104799455           
       0.193901              0.0157073404             0.00105118784           
       0.194580              0.0159274738             0.00104001194           
       0.195259              0.0145451413             0.00100527115           
       0.195938              0.0161561471             0.00106201018           
       0.196617              0.0163657842             0.00105395807           
       0.197297              0.0158835356              0.0010425531           
       0.197976              0.0180667404             0.00109481766           
       0.198655              0.0166288458             0.00106182011           
       0.199334              0.0158583552              0.0010277845           
       0.200013              0.0148463724            0.000993899099           
       0.200692              0.0147010735             0.00099497254           
       0.201371              0.0151358256            0.000998207381           
       0.202051                0.01483814            0.000991415951           
       0.202730              0.0156480202             0.00100794394           
       0.203409              0.0175169543             0.00107359772           
       0.204088              0.0158173483             0.00101905703           
       0.204767              0.0174164235             0.00106370824           
       0.205446              0.0157899977             0.00101480336           
       0.206126              0.0155476431            0.000993304281           
       0.206805              0.0151266425            0.000997725087           
       0.207484              0.0165086101             0.00102356703           
       0.208163              0.0147153896            0.000972184787           
       0.208842              0.0165422865             0.00102797428           
       0.209521              0.0145108471            0.000954787042           
       0.210201              0.0156128102             0.00100142913           
       0.210880              0.0155992214            0.000981350701           
       0.211559              0.0158510965             0.00100386774           
       0.212238              0.0168678686             0.00103029452           
       0.212917              0.0152402212            0.000975686572           
       0.213596               0.015282957            0.000982830794           
       0.214276              0.0154878098            0.000968783199           
       0.214955              0.0138920501            0.000936813135           
       0.215634              0.0137486881            0.000925287428           
       0.216313              0.0147540762            0.000956509155           
       0.216992              0.0159788749            0.000995170379           
       0.217671              0.0157653425            0.000981802923           
       0.218351              0.0155692375            0.000985219764           
       0.219030              0.0172526689               0.001020746           
       0.219709              0.0157695836            0.000981974627           
       0.220388              0.0147441625             0.00094829164           
       0.221067              0.0148216329            0.000951533474           
       0.221746              0.0159557259            0.000986255042           
       0.222426              0.0150107687            0.000942308153           
       0.223105              0.0160969159            0.000989098372           
       0.223784              0.0146727223            0.000934962403           
       0.224463              0.0153454336            0.000963769667           
       0.225142              0.0156286989            0.000957234886           
       0.225821              0.0166942321            0.000993313117           
       0.226500              0.0145814514            0.000934234672           
       0.227180              0.0140745981            0.000903713295           
       0.227859              0.0154282814            0.000950419641           
       0.228538              0.0158027704            0.000952226451           
       0.229217              0.0133667605            0.000882695349           
       0.229896              0.0156862108            0.000955757351           
       0.230575              0.0149455346            0.000918048511           
       0.231255              0.0142366608            0.000909427169           
       0.231934              0.0156556199            0.000947156456           
       0.232613              0.0158297449            0.000955922954           
       0.233292              0.0146661142            0.000911227828           
       0.233971              0.0143816993            0.000901927902           
       0.234650              0.0148046053            0.000925856489           
       0.235330              0.0141320597            0.000896682995           
       0.236009              0.0158798373            0.000948466698           
       0.236688              0.0149192389            0.000916042014           
       0.237367              0.0165358908            0.000965797716           
       0.238046              0.0159740862            0.000955934601           
       0.238725              0.0151474059            0.000916509264           
       0.239405               0.016283565            0.000956152592           
       0.240084              0.0143672289             0.00089241057           
       0.240763              0.0142990376            0.000898815017           
       0.241442              0.0148948302            0.000904423344           
       0.242121               0.012721503             0.00083741782           
       0.242800              0.0155868572            0.000931329697           
       0.243480              0.0153777323            0.000920729494           
       0.244159              0.0128053355            0.000840604048           
       0.244838              0.0158410729            0.000919565526           
       0.245517              0.0126335824            0.000833021644           
       0.246196              0.0128143427            0.000839364415           
       0.246875              0.0138514216            0.000860504197           
       0.247554              0.0129857467            0.000841648657           
       0.248234              0.0144397452            0.000874060387           
       0.248913              0.0137920843            0.000863815587           
       0.249592              0.0125629896             0.00081659368           
       0.250271              0.0133934637            0.000840703909           
       0.250950               0.013292655            0.000842663829           
       0.251629              0.0141191723            0.000861085128           
       0.252309              0.0140302671            0.000860111939           
       0.252988              0.0134888061            0.000828824665           
       0.253667              0.0142230222            0.000861026805           
       0.254346              0.0131688938            0.000828334965           
       0.255025              0.0149246117            0.000879894252           
       0.255704              0.0133304372            0.000827765805           
       0.256384              0.0141191252            0.000848953922           
       0.257063              0.0130550564             0.00082099153           
       0.257742              0.0134691526            0.000828132475           
       0.258421              0.0139282776            0.000840507558           
       0.259100              0.0142191969            0.000850720961           
       0.259779              0.0129927539            0.000812515956           
       0.260459               0.013039318            0.000815569086           
       0.261138              0.0127058627            0.000789340229           
       0.261817              0.0133577636            0.000825673466           
       0.262496              0.0125705419            0.000793118806           
       0.263175              0.0143252075            0.000848483729           
       0.263854              0.0130642131            0.000806514698           
       0.264534              0.0116005319            0.000753502092           
       0.265213              0.0118463741            0.000773443938           
       0.265892              0.0119732153            0.000767611526           
       0.266571              0.0116665706            0.000755995046           
       0.267250              0.0128088612            0.000793475622           
       0.267929              0.0106700457             0.00072346233           
       0.268609              0.0125723806            0.000789610559           
       0.269288              0.0114280679            0.000740313042           
       0.269967              0.0122101493            0.000773470338           
       0.270646              0.0128875518            0.000791201224           
       0.271325              0.0130399698            0.000797195378           
       0.272004              0.0111896241            0.000731110978           
       0.272683              0.0128429126            0.000784230277           
       0.273363              0.0108321977            0.000724821745           
       0.274042              0.0131354155            0.000793459796           
       0.274721              0.0119361333            0.000755922528           
       0.275400               0.012786389            0.000777202838           
       0.276079              0.0128332794            0.000783047834           
       0.276758              0.0116542359            0.000755627406           
       0.277438              0.0115740046            0.000744569126           
       0.278117              0.0115246248            0.000756489179           
       0.278796              0.0108971249            0.000728139397           
       0.279475              0.0113280823            0.000754661962           
       0.280154              0.0106625018            0.000721624786           
       0.280833              0.0112382681            0.000745357543           
       0.281513              0.0112010622            0.000755797005           
       0.282192              0.0102085111            0.000709224331           
       0.282871              0.0117717483            0.000766914786           
       0.283550              0.0108729179            0.000741004481           
       0.284229              0.0114438633            0.000771376443           
       0.284908              0.0109635262            0.000762977962           
       0.285588              0.0113803058             0.00076824227           
       0.286267              0.0106422392             0.00075480796           
       0.286946             0.00974660557            0.000717650829           
       0.287625              0.0108736385             0.00077091465           
       0.288304              0.0109980737            0.000764935941           
       0.288983              0.0103058483            0.000749849049           
       0.289663              0.0114822242            0.000796121649           
       0.290342              0.0110176368            0.000775697979           
       0.291021              0.0111373505            0.000784102525           
       0.291700              0.0109112579             0.00076596424           
       0.292379             0.00952008841            0.000731851682           
       0.293058              0.0109579215             0.00078220953           
       0.293738              0.0103750618            0.000754730682           
       0.294417             0.00965849759            0.000736665329           
       0.295096              0.0106231588            0.000764084713           
       0.295775             0.00935535746            0.000727993085           
       0.296454             0.00893353343            0.000702190099           
       0.297133             0.00891390224            0.000704736559           
       0.297812             0.00952614364            0.000732190667           
       0.298492             0.00927789376            0.000723983406           
       0.299171               0.008846334            0.000705607452           
       0.299850             0.00916693324            0.000713374752           
       0.300529               0.010022964            0.000754342431           
       0.301208             0.00918896921            0.000724034674           
       0.301887             0.00968253066            0.000742341976           
       0.302567             0.00914237673            0.000717725819           
       0.303246              0.0090925336            0.000720439771           
       0.303925             0.00898140368            0.000725217162           
       0.304604             0.00975937015            0.000739650356           
       0.305283             0.00879514503             0.00071257549           
       0.305962             0.00975348133            0.000745860505           
       0.306642             0.00963341895            0.000751322963           
       0.307321             0.00991335955            0.000759727525           
       0.308000             0.00905358237              0.0007174293           
       0.308679              0.0079235946            0.000685700593           
       0.309358             0.00901657593            0.000721571514           
       0.310037             0.00889284192            0.000718200001           
       0.310717             0.00807044916            0.000683527397           
       0.311396             0.00866578005            0.000713039911           
       0.312075             0.00886276182             0.00073024279           
       0.312754             0.00807190887            0.000682958766           
       0.313433             0.00831767761             0.00069930746           
       0.314112             0.00871880087            0.000715806765           
       0.314792             0.00783752252            0.000683459695           
       0.315471              0.0074608752            0.000658588527           
       0.316150              0.0100087919            0.000769858604           
       0.316829             0.00795584589            0.000690910486           
       0.317508             0.00981948912            0.000758965773           
       0.318187             0.00877196052            0.000726804609           
       0.318866             0.00817748952            0.000692291748           
       0.319546             0.00885434155            0.000731170959           
       0.320225             0.00826072742            0.000706249957           
       0.320904             0.00961798051            0.000750280545           
       0.321583             0.00853419327            0.000722318295           
       0.322262             0.00892096488            0.000727312011           
       0.322941             0.00690262032            0.000647963475           
       0.323621             0.00639568696            0.000619909963           
       0.324300             0.00724292676            0.000660210337           
       0.324979             0.00764602798            0.000679559768           
       0.325658             0.00832940991            0.000710565315           
       0.326337             0.00750985338            0.000675583628           
       0.327016             0.00788776648            0.000687977831           
       0.327696             0.00723477655            0.000666213519           
       0.328375             0.00733522317            0.000665161736           
       0.329054             0.00844912218            0.000717753818           
       0.329733             0.00703564517             0.00065736234           
       0.330412             0.00741217883            0.000669195062           
       0.331091             0.00714470142            0.000668927568           
       0.331771             0.00780171678            0.000680691694           
       0.332450             0.00782730932            0.000695044671           
       0.333129             0.00696170399            0.000653795836           
       0.333808             0.00689010981            0.000651284999           
       0.334487             0.00719360637            0.000668629602           
       0.335166             0.00750884534            0.000673125199           
       0.335846             0.00730764975            0.000675715359           
       0.336525             0.00720524077            0.000664339472           
       0.337204             0.00577451477             0.00059629426           
       0.337883             0.00912204897            0.000750454516           
       0.338562             0.00735107189            0.000677418247           
       0.339241             0.00669221796             0.00064755943           
       0.339921             0.00665146431            0.000634758302           
       0.340600             0.00665817583            0.000647138906           
       0.341279              0.0071892723            0.000665252792           
       0.341958             0.00644951619            0.000638987165           
       0.342637             0.00712889803            0.000662309019           
       0.343316             0.00684777051            0.000650997971           
       0.343995             0.00727693488            0.000682076197           
       0.344675             0.00632863739            0.000624393193           
       0.345354             0.00759431417            0.000688497922           
       0.346033             0.00595560491            0.000608117787           
       0.346712             0.00603575103            0.000616102217           
       0.347391             0.00661582598            0.000649022749           
       0.348070             0.00611630787             0.00061517789           
       0.348750             0.00611266316            0.000623880926           
       0.349429             0.00661704788            0.000640730576           
       0.350108             0.00550970637            0.000591701144           
       0.350787             0.00676692172            0.000644602818           
       0.351466             0.00516204845            0.000573370166           
       0.352145             0.00689112555            0.000663024192           
       0.352825             0.00575318183            0.000603068611           
       0.353504             0.00560774168            0.000595251029           
       0.354183             0.00604035289            0.000610667364           
       0.354862             0.00606770222            0.000626270655           
       0.355541             0.00558235584            0.000592834394           
       0.356220             0.00549427407            0.000589249683           
       0.356900             0.00591353906            0.000617125622           
       0.357579             0.00527088272            0.000575484096           
       0.358258             0.00549209026            0.000595565137           
       0.358937             0.00570196581            0.000595429178           
       0.359616              0.0056810212            0.000602634065           
       0.360295             0.00613883548            0.000626967626           
       0.360975             0.00463240845             0.00054230572           
       0.361654              0.0053858587            0.000587761983           
       0.362333             0.00583734718            0.000608790487           
       0.363012             0.00476087782             0.00055687246           
       0.363691             0.00581291024            0.000603191405           
       0.364370              0.0046117262            0.000543932001           
       0.365050              0.0052070956            0.000574884322           
       0.365729             0.00556774077            0.000600127574           
       0.366408             0.00591019387            0.000619677166           
       0.367087             0.00553208532            0.000589911753           
       0.367766             0.00550835377            0.000600910026           
       0.368445             0.00512944264            0.000569578573           
       0.369124              0.0046216878            0.000544900511           
       0.369804             0.00518571165            0.000576269483           
       0.370483             0.00547402599            0.000594663023           
       0.371162             0.00563329741            0.000606749578           
       0.371841             0.00541212334            0.000584349986           
       0.372520             0.00591528354            0.000623155092           
       0.373199             0.00493868756            0.000562592867           
       0.373879             0.00465865243            0.000552736207           
       0.374558             0.00554165225            0.000594050447           
       0.375237             0.00408620976            0.000510946425           
       0.375916             0.00518844142             0.00058677924           
       0.376595             0.00477015372             0.00055163313           
       0.377274             0.00436221246            0.000535962302           
       0.377954             0.00344378921            0.000468729863           
       0.378633             0.00486087583            0.000563917419           
       0.379312             0.00556539332            0.000603248881           
       0.379991             0.00433828796            0.000529851441           
       0.380670              0.0045774915            0.000553882571           
       0.381349             0.00397971407             0.00050903649           
       0.382029             0.00457888067            0.000553835983           
       0.382708             0.00468044433             0.00054771687           
       0.383387             0.00456717978            0.000553310448           
       0.384066             0.00539587351            0.000595898746           
       0.384745             0.00444822643            0.000543173949           
       0.385424              0.0050263021            0.000579351761           
       0.386104             0.00437937495            0.000534808124           
       0.386783             0.00478864148            0.000571336116           
       0.387462             0.00408606696            0.000514633083           
       0.388141             0.00403315817            0.000519456512           
       0.388820             0.00560669631            0.000608036012           
       0.389499              0.0040808581            0.000521662412           
       0.390178             0.00424293694            0.000534039162           
       0.390858             0.00318825558            0.000459185231           
       0.391537             0.00406618151            0.000523862062           
       0.392216             0.00462089037            0.000551452957           
       0.392895             0.00359539456            0.000488067114           
       0.393574             0.00408934555            0.000519224676           
       0.394253             0.00433521735            0.000537011083           
       0.394933             0.00354893791            0.000491429989           
       0.395612             0.00314291868            0.000449031739           
       0.396291             0.00395077905            0.000513694249           
       0.396970             0.00434796571            0.000534123182           
       0.397649             0.00449825542            0.000544948553           
       0.398328             0.00464348339            0.000551241917           
       0.399008             0.00430671147            0.000529722357           
       0.399687             0.00380489424            0.000499841591           
       0.400366             0.00399049819            0.000509929788           
       0.401045             0.00435835379            0.000531907559           
       0.401724             0.00358957361            0.000483526935           
       0.402403             0.00404880186            0.000517528535           
       0.403083             0.00398402613            0.000505969307           
       0.403762             0.00389340412            0.000502648207           
       0.404441             0.00434970018            0.000534670619           
       0.405120             0.00398474829            0.000510070966           
       0.405799             0.00420546919            0.000521730908           
       0.406478             0.00382046105            0.000497288176           
       0.407158             0.00380146696            0.000495119487           
       0.407837             0.00463985065            0.000551826864           
       0.408516             0.00514419139            0.000575989752           
       0.409195                0.00389303            0.000506756061           
       0.409874             0.00286095152            0.000440464706           
       0.410553             0.00347022393            0.000490321051           
       0.411233             0.00364117516            0.000499650583           
       0.411912             0.00355251552            0.000500522948           
       0.412591             0.00296489339            0.000460283448           
       0.413270             0.00313973442            0.000471410351           
       0.413949             0.00315441118             0.00047767166           
       0.414628             0.00363684748            0.000511979316           
       0.415307             0.00321663188            0.000486849543           
       0.415987             0.00279081162            0.000449744325           
       0.416666             0.00397584587            0.000533573618           
       0.417345              0.0031476131            0.000482683834           
       0.418024              0.0028567311            0.000459851732           
       0.418703               0.003059416            0.000475011179           
       0.419382             0.00318559465            0.000482332338           
       0.420062             0.00291573651            0.000462743532           
       0.420741             0.00271818565            0.000449168459           
       0.421420             0.00273845138            0.000452549573           
       0.422099             0.00251497967            0.000433702743           
       0.422778             0.00292332826            0.000470120529           
       0.423457             0.00372818039            0.000534157078           
       0.424137              0.0025580917            0.000435253953           
       0.424816             0.00360061956            0.000527176669           
       0.425495             0.00260189155            0.000447714455           
       0.426174             0.00198781776            0.000391468521           
       0.426853             0.00197107899            0.000387448975           
       0.427532             0.00261637296             0.00045016189           
       0.428212             0.00266529127                0.00045735           
       0.428891             0.00263539665            0.000453743495           
       0.429570             0.00280580739            0.000468503877           
       0.430249             0.00269832323            0.000457057182           
       0.430928             0.00242633647            0.000442887675           
       0.431607             0.00255377184            0.000446562308           
       0.432287             0.00268739111             0.00046145104           
       0.432966              0.0023350091            0.000433918175           
       0.433645             0.00129914663            0.000324000685           
       0.434324             0.00167287932            0.000365446101           
       0.435003             0.00200338483            0.000400603133           
       0.435682              0.0022885915             0.00043168174           
       0.436361             0.00244504264             0.00044559584           
       0.437041             0.00210767522            0.000413161443           
       0.437720             0.00260285139            0.000461351955           
       0.438399            0.000503979693            0.000204067846           
       0.439078             0.00203778773            0.000422242651           
       0.439757             0.00252977283             0.00046756249           
       0.440436             0.00184670877            0.000408485797           
       0.441116             0.00199851044            0.000431891943           
       0.441795             0.00238661585            0.000472537276           
       0.442474             0.00296945976            0.000528558245           
       0.443153             0.00252993513            0.000499257233           
       0.443832             0.00224640794            0.000471243536           
       0.444511             0.00193096678            0.000434937867           
       0.445191             0.00234410212            0.000490868421           
       0.445870             0.00163479511            0.000409940056           
       0.446549              0.0019866614            0.000456674027           
       0.447228             0.00184914131            0.000438095155           
       0.447907             0.00223377905            0.000487285779           
       0.448586              0.0014624957            0.000403772544           
       0.449266             0.00121542492            0.000364703833           
       0.449945             0.00336540007            0.000604393204           
       0.450624             0.00296065555            0.000575887612           
       0.451303             0.00186687082            0.000463227575           
       0.451982             0.00262881407            0.000546291077           
       0.452661             0.00179072617            0.000459277595           
       0.453341             0.00370627265            0.000663053617           
       0.454020             0.00276586505            0.000573662916           
       0.454699              0.0017418657            0.000459406493           
       0.455378               0.001130387            0.000370285217           
       0.456057             0.00131063497            0.000405806979           
       0.456736             0.00278466374            0.000589669446           
       0.457416             0.00178906264            0.000472658367           
       0.458095              0.0024882343             0.00056548396           
       0.458774             0.00203982949            0.000518768401           
       0.459453             0.00194949064            0.000509708662           
       0.460132             0.00145896276            0.000431421446           
       0.460811             0.00228459727            0.000560006213           
       0.461490             0.00142869939            0.000438347827           
       0.462170             0.00161574498            0.000473434428           
       0.462849             0.00190682075            0.000517649813           
       0.463528             0.00205127647             0.00053565474           
       0.464207             0.00127873348            0.000430837915           
       0.464886             0.00125392334             0.00042331578           
       0.465565             0.00229415987            0.000578876035           
       0.466245             0.00129409828            0.000436116921           
       0.466924             0.00106105022            0.000404228404           
       0.467603             0.00100931585             0.00038588825           
       0.468282             0.00150599336            0.000482544983           
       0.468961            0.000456349306            0.000267373676           
       0.469640             0.00125748982            0.000445606262           
       0.470320            0.000923560914            0.000382148261           
       0.470999            0.000961817054            0.000393661001           
       0.471678             0.00130528746            0.000463002963           
       0.472357             0.00116425637              0.0004384961           
       0.473036             0.00199491177             0.00057761168           
       0.473715            0.000864938037            0.000383310591           
       0.474395             0.00160157707            0.000528803658           
       0.475074             0.00158561608            0.000526177412           
       0.475753              0.0012183631            0.000457254379           
       0.476432               0.001133181            0.000457034567           
       0.477111            0.000396632159              0.0002671219           
       0.477790            0.000403340954            0.000270810777           
       0.478470            0.000240339588            0.000211810773           
       0.479149               0.001196653            0.000477516578           
       0.479828             0.00136910013            0.000509563573           
       0.480507            0.000448255289            0.000293921146           
       0.481186             0.00028002034             0.00023754408           
       0.481865            5.54804978e-05            0.000104425854           
       0.482545              0.0006844259            0.000371084402           
       0.483224            0.000267511916             0.00023358153           
       0.483903             0.00110481009            0.000482167922           
       0.484582            0.000323971271            0.000265346507           
       0.485261            0.000285743695            0.000242886578           
       0.485940            0.000554503543            0.000352000183           
       0.486619             0.00054511505            0.000345168358           
       0.487299            0.000586417204            0.000363713199           
       0.487978            0.000333199833            0.000271369256           
       0.488657           -8.62091846e-05                         0           
       0.489336            0.000144366051            0.000182734371           
       0.490015           -0.000319447107                         0           
       0.490694            0.000639533397            0.000398352477           
       0.491374            0.000155593451            0.000194090687           
       0.492053           -6.83460088e-05                         0           
       0.492732           -0.000319524499                         0           
       0.493411           -6.73497359e-05                         0           
       0.494090           -0.000319563772                         0           
       0.494769           -4.81214853e-05                         0           
       0.495449           -0.000319602684                         0           
       0.496128           -0.000319622336                         0           
       0.496807           -3.63426681e-05                         0           
       0.497486           -0.000319661389                         0           
       0.498165           -0.000319681287                         0           
       0.498844            0.000536792431            0.000390643726           
       0.499524           -0.000319720576                         0           
       0.500203             0.00055820771            0.000401254149           
       0.500882           -0.000319760189                         0           
       0.501561            -0.00031977986                         0           
       0.502240           -0.000319799793                         0           
       0.502919           -0.000319819638                         0           
       0.503599           -1.82654907e-05                         0           
       0.504278           -0.000319859768                         0           
       0.504957           -0.000319879736                         0           
       0.505636           -0.000319899575                         0           
       0.506315           -0.000319919741                         0           
       0.506994           -0.000319939547                         0           
       0.507673            2.79182495e-05             9.8452945e-05           
       0.508353           -0.000319979494                         0           
       0.509032            0.000417204811            0.000389760843           
       0.509711           -0.000320019694                         0           
       0.510390            3.89397637e-05            0.000118543191           
       0.511069           -0.000320060466                         0           
       0.511748            4.90903454e-05            0.000134327769           
       0.512428           -0.000320101151                         0           
       0.513107           -0.000320121251                         0           
       0.513786           -0.000320141415                         0           
       0.514465           -0.000320161923                         0           
       0.515144            0.000509561271            0.000462126335           
       0.515823           -0.000320202723                         0           
       0.516503            0.000109815726            0.000214923072           
       0.517182           -0.000320243716                         0           
       0.517861           -0.000320264162                         0           
       0.518540           -0.000320284723                         0           
       0.519219           -0.000320305165                         0           
       0.519898           -0.000320325813                         0           
       0.520578           -0.000320346586                         0           
       0.521257           -0.000320367091                         0           
       0.521936           -0.000320387644                         0           
       0.522615           -0.000320408444                         0           
       0.523294           -0.000320429321                         0           
       0.523973            -0.00032044991                         0           
       0.524653            -0.00032047035                         0           
       0.525332            0.000159654401            0.000275159781           
       0.526011           -0.000320512198                         0           
       0.526690            0.000672974784            0.000574116065           
       0.527369           -0.000320554165                         0           
       0.528048            0.000692028004             0.00059196962           
       0.528728            -0.00032059623                         0           
       0.529407           -0.000320617153                         0           
       0.530086           -0.000320637969                         0           
       0.530765           -0.000320658813                         0           
       0.531444           -0.000320679883                         0           
       0.532123            0.000248923341            0.000377242254           
       0.532802           -0.000320722592                         0           
       0.533482           -0.000320743787                         0           
       0.534161           -0.000320765016                         0           
       0.534840           -0.000320786062                         0           
       0.535519           -0.000320807499                         0           
       0.536198           -0.000320828714                         0           
       0.536877           -0.000320849636                         0           
       0.537557           -0.000320870919                         0           
       0.538236            0.000331463287            0.000463936298           
       0.538915           -0.000320913859                         0           
       0.539594           -0.000320935296                         0           
       0.540273           -0.000320957068                         0           
       0.540952           -0.000320978598                         0           
       0.541632           -0.000320999735                         0           
       0.542311           -0.000321021065                         0           
       0.542990           -0.000321042634                         0           
       0.543669           -0.000321064383                         0           
       0.544348           -0.000321086107                         0           
       0.545027             0.00036073418            0.000492197426           
       0.545707             0.00114825676            0.000920264381           
       0.546386           -0.000321151329                         0           
       0.547065            -0.00032117287                         0           
       0.547744            -0.00032119451                         0           
       0.548423           -0.000321216388                         0           
       0.549102           -0.000321238288                         0           
       0.549782           -0.000321260077                         0           
       0.550461            0.000493502961            0.000637615001           
       0.551140             0.00044435305            0.000585338173           
       0.551819           -0.000321326226                         0           
       0.552498           -0.000321348333                         0           
       0.553177           -0.000321370059                         0           
       0.553856           -0.000321391864                         0           
       0.554536           -0.000321413741                         0           
       0.555215           -0.000321435951                         0           
       0.555894            0.000539992867            0.000676486014           
       0.556573           -0.000321480398                         0           
       0.557252           -0.000321502669                         0           
       0.557931           -0.000321524839                         0           
       0.558611           -0.000321547527                         0           
       0.559290           -0.000321569639                         0           
       0.559969           -0.000321591206                         0           
       0.560648            0.000593964069            0.000736049365           
       0.561327           -0.000321635978                         0           
       0.562006             0.00062202807            0.000767975634           
       0.562686           -0.000321681046                         0           
       0.563365           -0.000321703669                         0           
       0.564044            0.000890559817             0.00104088785           
       0.564723           -0.000321748638                         0           
       0.565402           -0.000321770679                         0           
       0.566081           -0.000321792866                         0           
       0.566761           -0.000321815292                         0           
       0.567440           -0.000321838175                         0           
       0.568119           -0.000321860876                         0           
       0.568798           -0.000321883896                         0           
       0.569477           -0.000321906769                         0           
       0.570156             0.00115323027             0.00130190243           
       0.570836           -0.000321952649                         0           
       0.571515           -0.000321975062                         0           
       0.572194           -0.000321998125                         0           
       0.572873            -0.00032202066                         0           
       0.573552           -0.000322043063                         0           
       0.574231            -0.00032206592                         0           
       0.574911           -0.000322089352                         0           
       0.575590           -0.000322112335                         0           
       0.576269           -0.000322135246                         0           
       0.576948           -0.000322158598                         0           
       0.577627           -0.000322181238                         0           
       0.578306           -0.000322204197                         0           
       0.578985           -0.000322227352                         0           
       0.579665           -0.000322250375                         0           
       0.580344           -0.000322273745                         0           
       0.581023            -0.00032229709                         0           
       0.581702           -0.000322320219                         0           
       0.582381           -0.000322343138                         0           
       0.583060           -0.000322366741                         0           
       0.583740           -0.000322389973                         0           
       0.584419           -0.000322413282                         0           
       0.585098           -0.000322436564                         0           
       0.585777           -0.000322460027                         0           
       0.586456           -0.000322483871                         0           
       0.587135           -0.000322507081                         0           
       0.587815           -0.000322530041                         0           
       0.588494           -0.000322553717                         0           
       0.589173           -0.000322577936                         0           
       0.589852           -0.000322600868                         0           
       0.590531           -0.000322624665                         0           
       0.591210           -0.000322647912                         0           
       0.591890           -0.000322671609                         0           
       0.592569           -0.000322694513                         0           
       0.593248           -0.000322719554                         0           
       0.593927           -0.000322743362                         0           
       0.594606           -0.000322767659                         0           
       0.595285           -0.000322790509                         0           
       0.595965           -0.000322811832                         0           
       0.596644           -0.000322833774                         0           
