################################################################################
# EDF_DataBlockID                     0.Image.Psd
# EDF_BinarySize                      2105344
# EDF_HeaderSize                      2560
# ByteOrder                           LowByteFirst
# DataType                            FloatValue
# Dim_1                               512
# Dim_2                               1028
# Image                               0
# HeaderID                            EH:000000:000000:000000
# Size                                2105344
# Center_1                            304.9000
# Center_2                            588.7000
# Comment                             Xenocs_Cell_Window - 20251028_20perc_iodine_1.23mg
# DDummy                              0.6
# Date                                2025-10-28T15:11:15
# Delta                               21.910000
# Dummy                               -1.5
# ExposureTime                        360
# Gamma                               15.360000
# Intensity1                          8.6471e-10
# PSize_1                             7.5e-05
# PSize_2                             7.5e-05
# Pressure                            0.0407906
# SampleDistance                      0.115750
# SampleEnvKind                       large
# SampleEnvPN                         ElectroChemical cell
# SampleEnvSN                         1141
# Thickness                           0
# Wavelength                          1.541891e-10
# Wavelength                          1.54189e-10
# aux                                 0
# aux_dial                            0.002375
# beamx                               588.434
# beamx_dial                          588.434
# beamz                               657.808
# beamz_dial                          657.808
# det0x                               0
# det0x_dial                          6.36945
# det0xvd                             0
# det0xvd_dial                        0
# det0y                               450.002
# det0y_dial                          481.635
# det0z                               0
# det0z_dial                          1.23302
# det0zvd                             0
# det0zvd_dial                        0
# mag                                 1.818
# mag_dial                            1.818
# om                                  0.2499
# om_dial                             -0.610199
# phi                                 -0.0120535
# phi_dial                            0
# ry                                  0.599993
# ry_dial                             0.599993
# s1bot                               0.8
# s1bot_dial                          -1.66094
# s1hl                                0.8
# s1hl_dial                           -0.608437
# s1hr                                0.8
# s1hr_dial                           0.970938
# s1top                               0.8
# s1top_dial                          -0.461562
# s2bot                               0.45
# s2bot_dial                          1.36109
# s2hl                                0.45
# s2hl_dial                           -0.83375
# s2hr                                0.45
# s2hr_dial                           -0.118594
# s2top                               0.45
# s2top_dial                          1.44734
# w2theta                             32
# w2theta_dial                        32
# waxsch                              19.2605
# waxsch_dial                         -32.7355
# waxsh                               137.085
# waxsh_dial                          -43.5338
# waxsth                              26.0607
# waxsth_dial                         -19.4086
# waxsz                               67.0407
# waxsz_dial                          -23.7954
# wind                                65.9854
# wind_dial                           66.0041
# wpsi                                124
# wpsi_dial                           124
# wstod                               115
# wstod_dial                          115
# x                                   0
# x_dial                              1.00969
# z                                   0
# z_dial                              13.3172
# CountCutoff                         6807993
# DetectorModel                       Dectris EIGER2 Si 500K, S/N E-01-0554
# ThresholdSetting                    4023.88989258
# Saturation                          0
# FlatField                           Corrected
# BackgroundReductionExtra            0.02
# BackgroundCorrectionConstant        0.0026712
# Detector                            0
# Monitor                             0
# Pil_Roi0                            0
# SumForIntensity1                    3.11296e+08
# TransmittedFlux                     864710
# det                                 0
# mon                                 0
# pilai0                              3.11296e+08
# pilai1                              816852
# pilct0                              5.37813e+08
# pilct1                              816852
# pilroi0                             0
# pilroi1                             0
# sec                                 1
# title                               20251028_20perc_iodine_1.23mg_1_00007.edf
# usaxs0                              0
# Operation                           Azimuthal average I(q)
# Error_model                         ErrorModel.poisson
# Geometrical_correction              True
# Transmission_correction             True
# Thickness_correction                False
# Binning mode                        Uniform
# Binning factor                      1.0
# Psi                                 0.0
# Omega                               0.2499
# MaskInvalidPixels                   True
# DetectorEdge                        3
# MaskFiles                           ['WAXS_corrected.edf']
################################################################################
    q(A⁻¹)                Intensity(a.u.)            Sigma_I(a.u.)            
       0.693100           -2.34797826e-05                         0           
       0.695741           -2.34531277e-05                         0           
       0.698381           -2.34603898e-05                         0           
       0.701021             0.00871721082              0.0087466221           
       0.703662               0.008341013             0.00493856132           
       0.706302              0.0102692936             0.00424246719           
       0.708942           -2.33973244e-05                         0           
       0.711583             0.00650387883             0.00377347325           
       0.714223           -2.33850134e-05                         0           
       0.716864             0.00614659479             0.00277104163           
       0.719504             0.00436135166             0.00251886079           
       0.722144             0.00620918212             0.00278328469           
       0.724785             0.00862531929             0.00261673309           
       0.727425              0.0058474459             0.00291470757           
       0.730065             0.00865912511             0.00250893903           
       0.732706             0.00861233873             0.00210117582           
       0.735346              0.0095177494             0.00287934092           
       0.737987             0.00993819675             0.00207910691           
       0.740627             0.00765267538             0.00272217572           
       0.743267             0.00650941789             0.00168160019           
       0.745908             0.00562834565             0.00169648793           
       0.748548             0.00782072096             0.00184330934           
       0.751189             0.00236438907             0.00136568591           
       0.753829             0.00265613099             0.00133058066           
       0.756469             0.00515929654             0.00149535757           
       0.759110             0.00866904643             0.00204270668           
       0.761750             0.00450129131             0.00130151617           
       0.764390              0.0061595373             0.00159353101           
       0.767031              0.0083275748             0.00160451915           
       0.769671             0.00728371792             0.00187187496           
       0.772312             0.00557025556             0.00124620413           
       0.774952             0.00561089377             0.00168899111           
       0.777592             0.00781058515             0.00145147753           
       0.780233             0.00627242015             0.00156931409           
       0.782873             0.00753501251             0.00164504174           
       0.785513             0.00812420152             0.00182611891           
       0.788154             0.00600477151              0.0013133208           
       0.790794             0.00901714395             0.00192404895           
       0.793435             0.00696459398             0.00151907681           
       0.796075             0.00614114839             0.00137411408           
       0.798715             0.00557925302             0.00154774272           
       0.801356             0.00630485015             0.00141606777           
       0.803996             0.00594833402             0.00140228744           
       0.806637             0.00603829936             0.00112436912           
       0.809277             0.00934913404             0.00151432335           
       0.811917             0.00427796257            0.000957610859           
       0.814558             0.00733840694             0.00130353089           
       0.817198             0.00670778039             0.00118400868           
       0.819838             0.00663594122             0.00119187016           
       0.822479             0.00531422997             0.00125246891           
       0.825119             0.00659453182             0.00118749691           
       0.827760             0.00590069275             0.00113784955           
       0.830400             0.00751682234             0.00120871994           
       0.833040             0.00660808684             0.00118735361           
       0.835681             0.00746538202             0.00143470731           
       0.838321              0.0069931823             0.00116548969           
       0.840961             0.00713490041             0.00128265825           
       0.843602             0.00614841219             0.00109191082           
       0.846242             0.00715204115             0.00117748641           
       0.848883             0.00732647338             0.00121959368           
       0.851523             0.00792097162             0.00125235766           
       0.854163             0.00918051521              0.0014338108           
       0.856804             0.00851474284             0.00124156661           
       0.859444             0.00711221047             0.00111180084           
       0.862085             0.00566367868             0.00103406071           
       0.864725             0.00651815848             0.00113528067           
       0.867365             0.00680763656             0.00107585778           
       0.870006             0.00722464158             0.00105614299           
       0.872646             0.00935863767             0.00126051099           
       0.875286             0.00594313119            0.000966386792           
       0.877927             0.00642984759             0.00096995145           
       0.880567             0.00675393285             0.00102990294           
       0.883208             0.00658348519             0.00100724477           
       0.885848             0.00497112508            0.000908777722           
       0.888488             0.00758371125             0.00105279904           
       0.891129             0.00797289849             0.00110839584           
       0.893769             0.00744423258               0.001024992           
       0.896410             0.00867281439             0.00103150111           
       0.899050             0.00801379536             0.00109042082           
       0.901690             0.00755964098             0.00115363743           
       0.904331             0.00789639779             0.00104529525           
       0.906971             0.00861318261             0.00116139695           
       0.909611             0.00738978634            0.000979284568           
       0.912252             0.00635288698            0.000937852844           
       0.914892             0.00726604839             0.00109605849           
       0.917533             0.00791456383             0.00108215019           
       0.920173             0.00599193007            0.000873601504           
       0.922813             0.00924807001             0.00113891518           
       0.925454             0.00715180307            0.000901870187           
       0.928094             0.00748254622            0.000984834258           
       0.930734             0.00781155914             0.00108334293           
       0.933375             0.00939907866             0.00117665521           
       0.936015             0.00460108992            0.000747696024           
       0.938656             0.00784643103             0.00104745377           
       0.941296             0.00678352829            0.000882646448           
       0.943936             0.00639488797              0.0008404109           
       0.946577             0.00795094366            0.000930901692           
       0.949217              0.0077236789            0.000843725461           
       0.951858             0.00796706076            0.000897019746           
       0.954498             0.00839275197             0.00106566207           
       0.957138             0.00521067816            0.000795483027           
       0.959779             0.00590083315            0.000834500952           
       0.962419             0.00578447619            0.000820736512           
       0.965059             0.00914520769             0.00108536605           
       0.967700             0.00863493493             0.00108017243           
       0.970340              0.0059144803            0.000791072982           
       0.972981             0.00779078191            0.000827204516           
       0.975621              0.0067579052            0.000819595773           
       0.978261             0.00905158692            0.000901280584           
       0.980902             0.00765118217            0.000991417362           
       0.983542             0.00754702425            0.000871968203           
       0.986182             0.00680360768            0.000812835603           
       0.988823              0.0069646139            0.000798549081           
       0.991463             0.00801079529            0.000913719427           
       0.994104             0.00753198495            0.000864298767           
       0.996744             0.00827132051             0.00092383277           
       0.999384             0.00900569239            0.000862113581           
       1.002025             0.00668442731            0.000828998298           
       1.004665             0.00696957597             0.00077359226           
       1.007306             0.00695641349            0.000768905494           
       1.009946             0.00812829397            0.000847657813           
       1.012586             0.00787936941              0.0008128292           
       1.015227             0.00813861419            0.000887482207           
       1.017867              0.0076903956            0.000829112386           
       1.020507             0.00746872301            0.000791448753           
       1.023148             0.00818560164            0.000894040875           
       1.025788             0.00746465893            0.000782832856           
       1.028429             0.00873106668            0.000886992455           
       1.031069             0.00742488655            0.000769730239           
       1.033709             0.00702257303            0.000795748888           
       1.036350             0.00763495861            0.000745201463           
       1.038990             0.00714705347            0.000734247016           
       1.041630             0.00754533024            0.000786876032           
       1.044271             0.00739378388            0.000732558976           
       1.046911             0.00812482273            0.000807752012           
       1.049552              0.0084448483            0.000865198056           
       1.052192             0.00822942586            0.000779893765           
       1.054832             0.00806281292            0.000778980925           
       1.057473             0.00849860238            0.000788390167           
       1.060113              0.0101041033            0.000838382207           
       1.062754             0.00877149629            0.000797532241           
       1.065394             0.00834655166            0.000822519373           
       1.068034             0.00858880425            0.000759162753           
       1.070675             0.00680041871             0.00070464736           
       1.073315             0.00835431858            0.000792210083           
       1.075955             0.00923561896            0.000786350464           
       1.078596             0.00976935325             0.00085954428           
       1.081236              0.0078997824            0.000740135601           
       1.083877             0.00720380875             0.00070044065           
       1.086517             0.00820809473            0.000801723776           
       1.089157              0.0077492036            0.000808289836           
       1.091798             0.00787705233            0.000714462795           
       1.094438             0.00933547352            0.000775286013           
       1.097078             0.00770854757            0.000675687951           
       1.099719             0.00872715999            0.000777650188           
       1.102359             0.00809748257            0.000701513691           
       1.105000             0.00844467031            0.000801069118           
       1.107640             0.00792072032             0.00074181009           
       1.110280             0.00657046281            0.000616460069           
       1.112921             0.00847306893            0.000752002088           
       1.115561              0.0102110483             0.00078459892           
       1.118202             0.00810093721            0.000699502392           
       1.120842             0.00820594636            0.000739931131           
       1.123482             0.00873492577            0.000760073487           
       1.126123             0.00924451084            0.000750001995           
       1.128763             0.00918759548            0.000752816073           
       1.131403              0.0088173541            0.000710636343           
       1.134044             0.00922617853            0.000748006898           
       1.136684             0.00951408483            0.000809852686           
       1.139325             0.00912425619             0.00073059156           
       1.141965              0.0085902869            0.000713577868           
       1.144605              0.0101724072            0.000740408592           
       1.147246             0.00991593645            0.000748130897           
       1.149886             0.00835393392            0.000684245227           
       1.152527             0.00870895307            0.000708792748           
       1.155167             0.00934781931            0.000698459955           
       1.157807              0.0104961119            0.000793537658           
       1.160448             0.00910415034            0.000721699924           
       1.163088              0.0092592251            0.000694233634           
       1.165728              0.0100976623            0.000744355338           
       1.168369             0.00876572849            0.000699935049           
       1.171009             0.00938691213            0.000702924225           
       1.173650              0.0085863456            0.000689921362           
       1.176290             0.00851992603            0.000671595212           
       1.178930               0.010588209            0.000733782505           
       1.181571             0.00850400325            0.000670649716           
       1.184211             0.00988871601            0.000725756761           
       1.186851              0.0101807866            0.000719964394           
       1.189492             0.00768456858            0.000621295917           
       1.192132             0.00914156457            0.000670036845           
       1.194773              0.0101744084            0.000709964142           
       1.197413              0.0102900623            0.000684101465           
       1.200053             0.00985568263            0.000686517758           
       1.202694             0.00852540083            0.000607183845           
       1.205334             0.00892687975            0.000669584352           
       1.207975             0.00913661632            0.000646601805           
       1.210615              0.0100079122            0.000746549086           
       1.213255              0.0103569683            0.000680075883           
       1.215896             0.00893190201            0.000643000877           
       1.218536             0.00895777257            0.000619167604           
       1.221176              0.0108784976            0.000741829633           
       1.223817               0.010552095            0.000685841455           
       1.226457             0.00973002919            0.000671852455           
       1.229098              0.0103427269            0.000692648993           
       1.231738             0.00908348257             0.00065231005           
       1.234378              0.0100318644            0.000644146955           
       1.237019             0.00992823582            0.000660349997           
       1.239659              0.0102628704            0.000665537978           
       1.242299             0.00948324378            0.000631631467           
       1.244940              0.0104492693            0.000644830942           
       1.247580              0.0091517627            0.000621924605           
       1.250221             0.00939170901            0.000626137366           
       1.252861             0.00911574757            0.000587262939           
       1.255501              0.0118337848            0.000726526843           
       1.258142             0.00963914017            0.000616153177           
       1.260782              0.0100680249            0.000643336819           
       1.263423             0.00970326816            0.000606872632           
       1.266063              0.0109959553            0.000662165791           
       1.268703              0.0108025989            0.000650871937           
       1.271344             0.00930207911            0.000624447709           
       1.273984             0.00925631932            0.000601608071           
       1.276624              0.0108352631            0.000638671771           
       1.279265              0.0103127117            0.000633428119           
       1.281905              0.0104309005            0.000639874793           
       1.284546             0.00952760701            0.000591110431           
       1.287186              0.0102269671            0.000600850069           
       1.289826               0.011836119              0.0006812464           
       1.292467             0.00936711176            0.000592692999           
       1.295107              0.0094121029            0.000588212978           
       1.297747               0.011039312            0.000609588151           
       1.300388              0.0109453535             0.00066169401           
       1.303028             0.00973132283            0.000595630574           
       1.305669              0.0106109242            0.000636777053           
       1.308309                0.01044985            0.000625702442           
       1.310949               0.011093638            0.000644040449           
       1.313590              0.0100508308            0.000593861085           
       1.316230             0.00997398516            0.000631304928           
       1.318871              0.0101795549            0.000624624785           
       1.321511              0.0107429264            0.000629782825           
       1.324151              0.0107292229            0.000610722193           
       1.326792              0.0108751905            0.000618663822           
       1.329432              0.0102439826              0.0005962043           
       1.332072              0.0107387486            0.000601335021           
       1.334713              0.0111369513            0.000632039586           
       1.337353             0.00964979694             0.00056421918           
       1.339994               0.010223671            0.000609443444           
       1.342634              0.0108110301            0.000600971227           
       1.345274              0.0102323246            0.000605073608           
       1.347915               0.010641123            0.000600002548           
       1.350555              0.0121196091            0.000651544369           
       1.353195              0.0107542212            0.000616761118           
       1.355836               0.011077273            0.000616195573           
       1.358476              0.0112110337            0.000602021641           
       1.361117              0.0114742792            0.000609884637           
       1.363757              0.0104079784            0.000598591761           
       1.366397              0.0111663127            0.000601252926           
       1.369038              0.0117172474            0.000622039684           
       1.371678              0.0102726456            0.000577298866           
       1.374319              0.0104154604             0.00057629247           
       1.376959              0.0120048388            0.000612480501           
       1.379599              0.0106799197            0.000619113366           
       1.382240              0.0116809235            0.000608531787           
       1.384880              0.0112063562            0.000631343952           
       1.387520              0.0116355611            0.000610981451           
       1.390161              0.0110967349            0.000566690246           
       1.392801              0.0113348936            0.000596738658           
       1.395442              0.0116932355            0.000614375834           
       1.398082              0.0114621809            0.000569623607           
       1.400722              0.0102418557            0.000564011798           
       1.403363              0.0111718505            0.000620059914           
       1.406003              0.0111822875            0.000580563794           
       1.408644              0.0112351432             0.00060961398           
       1.411284              0.0117728183            0.000590901538           
       1.413924              0.0113515571            0.000578082182           
       1.416565              0.0122167179            0.000597351307           
       1.419205              0.0111843576            0.000596223123           
       1.421845              0.0113225704            0.000599543532           
       1.424486               0.010221291            0.000547555744           
       1.427126              0.0116049939            0.000606083732           
       1.429767              0.0114999397            0.000567664151           
       1.432407               0.010975708            0.000580375253           
       1.435047              0.0110591147            0.000547135819           
       1.437688              0.0118001919            0.000573620812           
       1.440328              0.0111196333            0.000568311406           
       1.442968              0.0108516844            0.000574001362           
       1.445609              0.0110390673            0.000560570573           
       1.448249              0.0110143035            0.000574118799           
       1.450890              0.0121447715            0.000598927162           
       1.453530              0.0102385074            0.000575324468           
       1.456170             0.00991062686            0.000549352518           
       1.458811              0.0113697799            0.000562645672           
       1.461451              0.0112193661            0.000560377751           
       1.464092              0.0116770836            0.000575432009           
       1.466732              0.0104616419            0.000539981172           
       1.469372              0.0109441644            0.000539368218           
       1.472013               0.010756677            0.000576715081           
       1.474653              0.0107916516            0.000568740881           
       1.477293              0.0106782547            0.000577668887           
       1.479934              0.0106995702            0.000551766681           
       1.482574              0.0121388777            0.000568515629           
       1.485215              0.0113687782            0.000560433988           
       1.487855              0.0111514894            0.000562374486           
       1.490495              0.0117603657             0.00057539643           
       1.493136              0.0128099858             0.00059229365           
       1.495776              0.0115274048            0.000559302194           
       1.498416              0.0110604578            0.000565781438           
       1.501057              0.0115114386            0.000564480174           
       1.503697              0.0114721692            0.000550927299           
       1.506338             0.00961906451            0.000513691502           
       1.508978              0.0106463015            0.000535110191           
       1.511618             0.00962528078            0.000541873812           
       1.514259             0.00969886596            0.000525149728           
       1.516899              0.0109549301            0.000543423724           
       1.519540              0.0108075827            0.000548460717           
       1.522180             0.00985033766            0.000528208272           
       1.524820              0.0106399127            0.000545890097           
       1.527461              0.0104965618              0.0005448818           
       1.530101               0.010761204            0.000546190227           
       1.532741              0.0102401541            0.000529711039           
       1.535382             0.00970081237            0.000523872688           
       1.538022              0.0109898939            0.000525283504           
       1.540663              0.0110823094            0.000567345348           
       1.543303              0.0111018499            0.000527253628           
       1.545943              0.0102504645             0.00053623387           
       1.548584              0.0107808582            0.000559803806           
       1.551224              0.0109026923            0.000520507949           
       1.553864              0.0113382749            0.000560893343           
       1.556505              0.0111301207             0.00053684078           
       1.559145              0.0107568613            0.000534227314           
       1.561786              0.0111867216            0.000545216594           
       1.564426              0.0103508171            0.000508138468           
       1.567066              0.0115967349             0.00056356541           
       1.569707             0.00983307513            0.000509622897           
       1.572347              0.0091027932            0.000506563557           
       1.574988             0.00922064354            0.000485274728           
       1.577628              0.0103693989            0.000536618296           
       1.580268              0.0104501096             0.00052194549           
       1.582909               0.010138102            0.000544919847           
       1.585549              0.0108271492            0.000546784625           
       1.588189              0.0103856206            0.000523831788           
       1.590830             0.00981887444            0.000508699192           
       1.593470              0.0103911446              0.0005440345           
       1.596111             0.00968689153            0.000512831854           
       1.598751             0.00966563917            0.000496371478           
       1.601391             0.00926504952            0.000496698634           
       1.604032             0.00981106763            0.000521810278           
       1.606672             0.00974404539            0.000505253564           
       1.609312             0.00972633422            0.000526946078           
       1.611953              0.0102198544            0.000528569906           
       1.614593             0.00986472142            0.000509397061           
       1.617234             0.00984786145            0.000527475927           
       1.619874              0.0094819497            0.000515539008           
       1.622514             0.00895461893            0.000494163957           
       1.625155             0.00896629618            0.000497407233           
       1.627795             0.00931101859             0.00049445939           
       1.630436             0.00994341064            0.000508306936           
       1.633076              0.0094671975            0.000502490649           
       1.635716              0.0106626168            0.000524975207           
       1.638357             0.00954591713            0.000498033951           
       1.640997             0.00959966952            0.000514563055           
       1.643637             0.00876929315            0.000478581493           
       1.646278             0.00987672148            0.000523860435           
       1.648918             0.00918863083            0.000506661276           
       1.651559             0.00888106258            0.000501975511           
       1.654199             0.00935504265            0.000501073905           
       1.656839             0.00940070217            0.000502470556           
       1.659480              0.0095203812            0.000524647318           
       1.662120             0.00944306052            0.000492120686           
       1.664761             0.00971911476            0.000518604443           
       1.667401              0.0091041571            0.000479737162           
       1.670041             0.00849230206            0.000470401003           
       1.672682              0.0104956167            0.000520799791           
       1.675322             0.00897807043            0.000478582245           
       1.677962             0.00856247743            0.000462218531           
       1.680603             0.00909106701            0.000477737621           
       1.683243             0.00915238332            0.000500108161           
       1.685884             0.00845019635            0.000484089392           
       1.688524             0.00898548145            0.000489537168           
       1.691164             0.00884726248            0.000485867683           
       1.693805             0.00928415203            0.000503187172           
       1.696445              0.0092374587            0.000504831719           
       1.699085             0.00975571073            0.000501415839           
       1.701726             0.00877400964            0.000458079304           
       1.704366             0.00871618791            0.000480981251           
       1.707007             0.00961874266             0.00049400755           
       1.709647             0.00884950916            0.000479193659           
       1.712287             0.00903147015            0.000488308793           
       1.714928             0.00811395605            0.000466572507           
       1.717568             0.00880999645            0.000457976736           
       1.720209             0.00877791961            0.000478824787           
       1.722849             0.00884720313            0.000478239356           
       1.725489             0.00908455505            0.000485018902           
       1.728130             0.00845616761            0.000497293045           
       1.730770             0.00962366604            0.000503844581           
       1.733410             0.00848645172            0.000465702405           
       1.736051               0.009315369            0.000491312547           
       1.738691             0.00939729793            0.000483465128           
       1.741332             0.00918778959            0.000492023799           
       1.743972             0.00972299367            0.000522687453           
       1.746612             0.00945933406            0.000495061214           
       1.749253             0.00894542063             0.00049093278           
       1.751893             0.00910842278            0.000491749223           
       1.754533             0.00855637173            0.000476169029           
       1.757174             0.00946261391            0.000496061788           
       1.759814             0.00803819617            0.000450273149           
       1.762455             0.00980329086            0.000506389775           
       1.765095             0.00906504105            0.000465826343           
       1.767735             0.00823878686            0.000457789955           
       1.770376             0.00895064126            0.000478415359           
       1.773016               0.008720071            0.000469050108           
       1.775657             0.00922951554            0.000475613732           
       1.778297              0.0092723894            0.000472612187           
       1.780937             0.00813216643            0.000467165005           
       1.783578             0.00799052728            0.000451499861           
       1.786218             0.00952738659            0.000514511139           
       1.788858             0.00812459583            0.000451255029           
       1.791499             0.00865978638            0.000460648473           
       1.794139              0.0081199124            0.000442439442           
       1.796780             0.00917907399            0.000468143333           
       1.799420             0.00905594675              0.0004624179           
       1.802060             0.00959597972            0.000479850778           
       1.804701             0.00867697552            0.000437881464           
       1.807341             0.00926626625            0.000475485843           
       1.809981             0.00900984684            0.000470423983           
       1.812622             0.00914904263            0.000465509587           
       1.815262             0.00857457111            0.000460230932           
       1.817903             0.00804791071            0.000439266557           
       1.820543             0.00836968196             0.00045494212           
       1.823183             0.00878345049            0.000465795652           
       1.825824             0.00907993311            0.000452450423           
       1.828464             0.00798707787            0.000442402638           
       1.831105             0.00816356275            0.000434897777           
       1.833745             0.00770892088            0.000431639987           
       1.836385             0.00832123746             0.00046125317           
       1.839026             0.00917187647            0.000482725456           
       1.841666             0.00811420557            0.000452429997           
       1.844306             0.00880981728            0.000458561125           
       1.846947             0.00829506207            0.000448863121           
       1.849587             0.00805415118             0.00048840311           
       1.852228             0.00835297299            0.000449755555           
       1.854868             0.00829623332            0.000473483858           
       1.857508             0.00778238771             0.00045408859           
       1.860149             0.00879132783            0.000491395395           
       1.862789              0.0079033377            0.000449718231           
       1.865429             0.00771036565            0.000463670599           
       1.868070             0.00756710651            0.000453220652           
       1.870710             0.00799502667            0.000455119062           
       1.873351             0.00864947986            0.000479232232           
       1.875991             0.00861056965            0.000485956647           
       1.878631             0.00845880059             0.00047243014           
       1.881272             0.00769364779            0.000447537742           
       1.883912              0.0081781464            0.000480197979           
       1.886553             0.00766763826            0.000459770319           
       1.889193             0.00779919842            0.000462905574           
       1.891833             0.00829338127            0.000495742383           
       1.894474             0.00830155927              0.0004916672           
       1.897114             0.00748337236            0.000451722217           
       1.899754             0.00785539056             0.00046475064           
       1.902395             0.00821310829            0.000465923698           
       1.905035             0.00757554776            0.000473950226           
       1.907676             0.00856097316            0.000474864822           
       1.910316             0.00762335025            0.000460004623           
       1.912956               0.008433367            0.000473182375           
       1.915597             0.00758541106            0.000451271676           
       1.918237             0.00778008567            0.000471996434           
       1.920878             0.00754761841            0.000462988281           
       1.923518              0.0079076754            0.000474104064           
       1.926158             0.00779474745            0.000464598482           
       1.928799             0.00792747126            0.000463113776           
       1.931439             0.00847289223             0.00049133814           
       1.934079             0.00736437865             0.00047752763           
       1.936720             0.00759585486            0.000449342833           
       1.939360             0.00825261723            0.000499681188           
       1.942001             0.00737279586            0.000432882471           
       1.944641             0.00776425484             0.00045297606           
       1.947281             0.00733647661             0.00043626207           
       1.949922             0.00854400157            0.000486292396           
       1.952562             0.00815437726            0.000489966569           
       1.955202             0.00665406776            0.000442063792           
       1.957843             0.00756879576            0.000459244129           
       1.960483             0.00739650789             0.00047464298           
       1.963124             0.00814917936            0.000487986986           
       1.965764             0.00716770783            0.000431584702           
       1.968404             0.00709544166            0.000425346361           
       1.971045             0.00789666651            0.000457493083           
       1.973685             0.00732186427            0.000462080936           
       1.976326             0.00776598638            0.000469348359           
       1.978966             0.00799469628            0.000480388556           
       1.981606             0.00830442807            0.000499816819           
       1.984247             0.00720444554            0.000462478535           
       1.986887             0.00810081315             0.00048453132           
       1.989527             0.00708435262            0.000448234398           
       1.992168             0.00735156922             0.00047377125           
       1.994808             0.00777153021            0.000485027438           
       1.997449             0.00768454772            0.000472400597           
       2.000089             0.00746420988             0.00046373294           
       2.002729             0.00772406517            0.000472018786           
       2.005370             0.00707414007            0.000446863569           
       2.008010             0.00830361352            0.000505270325           
       2.010650             0.00850801371            0.000515267705           
       2.013291              0.0082510014             0.00048684654           
       2.015931             0.00854194399            0.000491854029           
       2.018572             0.00770253496            0.000499567183           
       2.021212             0.00736404086            0.000479690768           
       2.023852             0.00763254532            0.000462207475           
       2.026493             0.00735238947            0.000473913341           
       2.029133             0.00800102802            0.000484427381           
       2.031774              0.0070022713            0.000475607288           
       2.034414             0.00757948425            0.000455304834           
       2.037054             0.00735131964             0.00045976492           
       2.039695             0.00815898025            0.000480704995           
       2.042335             0.00644398073            0.000443961296           
       2.044975             0.00803838404            0.000489839012           
       2.047616             0.00801604861            0.000487942906           
       2.050256             0.00780581607            0.000486058611           
       2.052897             0.00755531811            0.000487011734           
       2.055537             0.00791614533            0.000481786584           
       2.058177             0.00730146226            0.000453111453           
       2.060818             0.00754434443            0.000482499663           
       2.063458             0.00817548379            0.000523422165           
       2.066098             0.00744748361            0.000471265989           
       2.068739              0.0070028531            0.000464085038           
       2.071379             0.00734861929            0.000487802804           
       2.074020             0.00808871978            0.000500655294           
       2.076660             0.00783039692            0.000496578037           
       2.079300              0.0071629641            0.000486580635           
       2.081941             0.00773263289             0.00046289716           
       2.084581              0.0072443906            0.000472915995           
       2.087222             0.00742700334            0.000461794841           
       2.089862             0.00707236048            0.000490809759           
       2.092502             0.00778035191            0.000499016004           
       2.095143             0.00781768006            0.000516543339           
       2.097783             0.00815568109            0.000510797548           
       2.100423             0.00817207447            0.000492694883           
       2.103064             0.00735355072            0.000484958744           
       2.105704             0.00712004061            0.000474833078           
       2.108345             0.00786045358            0.000479320565           
       2.110985             0.00650412181            0.000465690383           
       2.113625             0.00763464705            0.000508944972           
       2.116266             0.00795882073              0.0005270102           
       2.118906             0.00748165941            0.000476193465           
       2.121546              0.0077180934            0.000474424686           
       2.124187             0.00729088985            0.000484020851           
       2.126827             0.00722778804            0.000487300332           
       2.129468             0.00734204419            0.000492391355           
       2.132108             0.00740764381            0.000481194706           
       2.134748             0.00740329121            0.000479186932           
       2.137389             0.00731712783             0.00049699337           
       2.140029             0.00726376403             0.00044331336           
       2.142670             0.00741773247              0.0004787735           
       2.145310              0.0068475795            0.000447731633           
       2.147950             0.00772457921            0.000489459799           
       2.150591             0.00693820335            0.000459189331           
       2.153231              0.0064070949            0.000454213058           
       2.155871             0.00771697112            0.000481570082           
       2.158512             0.00694346662            0.000476636369           
       2.161152             0.00730788991            0.000473660792           
       2.163793              0.0071566032            0.000466622144           
       2.166433             0.00786784757            0.000502418631           
       2.169073             0.00777451382            0.000488310723           
       2.171714             0.00824793532            0.000499198775           
       2.174354             0.00826129101            0.000522038758           
       2.176995             0.00703290054            0.000479639303           
       2.179635             0.00702667957            0.000506617919           
       2.182275             0.00725206083            0.000485938356           
       2.184916             0.00781601667            0.000487261311           
       2.187556             0.00705453254            0.000458277444           
       2.190196             0.00649943574            0.000459666528           
       2.192837              0.0073061693            0.000484708405           
       2.195477             0.00742166111            0.000465749976           
       2.198118             0.00774373247            0.000487938886           
       2.200758             0.00836253516            0.000520212646           
       2.203398             0.00666034855            0.000467229108           
       2.206039             0.00728201173            0.000462369173           
       2.208679             0.00726079196            0.000472439937           
       2.211319             0.00766489661            0.000488207788           
       2.213960              0.0072559409            0.000481369539           
       2.216600             0.00779826517            0.000516240258           
       2.219241             0.00715612728             0.00047263624           
       2.221881             0.00712045929            0.000472426241           
       2.224521             0.00654663255            0.000458541268           
       2.227162              0.0071885777              0.0004708766           
       2.229802             0.00797538356            0.000511502904           
       2.232443             0.00851964963            0.000520329559           
       2.235083             0.00595859223            0.000447986226           
       2.237723             0.00708174516            0.000468677025           
       2.240364              0.0072650124            0.000486397349           
       2.243004              0.0084937414            0.000521725264           
       2.245644             0.00743156201            0.000492898881           
       2.248285             0.00674658309            0.000460226037           
       2.250925             0.00706513916            0.000473826988           
       2.253566             0.00704227157            0.000505736876           
       2.256206             0.00701798897            0.000494769407           
       2.258846             0.00730250344            0.000480108288           
       2.261487             0.00668811933            0.000482254349           
       2.264127             0.00747780428            0.000492483039           
       2.266767             0.00748842752            0.000505963148           
       2.269408             0.00743186027            0.000506112604           
       2.272048             0.00677949837            0.000480504036           
       2.274689             0.00751918709            0.000512706401           
       2.277329             0.00728790698            0.000475263821           
       2.279969             0.00667077009            0.000483998073           
       2.282610             0.00713016215            0.000486469124           
       2.285250             0.00727062096            0.000470180843           
       2.287891             0.00681416172            0.000488024187           
       2.290531             0.00830477768            0.000546007147           
       2.293171             0.00760428854             0.00050893567           
       2.295812              0.0074737354             0.00050251985           
       2.298452             0.00609387089            0.000474517595           
       2.301092              0.0072455568             0.00048074495           
       2.303733             0.00679735347            0.000484426584           
       2.306373             0.00694338827            0.000497313167           
       2.309014             0.00743331953            0.000504521644           
       2.311654             0.00678931133            0.000503168526           
       2.314294             0.00678102682            0.000463288102           
       2.316935             0.00702809991            0.000473601356           
       2.319575              0.0074002701            0.000509193812           
       2.322215             0.00699951644            0.000516097107           
       2.324856             0.00750036945            0.000491180912           
       2.327496             0.00771314627            0.000529635973           
       2.330137             0.00635931966            0.000460198296           
       2.332777             0.00683011014            0.000491764421           
       2.335417             0.00730035551            0.000493235048           
       2.338058              0.0072201544            0.000505171099           
       2.340698             0.00759122431            0.000513919174           
       2.343339             0.00739130989            0.000518266374           
       2.345979             0.00781103506            0.000504050755           
       2.348619             0.00701813887            0.000495247977           
       2.351260             0.00741369917            0.000506047759           
       2.353900             0.00711305046            0.000494110443           
       2.356540             0.00701561271            0.000490017919           
       2.359181             0.00654784462            0.000466763264           
       2.361821             0.00723377935             0.00047390933           
       2.364462             0.00645732095            0.000468293951           
       2.367102             0.00691781532            0.000498111169           
       2.369742             0.00707527411            0.000530229682           
       2.372383             0.00771906544             0.00050148972           
       2.375023             0.00748923702            0.000519266983           
       2.377663             0.00690571885            0.000476761261           
       2.380304             0.00625693053             0.00046138005           
       2.382944             0.00717282289            0.000470515302           
       2.385585             0.00695832315            0.000494252498           
       2.388225             0.00741468122            0.000507805357           
       2.390865             0.00722203518            0.000496017034           
       2.393506             0.00803443872             0.00051330183           
       2.396146             0.00733476417            0.000530288587           
       2.398787             0.00792353934            0.000507938022           
       2.401427             0.00648553012            0.000443562589           
       2.404067             0.00685348443            0.000466142417           
       2.406708             0.00681533249             0.00045926892           
       2.409348             0.00734534999            0.000505732143           
       2.411988             0.00665004199            0.000471470511           
       2.414629             0.00796945027            0.000532201109           
       2.417269             0.00753090923            0.000523391221           
       2.419910             0.00830752078            0.000550991675           
       2.422550              0.0065184726            0.000466955419           
       2.425190             0.00704090852            0.000511564602           
       2.427831             0.00609812819            0.000473408662           
       2.430471             0.00613292812            0.000452298255           
       2.433112             0.00687023729            0.000466154094           
       2.435752             0.00707904495            0.000500777462           
       2.438392             0.00747419109            0.000496659569           
       2.441033             0.00779270094            0.000537457611           
       2.443673             0.00607212308            0.000474792931           
       2.446313             0.00661560653            0.000496022686           
       2.448954             0.00724149059             0.00049411883           
       2.451594             0.00662270776            0.000508086987           
       2.454235              0.0064835335            0.000471679705           
       2.456875             0.00773097618            0.000538938178           
       2.459515             0.00846375575            0.000578499535           
       2.462156             0.00686769834            0.000491997755           
       2.464796             0.00848490658             0.00053981068           
       2.467436             0.00752952364            0.000525861719           
       2.470077             0.00798406046            0.000513245196           
       2.472717              0.0070227721            0.000483442115           
       2.475358             0.00712652101               0.000492078           
       2.477998             0.00781338735            0.000506559936           
       2.480638             0.00764323602            0.000509916477           
       2.483279             0.00679892096            0.000502646824           
       2.485919             0.00771977492             0.00051617864           
       2.488560              0.0067595911            0.000481662392           
       2.491200             0.00695362048            0.000503053061           
       2.493840             0.00713116082            0.000539048496           
       2.496481              0.0066908414            0.000513600262           
       2.499121             0.00824212497            0.000554453835           
       2.501761             0.00646885575            0.000497709496           
       2.504402             0.00712749228            0.000514800247           
       2.507042             0.00729549298            0.000516973753           
       2.509683              0.0070967146            0.000502089405           
       2.512323             0.00684969449            0.000518059965           
       2.514963             0.00744089025              0.0005332833           
       2.517604             0.00683320885             0.00053028624           
       2.520244             0.00737722109            0.000516554957           
       2.522884             0.00825367231            0.000554192413           
       2.525525             0.00741351414            0.000531190853           
       2.528165             0.00762965332            0.000530478718           
       2.530806              0.0080626485             0.00055482889           
       2.533446             0.00744229203            0.000521679141           
       2.536086             0.00735509281            0.000513972161           
       2.538727             0.00746400653            0.000496715481           
       2.541367             0.00815405717            0.000524282837           
       2.544008             0.00696951178            0.000500584762           
       2.546648             0.00755914697            0.000530272363           
       2.549288             0.00742776583            0.000536354421           
       2.551929             0.00704914763            0.000514176915           
       2.554569             0.00717257725            0.000499684502           
       2.557209             0.00612398548             0.00046595674           
       2.559850             0.00660387192            0.000485422855           
       2.562490             0.00705069925            0.000518406022           
       2.565131             0.00667445828            0.000522968829           
       2.567771             0.00707927439            0.000519286264           
       2.570411             0.00622746672            0.000481774218           
       2.573052               0.007981454            0.000552286002           
       2.575692             0.00739664053            0.000528448198           
       2.578332             0.00639069539            0.000493232221           
       2.580973              0.0072148241            0.000519084787           
       2.583613             0.00701205655            0.000499553573           
       2.586254             0.00639239764            0.000476307336           
       2.588894             0.00727259906            0.000527578077           
       2.591534             0.00697448516            0.000534831621           
       2.594175             0.00758927839            0.000547378273           
       2.596815             0.00707776718            0.000531726907           
       2.599456             0.00694584691            0.000499512923           
       2.602096             0.00655896918            0.000489096468           
       2.604736             0.00706197498            0.000519538448           
       2.607377             0.00728762905            0.000513865127           
       2.610017             0.00779599174            0.000522185032           
       2.612657             0.00613916875            0.000492881577           
       2.615298             0.00652434945             0.00049607368           
       2.617938             0.00672677859            0.000538841682           
       2.620579             0.00706963007            0.000530301204           
       2.623219             0.00630497595            0.000500088041           
       2.625859             0.00656355293            0.000496096108           
       2.628500             0.00725573716            0.000518180535           
       2.631140             0.00678712774            0.000508890149           
       2.633780             0.00689993819            0.000512655862           
       2.636421             0.00751432135             0.00054814964           
       2.639061              0.0070134527            0.000498525627           
       2.641702             0.00699794709            0.000509502654           
       2.644342             0.00758884347            0.000532838388           
       2.646982             0.00714592779            0.000509325473           
       2.649623             0.00721346788            0.000536269107           
       2.652263             0.00666351323            0.000510249065           
       2.654904             0.00677699496            0.000515093253           
       2.657544             0.00680389089            0.000486126201           
       2.660184             0.00638409428            0.000498339361           
       2.662825             0.00703285624            0.000535182467           
       2.665465             0.00704857438             0.00051818769           
       2.668105             0.00652373488            0.000525461627           
       2.670746             0.00689166524            0.000498915124           
       2.673386              0.0103144555            0.000629027332           
       2.676027              0.0107134015            0.000630787964           
       2.678667             0.00876331288              0.0005566631           
       2.681307              0.0105795639            0.000600965936           
       2.683948              0.0164329947            0.000769549517           
       2.686588              0.0144079838            0.000708626299           
       2.689229              0.0123805986            0.000641876628           
       2.691869             0.00910509463            0.000581777743           
       2.694509             0.00947129868            0.000593687917           
       2.697150             0.00608593617            0.000468180545           
       2.699790             0.00806330065            0.000564956513           
       2.702430             0.00723851648            0.000511666114           
       2.705071             0.00636064997            0.000495614254           
       2.707711              0.0063352724            0.000480070214           
       2.710352             0.00674205918            0.000523286272           
       2.712992             0.00732544466            0.000555541923           
       2.715632             0.00725834251            0.000513066536           
       2.718273             0.00701522111            0.000522743394           
       2.720913             0.00653777992            0.000503205697           
       2.723553             0.00711101683            0.000528324105           
       2.726194             0.00755804616            0.000569367403           
       2.728834             0.00720895882             0.00055632402           
       2.731475             0.00802415884            0.000541691148           
       2.734115             0.00725862578            0.000531193526           
       2.736755             0.00688528521            0.000521610708           
       2.739396             0.00666165533            0.000510097338           
       2.742036             0.00766401973            0.000572605962           
       2.744677             0.00627746648            0.000502822727           
       2.747317             0.00713618775              0.0005322895           
       2.749957             0.00706292834            0.000533266528           
       2.752598             0.00788633257            0.000569609574           
       2.755238             0.00667792672            0.000533618199           
       2.757878              0.0078371444            0.000573026747           
       2.760519             0.00675201196            0.000526239033           
       2.763159             0.00686102848            0.000525169176           
       2.765800             0.00747706619            0.000522463579           
       2.768440             0.00744441793            0.000525162193           
       2.771080             0.00709673009            0.000517031828           
       2.773721             0.00676197105            0.000517709197           
       2.776361             0.00569556842            0.000481690779           
       2.779001             0.00674892432            0.000543012305           
       2.781642             0.00662212163            0.000533922939           
       2.784282             0.00719277517            0.000565602966           
       2.786923             0.00696981241            0.000561669854           
       2.789563             0.00691276395            0.000538735614           
       2.792203             0.00688563136            0.000513635367           
       2.794844             0.00605453455            0.000527870629           
       2.797484              0.0061832958            0.000503450603           
       2.800125              0.0070204186            0.000564076206           
       2.802765             0.00620286773            0.000521094142           
       2.805405             0.00708775329             0.00055890972           
       2.808046             0.00665761604            0.000551207474           
       2.810686             0.00685064738            0.000513785785           
       2.813326              0.0071526354            0.000545317574           
       2.815967             0.00619079906            0.000521753966           
       2.818607              0.0065933212            0.000513827893           
       2.821248             0.00682871253            0.000512063363           
       2.823888             0.00685944931            0.000532729654           
       2.826528             0.00809020629            0.000560298568           
       2.829169             0.00658944246            0.000529657154           
       2.831809             0.00690569199            0.000549593572           
       2.834449             0.00690189156            0.000552914635           
       2.837090             0.00722643221            0.000546439146           
       2.839730              0.0066789184            0.000522765956           
       2.842371               0.007703632            0.000562248538           
       2.845011             0.00729538741            0.000551509227           
       2.847651             0.00703064787            0.000542074938           
       2.850292             0.00635128323            0.000520276058           
       2.852932             0.00787505401            0.000591960789           
       2.855573             0.00644719691            0.000519560344           
       2.858213             0.00655348126            0.000550080206           
       2.860853             0.00772960611            0.000555723659           
       2.863494               0.007117317            0.000552115503           
       2.866134             0.00724798101            0.000579099265           
       2.868774             0.00772934667            0.000587731315           
       2.871415             0.00584366433            0.000518994424           
       2.874055             0.00686665702            0.000537766989           
       2.876696             0.00751772819            0.000577904085           
       2.879336             0.00708019964            0.000540537235           
       2.881976             0.00706303815            0.000556850796           
       2.884617             0.00781638225            0.000577192112           
       2.887257             0.00861077318            0.000608939911           
       2.889897             0.00726314427            0.000547752327           
       2.892538             0.00827970375            0.000640682884           
       2.895178             0.00767869467            0.000557411019           
       2.897819             0.00655918391             0.00052553012           
       2.900459             0.00753191732            0.000552196722           
       2.903099             0.00789459697            0.000559548363           
       2.905740             0.00768272628            0.000566270054           
       2.908380             0.00743177808             0.00056327315           
       2.911021              0.0067007329            0.000543548096           
       2.913661             0.00695483233            0.000553592281           
       2.916301             0.00892704364            0.000627790134           
       2.918942             0.00654048194            0.000513998289           
       2.921582             0.00654611103            0.000538021666           
       2.924222             0.00659862239            0.000523325973           
       2.926863             0.00762385753            0.000585922856           
       2.929503             0.00833803084            0.000620011629           
       2.932144              0.0067580026            0.000535822356           
       2.934784             0.00682634342             0.00052969455           
       2.937424             0.00591541729            0.000498150091           
       2.940065             0.00729154013            0.000527572947           
       2.942705             0.00686741728            0.000511357228           
       2.945346              0.0076891164            0.000574228656           
       2.947986             0.00726530995            0.000569149709           
       2.950626             0.00697078401            0.000554355187           
       2.953267             0.00648173052            0.000525918495           
       2.955907              0.0068000975            0.000558806053           
       2.958547             0.00637272349             0.00051069507           
       2.961188             0.00802568149            0.000597916641           
       2.963828             0.00660620022            0.000530635723           
       2.966469             0.00706105793            0.000538174331           
       2.969109             0.00722860889            0.000552589957           
       2.971749             0.00733637437             0.00055322093           
       2.974390             0.00665369602            0.000517729343           
       2.977030             0.00742166939            0.000559011767           
       2.979670              0.0077686661            0.000556312685           
       2.982311             0.00834422275            0.000597567408           
       2.984951             0.00895915648            0.000588909026           
       2.987592             0.00721526169            0.000539080082           
       2.990232              0.0073222974            0.000564780594           
       2.992872              0.0086186427            0.000577165508           
       2.995513              0.0099994442            0.000608210419           
       2.998153              0.0118513265            0.000673264147           
       3.000794             0.00990372992            0.000596138388           
       3.003434             0.00885414898            0.000564516115           
       3.006074              0.0116997709            0.000639825452           
       3.008715              0.0292452871            0.000976493122           
       3.011355                0.20493921             0.00249273615           
       3.013995               0.335903712             0.00320000891           
       3.016636               0.311592414             0.00301804011           
       3.019276               0.195169848             0.00234791548           
       3.021917               0.629949161             0.00405601954           
       3.024557                0.91939579             0.00481757541           
       3.027197               0.909799298             0.00467230552           
       3.029838                1.06627015             0.00512990188           
       3.032478               0.295470622             0.00270317365           
       3.035118              0.0785625958             0.00141257817           
       3.037759              0.0579117011             0.00121123118           
       3.040399              0.0702133013              0.0013757304           
       3.043040               0.176820857             0.00220994429           
       3.045680               0.202671148              0.0022260489           
       3.048320               0.195573843             0.00223429899           
       3.050961               0.266210038             0.00265267382           
       3.053601               0.154910313             0.00194891439           
       3.056242               0.226944904             0.00250803084           
       3.058882               0.509251236             0.00403012226           
       3.061522                0.44150517             0.00368164452           
       3.064163               0.331624011             0.00315060101           
       3.066803               0.134346529             0.00211116998           
       3.069443               0.120276755             0.00208996427           
       3.072084              0.0683591921             0.00153421562           
       3.074724              0.0183240521            0.000887080593           
       3.077365              0.0120123884             0.00074349934           
       3.080005              0.0110668701            0.000717682388           
       3.082645              0.0361391229             0.00136243065           
       3.085286              0.0198633748             0.00101804062           
       3.087926             0.00975573208            0.000707959441           
       3.090566             0.00833605583            0.000641208526           
       3.093207             0.00971358008            0.000720267666           
       3.095847             0.00785625064            0.000620864876           
       3.098488             0.00803600524            0.000696264172           
       3.101128             0.00904403086            0.000743393914           
       3.103768             0.00853654588            0.000708648084           
       3.106409             0.00985747836            0.000810445567           
       3.109049               0.009456447            0.000761759738           
       3.111690             0.00799145107            0.000688250653           
       3.114330             0.00727280447            0.000670543166           
       3.116970             0.00652019414            0.000639775273           
       3.119611             0.00980971163            0.000835303039           
       3.122251              0.0133883128             0.00102076199           
       3.124891              0.0306084451             0.00155778961           
       3.127532              0.0246778506             0.00136839013           
       3.130172               0.021224086             0.00129095472           
       3.132813                 0.0110529            0.000917138952           
       3.135453             0.00746826192            0.000747678008           
       3.138093             0.00754647062            0.000814366456           
       3.140734              0.0058353669            0.000660670073           
       3.143374             0.00787137585            0.000811473255           
       3.146014             0.00620399497            0.000775562915           
       3.148655             0.00693825725            0.000762428587           
       3.151295             0.00587784373            0.000747825297           
       3.153936             0.00603623125            0.000732044762           
       3.156576             0.00509280353            0.000663262327           
       3.159216             0.00584333043            0.000714009402           
       3.161857             0.00596201516            0.000718288902           
       3.164497             0.00810835693            0.000880141867           
       3.167138             0.00517844037            0.000726756054           
       3.169778             0.00580007629            0.000756456946           
       3.172418             0.00696574091            0.000820561095           
       3.175059             0.00613928473            0.000682944843           
       3.177699             0.00535668851            0.000675532253           
       3.180339              0.0046771605            0.000676316176           
       3.182980             0.00646516497             0.00082210313           
       3.185620             0.00455125316            0.000702468293           
       3.188261             0.00481824169            0.000735677251           
       3.190901              0.0053015658            0.000709734496           
       3.193541             0.00575304085            0.000776865104           
       3.196182             0.00534737523            0.000780539199           
       3.198822             0.00773906932            0.000939321574           
       3.201463              0.0057245313            0.000793948639           
       3.204103              0.0062073444            0.000821722146           
       3.206743             0.00608331285            0.000813394782           
       3.209384             0.00798020626             0.00100653485           
       3.212024             0.00541209798            0.000772799118           
       3.214664             0.00426948747            0.000780524512           
       3.217305             0.00577157014            0.000862639504           
       3.219945             0.00573131119            0.000884776637           
       3.222586             0.00633241702            0.000885826797           
       3.225226             0.00595244714             0.00095274826           
       3.227866              0.0054807502            0.000835587273           
       3.230507             0.00601558591            0.000907456553           
       3.233147             0.00513701172            0.000845346844           
       3.235787             0.00579335362            0.000918712236           
       3.238428             0.00558204088            0.000973158016           
       3.241068             0.00459432959            0.000825529548           
       3.243709             0.00743853852             0.00108525669           
       3.246349             0.00724636819            0.000976449883           
       3.248989             0.00457386104             0.00091600795           
       3.251630             0.00475873123            0.000899740634           
       3.254270             0.00611650917            0.000911652514           
       3.256911             0.00598558883            0.000984010841           
       3.259551             0.00506111805            0.000974136215           
       3.262191             0.00507766473            0.000996656728           
       3.264832             0.00381879526            0.000903089519           
       3.267472             0.00430608618            0.000899625157           
       3.270112             0.00435918564             0.00100031153           
       3.272753             0.00692540196             0.00115406394           
       3.275393              0.0060119142             0.00109714048           
       3.278034             0.00599849775             0.00109653259           
       3.280674             0.00448351945             0.00102871515           
       3.283314             0.00602611648             0.00106663046           
       3.285955             0.00605019635             0.00110272505           
       3.288595             0.00675433339             0.00129624886           
       3.291235             0.00631392074             0.00128835696           
       3.293876             0.00513306031             0.00117834154           
       3.296516             0.00598539666             0.00122154889           
       3.299157             0.00727213543             0.00132954737           
       3.301797             0.00409798232             0.00113847509           
       3.304437             0.00356125406            0.000919493902           
       3.307078             0.00343600098            0.000994907722           
       3.309718             0.00459190675             0.00118715655           
       3.312359             0.00462327053             0.00119148689           
       3.314999             0.00505958965              0.0012272247           
       3.317639             0.00545312966             0.00121848034           
       3.320280              0.0061425052             0.00137494698           
       3.322920             0.00988800697             0.00177384771           
       3.325560             0.00444422379             0.00119002165           
       3.328201             0.00413006614             0.00103318299           
       3.330841             0.00609663559             0.00152776567           
       3.333482             0.00581535917             0.00141038345           
       3.336122             0.00511407573             0.00132322013           
       3.338762             0.00636381452             0.00170509073           
       3.341403             0.00246964227             0.00101497335           
       3.344043             0.00763571386             0.00171344819           
       3.346683             0.00720791111             0.00169958125           
       3.349324              0.0081606438              0.0020332597           
       3.351964              0.0039445169             0.00149483277           
       3.354605             0.00518006895             0.00195910485           
       3.357245             0.00350393399             0.00145353544           
       3.359885             0.00464409979             0.00133931895           
       3.362526             0.00418528695              0.0015899889           
       3.365166             0.00529567601             0.00168691426           
       3.367807             0.00701496516             0.00248476928           
       3.370447             0.00300391852             0.00134877966           
       3.373087             0.00411849626             0.00168885953           
       3.375728             0.00339973833             0.00173175386           
       3.378368             0.00585254844             0.00337214178           
       3.381008             0.00646476122             0.00264233391           
       3.383649             0.00692850959             0.00219440015           
       3.386289             0.00387427544              0.0019421005           
       3.388930           -2.60259116e-05                         0           
       3.391570           -2.60471926e-05                         0           
       3.394210             0.00786701559             0.00391883728           
       3.396851             0.00478610236             0.00341914102           
       3.399491             0.00487727926             0.00345252573           
       3.402131           -2.61351874e-05                         0           
       3.404772              0.0095503412             0.00966882776           
       3.407412                       nan                       nan           
       3.410053             0.00915942127             0.00948052907           
       3.412693                       nan                       nan           
       3.415333           -2.62622947e-05                         0           
