################################################################################
# EDF_DataBlockID                     0.Image.Psd
# EDF_BinarySize                      2105344
# EDF_HeaderSize                      2560
# ByteOrder                           LowByteFirst
# DataType                            FloatValue
# Dim_1                               512
# Dim_2                               1028
# Image                               0
# HeaderID                            EH:000000:000000:000000
# Size                                2105344
# Center_1                            304.9000
# Center_2                            588.7000
# Comment                             Xenocs_Cell_Window - 20251028_20perc_iodine_1.23mg
# DDummy                              0.6
# Date                                2025-11-02T12:45:35
# Delta                               21.910000
# Dummy                               -1.5
# ExposureTime                        360
# Gamma                               15.360000
# Intensity1                          8.78678e-10
# PSize_1                             7.5e-05
# PSize_2                             7.5e-05
# Pressure                            0.0325279
# SampleDistance                      0.115750
# SampleEnvKind                       large
# SampleEnvPN                         ElectroChemical cell
# SampleEnvSN                         1141
# Thickness                           0
# Wavelength                          1.541891e-10
# Wavelength                          1.54189e-10
# aux                                 0
# aux_dial                            0.002375
# beamx                               588.434
# beamx_dial                          588.434
# beamz                               657.808
# beamz_dial                          657.808
# det0x                               0
# det0x_dial                          6.36945
# det0xvd                             0
# det0xvd_dial                        0
# det0y                               450.002
# det0y_dial                          481.635
# det0z                               0
# det0z_dial                          1.23302
# det0zvd                             0
# det0zvd_dial                        0
# mag                                 1.818
# mag_dial                            1.818
# om                                  0.2499
# om_dial                             -0.610199
# phi                                 -0.0120535
# phi_dial                            0
# ry                                  0.599993
# ry_dial                             0.599993
# s1bot                               0.8
# s1bot_dial                          -1.66094
# s1hl                                0.8
# s1hl_dial                           -0.608437
# s1hr                                0.8
# s1hr_dial                           0.970938
# s1top                               0.8
# s1top_dial                          -0.461562
# s2bot                               0.45
# s2bot_dial                          1.36109
# s2hl                                0.45
# s2hl_dial                           -0.83375
# s2hr                                0.45
# s2hr_dial                           -0.118594
# s2top                               0.45
# s2top_dial                          1.44734
# w2theta                             32
# w2theta_dial                        32
# waxsch                              19.2605
# waxsch_dial                         -32.7355
# waxsh                               137.085
# waxsh_dial                          -43.5338
# waxsth                              26.0607
# waxsth_dial                         -19.4086
# waxsz                               67.0407
# waxsz_dial                          -23.7954
# wind                                65.9854
# wind_dial                           66.0041
# wpsi                                124
# wpsi_dial                           124
# wstod                               115
# wstod_dial                          115
# x                                   0
# x_dial                              1.00969
# z                                   0
# z_dial                              13.3172
# CountCutoff                         6807993
# DetectorModel                       Dectris EIGER2 Si 500K, S/N E-01-0554
# ThresholdSetting                    4023.88989258
# Saturation                          0
# FlatField                           Corrected
# BackgroundReductionExtra            0.02
# BackgroundCorrectionConstant        0.0026712
# Detector                            0
# Monitor                             0
# Pil_Roi0                            0
# SumForIntensity1                    3.16324e+08
# TransmittedFlux                     878678
# det                                 0
# mon                                 0
# pilai0                              3.16324e+08
# pilai1                              796165
# pilct0                              5.46556e+08
# pilct1                              796165
# pilroi0                             0
# pilroi1                             0
# sec                                 1
# title                               20251028_20perc_iodine_1.23mg_1_01076.edf
# usaxs0                              0
# Operation                           Azimuthal average I(q)
# Error_model                         ErrorModel.poisson
# Geometrical_correction              True
# Transmission_correction             True
# Thickness_correction                False
# Binning mode                        Uniform
# Binning factor                      1.0
# Psi                                 0.0
# Omega                               0.2499
# MaskInvalidPixels                   True
# DetectorEdge                        3
# MaskFiles                           ['WAXS_corrected.edf']
################################################################################
    q(A⁻¹)                Intensity(a.u.)            Sigma_I(a.u.)            
       0.693100             0.00400808215             0.00416358561           
       0.695741             0.00547262216             0.00397012923           
       0.698381             0.00814273506             0.00593205161           
       0.701021              0.0257820492              0.0149221248           
       0.703662             0.00552087817             0.00398579995           
       0.706302              0.0100422005             0.00416181732           
       0.708942             0.00824496812             0.00486725518           
       0.711583             0.00424919911             0.00302572156           
       0.714223            -2.3013271e-05                         0           
       0.716864             0.00722179843             0.00297967436           
       0.719504             0.00855788372             0.00350023472           
       0.722144             0.00852997012             0.00323619402           
       0.724785             0.00618330897              0.0021978734           
       0.727425             0.00719157456             0.00320659596           
       0.730065             0.00642239129             0.00214349189           
       0.732706              0.0039695706              0.0014151223           
       0.735346             0.00855865252             0.00270862584           
       0.737987             0.00597615757             0.00159939013           
       0.740627              0.0056894341             0.00232843656           
       0.743267             0.00680812364             0.00170602642           
       0.745908             0.00505442921             0.00159483889           
       0.748548             0.00428275563             0.00135318395           
       0.751189             0.00623031388             0.00219920991           
       0.753829             0.00786982933             0.00227205836           
       0.756469             0.00719195196             0.00175143314           
       0.759110             0.00895584707             0.00205965293           
       0.761750             0.00587000037             0.00147441736           
       0.764390             0.00843507594             0.00184991314           
       0.767031             0.00727968384             0.00148820328           
       0.769671              0.0104281038             0.00222189388           
       0.772312             0.00793984929               0.001475972           
       0.774952             0.00397850835             0.00141088574           
       0.777592             0.00740768823             0.00140226548           
       0.780233             0.00849195452              0.0018114089           
       0.782873               0.008103338             0.00169233866           
       0.785513             0.00807317697             0.00180584849           
       0.788154             0.00619380751             0.00132318874           
       0.790794             0.00923045887              0.0019311394           
       0.793435             0.00620530962              0.0014224399           
       0.796075             0.00635058018             0.00138619734           
       0.798715             0.00717204049              0.0017408144           
       0.801356             0.00682097781             0.00146113498           
       0.803996               0.010103578             0.00181299803           
       0.806637              0.0067839189             0.00118225805           
       0.809277             0.00604811514             0.00120826811           
       0.811917             0.00611683111             0.00113593683           
       0.814558             0.00678883665             0.00124376541           
       0.817198             0.00762094978             0.00125195979           
       0.819838             0.00760663451              0.0012658852           
       0.822479             0.00728671032             0.00145489918           
       0.825119             0.00690998034             0.00120586662           
       0.827760             0.00716520882             0.00124385034           
       0.830400             0.00760289371             0.00120591964           
       0.833040             0.00480204784             0.00100409733           
       0.835681             0.00568779806             0.00124230932           
       0.838321             0.00957559228             0.00135292649           
       0.840961             0.00816530055             0.00136120474           
       0.843602              0.0074069181             0.00118889861           
       0.846242             0.00741592728             0.00118944399           
       0.848883             0.00621487718             0.00111430561           
       0.851523             0.00893685308             0.00131962891           
       0.854163             0.00615848763             0.00116497263           
       0.856804             0.00764951152             0.00116740479           
       0.859444             0.00785878799             0.00115937211           
       0.862085             0.00594766516              0.0010512121           
       0.864725             0.00703188888             0.00116976103           
       0.867365             0.00803035791             0.00115916297           
       0.870006             0.00940179636             0.00119519936           
       0.872646             0.00668517807              0.0010568593           
       0.875286             0.00833983508             0.00113564455           
       0.877927             0.00788372998             0.00106545691           
       0.880567             0.00619850342            0.000978772404           
       0.883208             0.00756777912             0.00107130142           
       0.885848             0.00702464499             0.00107167446           
       0.888488             0.00775208743             0.00105592794           
       0.891129             0.00800317802             0.00110163664           
       0.893769             0.00846465685             0.00108426529           
       0.896410              0.0093707859             0.00106364829           
       0.899050             0.00817206896             0.00109234892           
       0.901690             0.00916219211             0.00125990795           
       0.904331             0.00872596098             0.00109006266           
       0.906971              0.0087795863             0.00116320496           
       0.909611             0.00741173016            0.000972911045           
       0.912252             0.00638618856            0.000932803932           
       0.914892              0.0064739943             0.00102633966           
       0.917533             0.00899905169              0.0011447029           
       0.920173             0.00815659971             0.00101112522           
       0.922813             0.00632860705            0.000934631164           
       0.925454             0.00715741172            0.000895023877           
       0.928094             0.00840277107              0.0010353092           
       0.930734             0.00809601392             0.00109409007           
       0.933375             0.00942503553               0.001168876           
       0.936015             0.00692910323            0.000910235126           
       0.938656             0.00756963719             0.00102060263           
       0.941296             0.00780749131            0.000939366519           
       0.943936             0.00706294156            0.000876169996           
       0.946577             0.00578865653            0.000787959211           
       0.949217             0.00725237746            0.000811053707           
       0.951858             0.00846460936            0.000917226858           
       0.954498             0.00904900418             0.00109771114           
       0.957138             0.00968636185              0.0010759312           
       0.959779             0.00825573167            0.000979193039           
       0.962419             0.00778111817            0.000944306773           
       0.965059             0.00898594359             0.00106728807           
       0.967700             0.00916147548             0.00110373962           
       0.970340             0.00727208753            0.000870178142           
       0.972981             0.00707086863            0.000781770218           
       0.975621             0.00949046272            0.000963513314           
       0.978261             0.00608761086            0.000733232081           
       0.980902             0.00806241279              0.0010095902           
       0.983542             0.00811163127            0.000896782739           
       0.986182              0.0059332721            0.000753009723           
       0.988823             0.00821865453            0.000860545462           
       0.991463             0.00861979457            0.000940251131           
       0.994104             0.00858515977            0.000915384863           
       0.996744             0.00680781901             0.00083143883           
       0.999384             0.00724021065            0.000766834949           
       1.002025             0.00678182815            0.000828352698           
       1.004665             0.00685476485            0.000761071717           
       1.007306             0.00803029228            0.000819532745           
       1.009946              0.0075611934            0.000811029042           
       1.012586             0.00734578755            0.000778561837           
       1.015227             0.00761680978            0.000851709209           
       1.017867             0.00738743935            0.000806132427           
       1.020507             0.00769293219            0.000796830482           
       1.023148             0.00720158114            0.000831890884           
       1.025788             0.00813037989            0.000810475412           
       1.028429              0.0092211934             0.00090427433           
       1.031069             0.00785713625            0.000785499917           
       1.033709             0.00937971845            0.000912311551           
       1.036350             0.00779371266            0.000746900783           
       1.038990             0.00563280817            0.000646638443           
       1.041630             0.00662491511            0.000731438328           
       1.044271              0.0083376415            0.000771704782           
       1.046911             0.00727690126            0.000758341297           
       1.049552             0.00724636838            0.000795060499           
       1.052192             0.00742790523            0.000735028572           
       1.054832             0.00860856456            0.000798489604           
       1.057473             0.00907794647            0.000808316821           
       1.060113             0.00815528748             0.00074719364           
       1.062754             0.00805443483            0.000758139819           
       1.065394             0.00838671978            0.000817916602           
       1.068034              0.0084563865            0.000747276484           
       1.070675             0.00949800388            0.000826115057           
       1.073315             0.00649662405            0.000693025287           
       1.075955             0.00763920434             0.00070945944           
       1.078596             0.00870989095            0.000805122698           
       1.081236             0.00838381001            0.000756388311           
       1.083877             0.00912305825            0.000781953348           
       1.086517             0.00769567092            0.000770100121           
       1.089157             0.00780044214            0.000804486122           
       1.091798             0.00808471594            0.000718043078           
       1.094438             0.00792402711            0.000708577102           
       1.097078             0.00769764192            0.000669821545           
       1.099719             0.00850518026            0.000761570193           
       1.102359             0.00796042521             0.00069000087           
       1.105000             0.00800647782            0.000773784021           
       1.107640             0.00860965983            0.000767226788           
       1.110280             0.00807276717            0.000677857721           
       1.112921              0.0088694579            0.000763251347           
       1.115561             0.00801326803            0.000689505509           
       1.118202             0.00881794807            0.000723978558           
       1.120842              0.0101837271            0.000817712626           
       1.123482              0.0080741275            0.000724926774           
       1.126123             0.00836070212            0.000707558236           
       1.128763             0.00862184727            0.000723449927           
       1.131403             0.00828050861            0.000683167415           
       1.134044             0.00986700845            0.000767375255           
       1.136684              0.0076675963             0.00072122787           
       1.139325             0.00787589851            0.000673358482           
       1.141965             0.00914895961            0.000730539591           
       1.144605             0.00874565251            0.000681045386           
       1.147246             0.00970518185            0.000734231354           
       1.149886             0.00949123772            0.000723515848           
       1.152527             0.00890668457            0.000711073822           
       1.155167             0.00945965171            0.000697018483           
       1.157807             0.00808673193            0.000690971609           
       1.160448             0.00867163151            0.000698727315           
       1.163088              0.0101953094            0.000722668124           
       1.165728             0.00961208578            0.000720442078           
       1.168369              0.0083020357            0.000675734973           
       1.171009             0.00857831345            0.000666604828           
       1.173650             0.00926894731            0.000711100494           
       1.176290             0.00896303756            0.000683341271           
       1.178930              0.0086082022            0.000656345775           
       1.181571              0.0078636685            0.000639759876           
       1.184211               0.010257903            0.000733281613           
       1.186851                0.01022952            0.000715926343           
       1.189492             0.00880775704            0.000659844774           
       1.192132             0.00849548248            0.000640770941           
       1.194773             0.00940819108            0.000677259741           
       1.197413              0.0077782514            0.000590028338           
       1.200053             0.00927389337            0.000660632346           
       1.202694             0.00972261607            0.000643242509           
       1.205334             0.00907974177            0.000669903993           
       1.207975             0.00925651222            0.000645636794           
       1.210615              0.0092608112            0.000712412457           
       1.213255             0.00992509574            0.000660433004           
       1.215896             0.00970278956            0.000664826406           
       1.218536             0.00921181226            0.000622875304           
       1.221176             0.00964641259            0.000692983667           
       1.223817              0.0102008586            0.000668949162           
       1.226457             0.00920476077            0.000648251386           
       1.229098             0.00980162079            0.000668905845           
       1.231738              0.0113916438            0.000724671929           
       1.234378             0.00979066041             0.00063127776           
       1.237019             0.00980826531            0.000651110359           
       1.239659              0.0101867656            0.000657774361           
       1.242299             0.00965843028            0.000632352062           
       1.244940              0.0103352856            0.000636186592           
       1.247580              0.0103946318            0.000657521993           
       1.250221              0.0107093567             0.00066328376           
       1.252861             0.00934291545            0.000589790839           
       1.255501              0.0098812998            0.000658593187           
       1.258142             0.00951544382            0.000607301611           
       1.260782              0.0103509507            0.000647107973           
       1.263423              0.0117643491            0.000662892114           
       1.266063             0.00879207998            0.000587376323           
       1.268703              0.0116267816            0.000669856141           
       1.271344              0.0106335932            0.000662317831           
       1.273984               0.010183344            0.000625979427           
       1.276624                0.01024353            0.000616031862           
       1.279265              0.0104012407            0.000631064628           
       1.281905              0.0101832816            0.000627188868           
       1.284546              0.0103885652            0.000612314937           
       1.287186              0.0113958331              0.0006291962           
       1.289826              0.0113513011            0.000661824353           
       1.292467              0.0107405071            0.000629592728           
       1.295107              0.0103412675            0.000611643717           
       1.297747              0.0100668873            0.000577475392           
       1.300388              0.0108464469            0.000653441056           
       1.303028              0.0117223978            0.000648514416           
       1.305669              0.0104196821            0.000625977031           
       1.308309              0.0108010907             0.00063105468           
       1.310949              0.0105790296            0.000623906384           
       1.313590              0.0109043801            0.000613627398           
       1.316230             0.00991621056            0.000624450554           
       1.318871              0.0118615725            0.000668877081           
       1.321511              0.0115467071            0.000647707538           
       1.324151              0.0104857058            0.000598933722           
       1.326792              0.0106341086            0.000606886105           
       1.329432              0.0111477195            0.000616984238           
       1.332072              0.0105246553            0.000590559913           
       1.334713              0.0107709505            0.000616607068           
       1.337353              0.0107946972            0.000591989979           
       1.339994               0.011704597            0.000646887221           
       1.342634              0.0121559713            0.000632172118           
       1.345274              0.0117262668            0.000642571274           
       1.347915              0.0105512678            0.000592696074           
       1.350555             0.00978303097            0.000580706608           
       1.353195              0.0120802499            0.000648463936           
       1.355836              0.0121835782            0.000641076615           
       1.358476              0.0105819916            0.000580220868           
       1.361117              0.0117643032            0.000612616169           
       1.363757              0.0110918703            0.000613013868           
       1.366397              0.0109814802            0.000591497776           
       1.369038              0.0112829509            0.000605531869           
       1.371678              0.0124155366            0.000629597019           
       1.374319              0.0119674963            0.000612809832           
       1.376959              0.0110651187            0.000583327569           
       1.379599              0.0115759628            0.000639418373           
       1.382240              0.0117954836            0.000606628654           
       1.384880              0.0107708645            0.000614015673           
       1.387520              0.0106868306            0.000580870319           
       1.390161              0.0108987792            0.000557131126           
       1.392801              0.0111162256            0.000586238707           
       1.395442              0.0114860408            0.000604049206           
       1.398082              0.0113336057            0.000561899655           
       1.400722              0.0103255197             0.00056179153           
       1.403363              0.0106212091            0.000599761305           
       1.406003              0.0117684281            0.000590832279           
       1.408644              0.0110949315            0.000600963765           
       1.411284              0.0121398692            0.000595253926           
       1.413924              0.0108230872            0.000559961034           
       1.416565              0.0108854251             0.00055936541           
       1.419205              0.0109135597            0.000584260964           
       1.421845              0.0110148548             0.00058662148           
       1.424486              0.0106471462            0.000554386231           
       1.427126               0.010825583            0.000580705821           
       1.429767              0.0111830264            0.000555320527           
       1.432407              0.0108581966            0.000572653382           
       1.435047              0.0113087932            0.000548862375           
       1.437688              0.0115951195            0.000564076937           
       1.440328              0.0103715844            0.000544482665           
       1.442968              0.0107095181            0.000565678501           
       1.445609              0.0115174286            0.000568018175           
       1.448249               0.011780702            0.000589018857           
       1.450890              0.0104085418             0.00055004047           
       1.453530              0.0106171776            0.000581191729           
       1.456170              0.0106512722            0.000564965155           
       1.458811               0.011791273            0.000568407325           
       1.461451              0.0114661845            0.000561987364           
       1.464092              0.0106005767            0.000543891075           
       1.466732              0.0113857018            0.000558829032           
       1.469372              0.0113651338             0.00054525755           
       1.472013              0.0112398737            0.000584821492           
       1.474653              0.0109141822            0.000567396238           
       1.477293              0.0107366216             0.00057462303           
       1.479934              0.0107565582            0.000548819249           
       1.482574              0.0108778003            0.000533880483           
       1.485215              0.0110086641             0.00054708555           
       1.487855              0.0109949269            0.000553956558           
       1.490495             0.00979656553            0.000520971587           
       1.493136              0.0108382072            0.000540457866           
       1.495776              0.0104583445            0.000528484903           
       1.498416              0.0103692518            0.000543445777           
       1.501057              0.0113588481            0.000556251767           
       1.503697              0.0117923722            0.000554105516           
       1.506338              0.0114112432            0.000555038116           
       1.508978              0.0109154446            0.000537507984           
       1.511618               0.010022697            0.000548534723           
       1.514259              0.0110262911            0.000555466354           
       1.516899              0.0106530239            0.000531606893           
       1.519540              0.0101055815            0.000526116911           
       1.522180              0.0100832463            0.000530151741           
       1.524820              0.0110155203            0.000551009459           
       1.527461             0.00993703832            0.000525929601           
       1.530101              0.0107036941            0.000540381785           
       1.532741              0.0110628147            0.000546183983           
       1.535382              0.0106397473            0.000544261639           
       1.538022               0.010784331            0.000516195224           
       1.540663              0.0109944882            0.000560583404           
       1.543303              0.0101949672            0.000501227838           
       1.545943              0.0106343771            0.000541824779           
       1.548584              0.0112372583            0.000566969538           
       1.551224              0.0108852229            0.000515940376           
       1.553864              0.0109328246            0.000546378182           
       1.556505               0.010174449            0.000509180044           
       1.559145              0.0108381839            0.000531963614           
       1.561786             0.00956436528            0.000500110638           
       1.564426              0.0107292017            0.000513214392           
       1.567066              0.0102240628            0.000524938692           
       1.569707               0.010444151            0.000521028151           
       1.572347              0.0112649713            0.000559026008           
       1.574988             0.00989635697            0.000498729547           
       1.577628              0.0106494618            0.000539476932           
       1.580268             0.00976578662            0.000500539905           
       1.582909             0.00901681098            0.000509801543           
       1.585549              0.0095135857            0.000508454054           
       1.588189             0.00952967902            0.000497777342           
       1.590830             0.00987404469            0.000506055446           
       1.593470             0.00941256126            0.000513652041           
       1.596111             0.00969022904            0.000508827014           
       1.598751             0.00988452795            0.000497954729           
       1.601391               0.009793781            0.000506599377           
       1.604032             0.00990680462            0.000520165635           
       1.606672             0.00912981256            0.000485166752           
       1.609312             0.00945084109            0.000515284616           
       1.611953             0.00966164366            0.000509830661           
       1.614593             0.00934871913            0.000491938081           
       1.617234             0.00974413176            0.000520503456           
       1.619874                0.01028631            0.000532675689           
       1.622514             0.00898070641            0.000490934017           
       1.625155             0.00970172729            0.000513275402           
       1.627795             0.00983512679            0.000504129808           
       1.630436             0.00963108248            0.000496267991           
       1.633076             0.00928438125            0.000493644284           
       1.635716             0.00933915251            0.000487394912           
       1.638357             0.00966643954            0.000497168671           
       1.640997              0.0092239158            0.000500366804           
       1.643637             0.00844706441            0.000465958108           
       1.646278             0.00933907605            0.000505337487           
       1.648918             0.00858309372            0.000485774376           
       1.651559             0.00932346237            0.000510221835           
       1.654199             0.00937200923            0.000497525813           
       1.656839             0.00903249608            0.000488601421           
       1.659480             0.00933847514            0.000515464352           
       1.662120             0.00939397144            0.000486922919           
       1.664761              0.0088041729             0.00048965199           
       1.667401             0.00898972978            0.000472908558           
       1.670041              0.0101738145            0.000510761078           
       1.672682             0.00880342917            0.000473165554           
       1.675322              0.0087186035            0.000467852448           
       1.677962             0.00884215773             0.00046595838           
       1.680603             0.00935218799            0.000480683253           
       1.683243             0.00971281668            0.000511081077           
       1.685884             0.00754377848            0.000453739924           
       1.688524             0.00935492802            0.000495513607           
       1.691164             0.00826934864            0.000465982463           
       1.693805             0.00874147499            0.000484363226           
       1.696445             0.00915191034            0.000498478719           
       1.699085             0.00869627488            0.000469629733           
       1.701726             0.00889468014            0.000457537979           
       1.704366             0.00904294397            0.000486004331           
       1.707007             0.00974337272            0.000493229968           
       1.709647             0.00902079905            0.000479948169           
       1.712287             0.00896727037            0.000482687237           
       1.714928             0.00870022475             0.00047927902           
       1.717568             0.00897009824            0.000458431567           
       1.720209              0.0082421658            0.000460279743           
       1.722849             0.00886264034            0.000474836658           
       1.725489             0.00874457989            0.000472059424           
       1.728130             0.00933286206            0.000518266792           
       1.730770             0.00860569775            0.000472650073           
       1.733410             0.00833037677            0.000457718109           
       1.736051             0.00884450623            0.000474914013           
       1.738691             0.00904958235            0.000470650245           
       1.741332             0.00865560262             0.00047375042           
       1.743972             0.00908068113            0.000501096825           
       1.746612             0.00877436556            0.000472995324           
       1.749253             0.00884718963            0.000484333691           
       1.751893             0.00872742854            0.000477513447           
       1.754533             0.00909653564            0.000487051291           
       1.757174             0.00836356766            0.000462643395           
       1.759814             0.00843688008            0.000457623219           
       1.762455             0.00846366002            0.000466765182           
       1.765095             0.00821531098             0.00043991779           
       1.767735             0.00876258891            0.000468350738           
       1.770376             0.00845024186            0.000461140188           
       1.773016             0.00927350074            0.000479845526           
       1.775657             0.00860916422            0.000455686112           
       1.778297             0.00921521441            0.000467392966           
       1.780937              0.0091977425            0.000492865207           
       1.783578             0.00924126464            0.000481677067           
       1.786218             0.00879865129            0.000490496942           
       1.788858             0.00905133315            0.000472495647           
       1.791499             0.00905465052            0.000467274689           
       1.794139             0.00832360148            0.000444379655           
       1.796780             0.00888056846            0.000456793752           
       1.799420             0.00828738865            0.000438830621           
       1.802060             0.00878397273            0.000455436041           
       1.804701             0.00935359619            0.000451005718           
       1.807341             0.00859067924            0.000454170916           
       1.809981             0.00841647704            0.000451041275           
       1.812622              0.0083185397            0.000440336529           
       1.815262             0.00866739613            0.000459022831           
       1.817903             0.00932563258            0.000469079097           
       1.820543             0.00899195946            0.000467788137           
       1.823183             0.00884237549            0.000463625903           
       1.825824             0.00900300395            0.000446934375           
       1.828464             0.00855766529            0.000454278058           
       1.831105              0.0084962198            0.000440129577           
       1.833745              0.0085366215            0.000450596957           
       1.836385             0.00794259771            0.000447040689           
       1.839026             0.00835145672            0.000456954107           
       1.841666             0.00805673821            0.000447227375           
       1.844306             0.00763404117            0.000423459028           
       1.846947             0.00946219441            0.000475576518           
       1.849587             0.00834980729            0.000493318182           
       1.852228             0.00868671784            0.000454992481           
       1.854868             0.00842751294            0.000473407111           
       1.857508             0.00820740946             0.00046260207           
       1.860149             0.00786745275             0.00046114901           
       1.862789             0.00843601307            0.000460918575           
       1.865429             0.00811572891            0.000471906764           
       1.868070             0.00829726658             0.00047079588           
       1.870710             0.00862391225             0.00046890795           
       1.873351             0.00816311495            0.000461848294           
       1.875991             0.00766300937            0.000454780283           
       1.878631             0.00756204926            0.000443122006           
       1.881272             0.00825375847            0.000459843189           
       1.883912              0.0090994272            0.000502481734           
       1.886553             0.00752350504            0.000451794142           
       1.889193             0.00805274039            0.000466616013           
       1.891833             0.00911747639             0.00051564157           
       1.894474             0.00752722551            0.000464439584           
       1.897114             0.00801519429            0.000463767344           
       1.899754             0.00727101912            0.000443561775           
       1.902395             0.00797509057            0.000455458909           
       1.905035             0.00868193948              0.0005033319           
       1.907676              0.0082688152            0.000462967428           
       1.910316             0.00778250904            0.000461072734           
       1.912956             0.00846462162            0.000470275332           
       1.915597             0.00781815678            0.000454486583           
       1.918237             0.00833765966            0.000484717806           
       1.920878             0.00769857467            0.000463863882           
       1.923518             0.00794330354            0.000471378972           
       1.926158             0.00763405338            0.000456115386           
       1.928799             0.00791017203            0.000458916519           
       1.931439             0.00744969573             0.00045704006           
       1.934079             0.00806640574            0.000495782104           
       1.936720             0.00779657891            0.000451608278           
       1.939360             0.00782763088            0.000482761559           
       1.942001             0.00867362611             0.00046577332           
       1.944641             0.00787378837            0.000452519806           
       1.947281             0.00803787502            0.000452996322           
       1.949922             0.00761946899            0.000455564145           
       1.952562             0.00782585319            0.000476164771           
       1.955202             0.00674980559            0.000441679591           
       1.957843             0.00745025292            0.000451997562           
       1.960483              0.0084418684            0.000503029381           
       1.963124             0.00764265447            0.000468806666           
       1.965764             0.00772047982            0.000444343064           
       1.968404             0.00814192061            0.000451998299           
       1.971045             0.00740687256            0.000439542054           
       1.973685             0.00740975021            0.000461136355           
       1.976326             0.00848315268            0.000486626772           
       1.978966              0.0073294664            0.000456297629           
       1.981606             0.00721293176            0.000462096073           
       1.984247             0.00774459968            0.000475675903           
       1.986887             0.00712383465            0.000450749057           
       1.989527             0.00847686528            0.000486399479           
       1.992168             0.00804805895             0.00049175028           
       1.994808             0.00759528462            0.000475669635           
       1.997449             0.00840346481            0.000490061787           
       2.000089             0.00800135808            0.000476297434           
       2.002729             0.00722959262            0.000453016057           
       2.005370             0.00738213403            0.000452844867           
       2.008010             0.00719527293            0.000466588714           
       2.010650             0.00733071471            0.000474473931           
       2.013291              0.0080524313            0.000477114523           
       2.015931             0.00794234453            0.000470492386           
       2.018572             0.00859816747             0.00052360089           
       2.021212             0.00730890181            0.000474077882           
       2.023852             0.00803593158            0.000470479547           
       2.026493             0.00720130646            0.000465276045           
       2.029133             0.00824427299            0.000487811836           
       2.031774             0.00746964779            0.000487303421           
       2.034414             0.00766390382            0.000454179807           
       2.037054                0.00764364            0.000465075707           
       2.039695             0.00710703364            0.000445066845           
       2.042335             0.00746407784            0.000473997923           
       2.044975             0.00781526858            0.000479138769           
       2.047616             0.00706930577            0.000454566666           
       2.050256             0.00762181205            0.000476462765           
       2.052897             0.00700346306            0.000465146581           
       2.055537             0.00810068459            0.000483480596           
       2.058177             0.00746517955            0.000454507036           
       2.060818             0.00858944343            0.000510727375           
       2.063458              0.0080031308            0.000513742743           
       2.066098             0.00712778047            0.000457360698           
       2.068739             0.00737781292            0.000472546165           
       2.071379             0.00694811328            0.000470538569           
       2.074020             0.00743506216            0.000476169511           
       2.076660             0.00798992284            0.000497607911           
       2.079300             0.00729105387            0.000486994382           
       2.081941             0.00695413692            0.000435474574           
       2.084581             0.00767862619            0.000482997854           
       2.087222             0.00796706772            0.000474473418           
       2.089862             0.00666437995            0.000472640827           
       2.092502             0.00800398905            0.000502097965           
       2.095143             0.00762746677            0.000506148956           
       2.097783             0.00737817471              0.0004819628           
       2.100423             0.00742248292            0.000465807912           
       2.103064             0.00760430504            0.000489222449           
       2.105704             0.00697291758            0.000466151794           
       2.108345             0.00745499092            0.000463069505           
       2.110985             0.00718745477            0.000485635988           
       2.113625             0.00785301013            0.000512052851           
       2.116266             0.00663178327            0.000477232692           
       2.118906             0.00763376146            0.000477171088           
       2.121546             0.00796841548            0.000478209956           
       2.124187             0.00711395545            0.000474296301           
       2.126827             0.00626801195            0.000450172825           
       2.129468              0.0081312036            0.000514043302           
       2.132108              0.0066680292            0.000452897482           
       2.134748               0.007648698            0.000483177465           
       2.137389             0.00720950074            0.000489387907           
       2.140029             0.00771275988            0.000453163816           
       2.142670              0.0073901765            0.000474069801           
       2.145310             0.00731112054            0.000458945985           
       2.147950             0.00763195477            0.000482633953           
       2.150591             0.00697614559            0.000456768776           
       2.153231              0.0068807005            0.000466944999           
       2.155871             0.00673420755            0.000446272035           
       2.158512              0.0077271836            0.000498804061           
       2.161152             0.00712802362            0.000464062385           
       2.163793             0.00755115669            0.000475487365           
       2.166433             0.00799178892            0.000502319611           
       2.169073             0.00673885279            0.000450996312           
       2.171714              0.0059414839            0.000420309024           
       2.174354             0.00721153937            0.000483852669           
       2.176995             0.00644171217            0.000455374332           
       2.179635             0.00760309559            0.000522782525           
       2.182275             0.00742195702            0.000487674495           
       2.184916             0.00690850953            0.000454445425           
       2.187556             0.00759056142            0.000471575979           
       2.190196              0.0068822672            0.000469235847           
       2.192837             0.00781686858            0.000497361832           
       2.195477              0.0073617201            0.000460163636           
       2.198118             0.00686552723            0.000455771927           
       2.200758             0.00752204318            0.000489440837           
       2.203398             0.00800194902            0.000508042059           
       2.206039             0.00704567239            0.000451174734           
       2.208679             0.00729762947            0.000469857188           
       2.211319             0.00712040301             0.00046679286           
       2.213960             0.00719882852            0.000475645087           
       2.216600             0.00774755337             0.00051045272           
       2.219241             0.00697927681             0.00046303473           
       2.221881             0.00694100544            0.000462712856           
       2.224521             0.00724655922            0.000478581308           
       2.227162             0.00701645536            0.000461492737           
       2.229802             0.00801046249            0.000508535733           
       2.232443             0.00798857891            0.000499830507           
       2.235083             0.00742922672            0.000496232265           
       2.237723             0.00828167055            0.000502785629           
       2.240364             0.00664299451              0.0004613976           
       2.243004             0.00744248587            0.000484475393           
       2.245644             0.00721862285            0.000481909313           
       2.248285             0.00677445098             0.00045749533           
       2.250925             0.00683443171            0.000462307567           
       2.253566             0.00779312291            0.000527769592           
       2.256206             0.00794172199            0.000522124656           
       2.258846              0.0069629725            0.000465072888           
       2.261487             0.00791738732            0.000520517645           
       2.264127             0.00703215612            0.000473771407           
       2.266767             0.00764893252             0.00050727604           
       2.269408             0.00753419915            0.000505518784           
       2.272048             0.00727144724            0.000493661266           
       2.274689             0.00698154006            0.000490093876           
       2.277329             0.00783573102            0.000488870091           
       2.279969             0.00706106482            0.000493981983           
       2.282610              0.0065866342            0.000463828803           
       2.285250             0.00673485273             0.00044891446           
       2.287891             0.00781785398            0.000518560306           
       2.290531             0.00621821708            0.000468692093           
       2.293171              0.0067397187            0.000475307696           
       2.295812             0.00748963344            0.000499039598           
       2.298452             0.00654885529            0.000487987567           
       2.301092             0.00709864975            0.000472049005           
       2.303733             0.00754233219            0.000506210598           
       2.306373             0.00656236371            0.000479617196           
       2.309014             0.00734293563            0.000497443346           
       2.311654             0.00727252502             0.00051661092           
       2.314294             0.00726170223            0.000475601262           
       2.316935             0.00720368783            0.000475654686           
       2.319575              0.0065877371            0.000476593182           
       2.322215             0.00712170438            0.000516427952           
       2.324856             0.00697387884            0.000469848361           
       2.327496             0.00661536773            0.000486585374           
       2.330137             0.00767003155            0.000501370316           
       2.332777             0.00689870141            0.000490283513           
       2.335417             0.00672962331            0.000469783399           
       2.338058              0.0066046631            0.000479303889           
       2.340698             0.00709363551             0.00049282611           
       2.343339              0.0076564231            0.000523269779           
       2.345979             0.00650123848            0.000456182257           
       2.348619             0.00689844089            0.000487088157           
       2.351260             0.00750046087             0.00050493836           
       2.353900             0.00689532166            0.000482607112           
       2.356540             0.00777991757            0.000511902229           
       2.359181             0.00677580769            0.000471029802           
       2.361821             0.00751356125            0.000479132809           
       2.364462             0.00679362117            0.000476500531           
       2.367102             0.00713731461            0.000501914316           
       2.369742             0.00669913213            0.000511825639           
       2.372383             0.00773164404            0.000497892935           
       2.375023             0.00707021536            0.000500505216           
       2.377663             0.00745616254            0.000491444593           
       2.380304             0.00666177821            0.000472273519           
       2.382944             0.00674924564            0.000452768996           
       2.385585             0.00770124215            0.000515818994           
       2.388225             0.00664278393            0.000476811217           
       2.390865             0.00627795705            0.000458771389           
       2.393506             0.00706407647            0.000477466715           
       2.396146             0.00682419876            0.000507417452           
       2.398787             0.00711800454            0.000477584924           
       2.401427             0.00698624175            0.000456692983           
       2.404067             0.00662537701            0.000454661908           
       2.406708             0.00686703865            0.000457328896           
       2.409348             0.00668067814            0.000478459243           
       2.411988              0.0066058217            0.000466150472           
       2.414629             0.00601900855            0.000458822215           
       2.417269             0.00747997074             0.00051745554           
       2.419910             0.00722991982            0.000509913399           
       2.422550             0.00707231372            0.000482507003           
       2.425190             0.00762596072            0.000528145739           
       2.427831             0.00709651091             0.00050661813           
       2.430471             0.00726168574            0.000488236299           
       2.433112              0.0076567732            0.000488187764           
       2.435752             0.00717876219            0.000500267843           
       2.438392             0.00746503493            0.000492394275           
       2.441033             0.00711302754            0.000509386958           
       2.443673              0.0066328064            0.000492269565           
       2.446313             0.00744567081            0.000522022217           
       2.448954             0.00672942338            0.000472527088           
       2.451594              0.0074645354            0.000535108724           
       2.454235             0.00698640659            0.000485722926           
       2.456875             0.00783610347            0.000538260149           
       2.459515             0.00810524371              0.0005615971           
       2.462156             0.00828848905            0.000536186115           
       2.464796             0.00856897422            0.000538149229           
       2.467436             0.00827422063             0.00054685441           
       2.470077             0.00711059575            0.000480492202           
       2.472717              0.0090096245            0.000543205181           
       2.475358             0.00764646231            0.000505645101           
       2.477998             0.00801652455            0.000509007977           
       2.480638             0.00688495433            0.000480099558           
       2.483279              0.0078004208            0.000534099691           
       2.485919             0.00739187582            0.000501066543           
       2.488560             0.00702066564            0.000486958594           
       2.491200             0.00659785974            0.000486105134           
       2.493840              0.0064627313            0.000509068398           
       2.496481             0.00697759049            0.000520304967           
       2.499121             0.00725801102            0.000516148857           
       2.501761               0.007747957            0.000540351248           
       2.504402             0.00698072415            0.000505406673           
       2.507042             0.00666014762            0.000490008331           
       2.509683              0.0059392453            0.000455657353           
       2.512323             0.00708848099            0.000522806989           
       2.514963             0.00698832007            0.000512686985           
       2.517604             0.00651390999            0.000513616837           
       2.520244             0.00715797908            0.000504760906           
       2.522884             0.00844973052            0.000556261187           
       2.525525              0.0115800082            0.000658587262           
       2.528165             0.00728798854            0.000514327526           
       2.530806              0.0069475463            0.000510923987           
       2.533446             0.00758466216            0.000522442625           
       2.536086             0.00688669194            0.000493368264           
       2.538727              0.0077214841            0.000501178516           
       2.541367             0.00797833215            0.000514464231           
       2.544008             0.00753175882            0.000516232109           
       2.546648             0.00714701285            0.000511499536           
       2.549288             0.00704232427            0.000518085141           
       2.551929             0.00785671091            0.000538499151           
       2.554569             0.00684470299            0.000484234725           
       2.557209             0.00735504596            0.000506572467           
       2.559850             0.00726345729            0.000505025093           
       2.562490             0.00741757593            0.000527479162           
       2.565131             0.00738984739            0.000545890946           
       2.567771             0.00840421359            0.000561282325           
       2.570411             0.00597093711            0.000467982335           
       2.573052              0.0072274936            0.000521359451           
       2.575692             0.00701465239            0.000510515116           
       2.578332             0.00584286747            0.000467854449           
       2.580973             0.00548749579             0.00044908949           
       2.583613             0.00753049048            0.000513560202           
       2.586254             0.00656279531            0.000478762551           
       2.588894             0.00681372945            0.000506587798           
       2.591534             0.00715215403             0.00053727891           
       2.594175             0.00601753918            0.000483523004           
       2.596815             0.00612314677            0.000490623335           
       2.599456             0.00785037845            0.000526804875           
       2.602096             0.00724217332            0.000509837238           
       2.604736             0.00724967876            0.000522196974           
       2.607377             0.00723807567            0.000508028341           
       2.610017              0.0067811325            0.000483125781           
       2.612657             0.00737109724            0.000535764871           
       2.615298              0.0062315144            0.000480944258           
       2.617938              0.0075599401            0.000566679051           
       2.620579             0.00569818734            0.000472294616           
       2.623219             0.00592019744            0.000480721129           
       2.625859             0.00656584314            0.000492223041           
       2.628500             0.00797370144            0.000538878274           
       2.631140             0.00697656555            0.000511825873           
       2.633780             0.00622627499            0.000483100893           
       2.636421             0.00707683681            0.000527708641           
       2.639061              0.0074652718            0.000510228518           
       2.641702             0.00678475179             0.00049767803           
       2.644342             0.00780798173            0.000536163773           
       2.646982             0.00650424674            0.000482042082           
       2.649623             0.00780628588            0.000553418048           
       2.652263             0.00674501434             0.00050926331           
       2.654904             0.00689444731            0.000515391644           
       2.657544             0.00672650811            0.000479496629           
       2.660184             0.00800491733             0.00055357228           
       2.662825             0.00688754665            0.000525398281           
       2.665465             0.00671328464            0.000501677176           
       2.668105               0.007294149             0.00055118899           
       2.670746             0.00653976985            0.000482132246           
       2.673386             0.00832916576            0.000560747674           
       2.676027             0.00764779707            0.000528698709           
       2.678667              0.0111442666            0.000622736591           
       2.681307              0.0110488616            0.000609249392           
       2.683948              0.0141675527            0.000708836374           
       2.686588              0.0118927986            0.000638672265           
       2.689229              0.0104278859            0.000584385243           
       2.691869              0.0108476395            0.000629945325           
       2.694509             0.00871253665            0.000564866888           
       2.697150              0.0077680781            0.000524719039           
       2.699790             0.00778553937             0.00055071044           
       2.702430             0.00779381894            0.000526692814           
       2.705071             0.00754968148            0.000535645819           
       2.707711             0.00688111833            0.000496331674           
       2.710352             0.00695096424            0.000527091428           
       2.712992             0.00637627078            0.000514166269           
       2.715632             0.00696658988            0.000498638086           
       2.718273             0.00671463787            0.000507340501           
       2.720913             0.00765833664            0.000540278881           
       2.723553             0.00625898567            0.000491707594           
       2.726194             0.00750690896            0.000562909746           
       2.728834              0.0071775603            0.000550681299           
       2.731475             0.00859035993            0.000556004139           
       2.734115             0.00767454201            0.000541841379           
       2.736755             0.00708554139            0.000524919147           
       2.739396             0.00744232172            0.000534855618           
       2.742036             0.00741008574            0.000558546763           
       2.744677             0.00669029283            0.000514950668           
       2.747317             0.00617141186            0.000491051899           
       2.749957             0.00695898717            0.000525103976           
       2.752598             0.00683821007            0.000526176346           
       2.755238             0.00632172164             0.00051504818           
       2.757878             0.00733831972            0.000550065806           
       2.760519             0.00835206337            0.000580608931           
       2.763159              0.0103049209             0.00063848002           
       2.765800             0.00747756308            0.000518311465           
       2.768440             0.00788047616            0.000536012199           
       2.771080             0.00825409911            0.000553150538           
       2.773721             0.00780055939            0.000551610424           
       2.776361             0.00733289259            0.000542197889           
       2.779001             0.00707752078             0.00055163693           
       2.781642             0.00711758874            0.000549119432           
       2.784282             0.00633334243            0.000526502314           
       2.786923             0.00610529698            0.000521488014           
       2.789563             0.00771757362            0.000564690625           
       2.792203              0.0072761068             0.00052378485           
       2.794844             0.00691963361            0.000559820801           
       2.797484             0.00700558804            0.000531605562           
       2.800125             0.00762289176            0.000583091241           
       2.802765             0.00584757288            0.000501912621           
       2.805405             0.00750609591            0.000570577688           
       2.808046             0.00677323729             0.00055153647           
       2.810686             0.00677438515            0.000506840819           
       2.813326              0.0069617912            0.000533700133           
       2.815967             0.00703940014            0.000551925672           
       2.818607             0.00716977603            0.000531543386           
       2.821248             0.00667725935            0.000502312257           
       2.823888             0.00613832583            0.000499928136           
       2.826528             0.00678419809            0.000508990104           
       2.829169             0.00707634469            0.000544496837           
       2.831809             0.00650156603             0.00052901428           
       2.834449             0.00684290253            0.000546153299           
       2.837090             0.00699923033            0.000533488847           
       2.839730             0.00609431901            0.000495378535           
       2.842371             0.00734904953            0.000544774188           
       2.845011             0.00680512479            0.000528405116           
       2.847651             0.00767088265            0.000561700343           
       2.850292             0.00671274177            0.000530607563           
       2.852932             0.00726259984              0.0005639396           
       2.855573             0.00593346649             0.00049445314           
       2.858213             0.00722018677            0.000572775676           
       2.860853             0.00871744053            0.000585457084           
       2.863494             0.00690280553            0.000539392583           
       2.866134               0.007049392            0.000566553185           
       2.868774             0.00716986899             0.00056154351           
       2.871415             0.00711347012             0.00056804296           
       2.874055             0.00662967986            0.000524189243           
       2.876696             0.00704676266            0.000555044292           
       2.879336             0.00712758484            0.000538015052           
       2.881976             0.00722146229            0.000558567943           
       2.884617             0.00706948289            0.000544542374           
       2.887257             0.00800767879            0.000582541743           
       2.889897             0.00665464291            0.000520121298           
       2.892538             0.00785317747            0.000618983103           
       2.895178             0.00648742184            0.000508262752           
       2.897819             0.00621130704            0.000507323023           
       2.900459               0.006809359            0.000520852235           
       2.903099              0.0067912712            0.000514835575           
       2.905740             0.00678332376            0.000527846386           
       2.908380             0.00663726061            0.000528065121           
       2.911021             0.00686470999            0.000545768275           
       2.913661             0.00632603991            0.000523760837           
       2.916301             0.00721468147            0.000559873101           
       2.918942             0.00712006808            0.000532009313           
       2.921582             0.00710075961            0.000555879747           
       2.924222             0.00657500942            0.000518220043           
       2.926863             0.00691655465            0.000553628354           
       2.929503             0.00651880203            0.000543841502           
       2.932144             0.00731231036            0.000552916213           
       2.934784             0.00655160658            0.000514784791           
       2.937424             0.00726904362             0.00054780567           
       2.940065             0.00699637921            0.000512660572           
       2.942705              0.0080327061            0.000548629282           
       2.945346             0.00722302916            0.000552111372           
       2.947986             0.00648997927            0.000533631507           
       2.950626             0.00654752737            0.000532974374           
       2.953267             0.00772175099            0.000569444259           
       2.955907             0.00776412662            0.000592338827           
       2.958547             0.00712771843            0.000535790193           
       2.961188             0.00566199553            0.000498201243           
       2.963828             0.00784902669            0.000573784596           
       2.966469             0.00768263822            0.000556882599           
       2.969109             0.00652766803            0.000520924781           
       2.971749             0.00731280853            0.000547924002           
       2.974390             0.00741813973            0.000542299459           
       2.977030             0.00816970598            0.000581826804           
       2.979670             0.00846044736            0.000575920799           
       2.982311             0.00984954455             0.00064405417           
       2.984951             0.00655033262            0.000499535884           
       2.987592             0.00721962968            0.000534939993           
       2.990232             0.00742181355            0.000564068007           
       2.992872             0.00827402431            0.000560995905           
       2.995513             0.00801040604            0.000540024614           
       2.998153             0.00929126802            0.000591370784           
       3.000794              0.0115498143            0.000638639183           
       3.003434              0.0116866465            0.000643381028           
       3.006074              0.0444361898             0.00123697694           
       3.008715               0.121914542             0.00197783184           
       3.011355               0.183385498             0.00233919616           
       3.013995              0.0959779941             0.00169687552           
       3.016636              0.0594149595             0.00130737398           
       3.019276               0.123411762             0.00185214396           
       3.021917                0.47527331             0.00349493711           
       3.024557                1.65168413             0.00640561936           
       3.027197                 1.1701103             0.00525644593           
       3.029838               0.518798428             0.00354972839           
       3.032478               0.269219373             0.00255970732           
       3.035118              0.0707521753             0.00132982606           
       3.037759              0.0950037045             0.00153898545           
       3.040399               0.130846202             0.00186305022           
       3.043040               0.527128239             0.00378523709           
       3.045680               0.410453398             0.00314261392           
       3.048320              0.0862994776              0.0014723476           
       3.050961               0.108100316             0.00167689351           
       3.053601               0.084876462             0.00143108884           
       3.056242              0.0561952133             0.00123806282           
       3.058882              0.0460287199             0.00120195162           
       3.061522              0.0359014283              0.0010414782           
       3.064163              0.0433838181             0.00113045863           
       3.066803               0.100975094             0.00181567232           
       3.069443                0.10161312             0.00190565056           
       3.072084               0.056922699             0.00138883626           
       3.074724              0.0418138628             0.00132933007           
       3.077365              0.0855878681             0.00196875817           
       3.080005              0.0186782231             0.00092492821           
       3.082645              0.0113243013            0.000756574453           
       3.085286              0.0121411226            0.000789565884           
       3.087926             0.00989965844            0.000707471444           
       3.090566               0.011885024            0.000759520283           
       3.093207              0.0105852738            0.000745891516           
       3.095847             0.00916749325            0.000665326911           
       3.098488             0.00754120808            0.000669105761           
       3.101128             0.00974227093            0.000765399984           
       3.103768             0.00908881605            0.000725376612           
       3.106409             0.00948781773             0.00078875925           
       3.109049             0.00857028972            0.000719402818           
       3.111690             0.00762139791            0.000666763001           
       3.114330             0.00793412607            0.000694777423           
       3.116970             0.00802724205            0.000704207637           
       3.119611              0.0118671372            0.000911400552           
       3.122251              0.0207908117             0.00126187882           
       3.124891              0.0352322995             0.00165797901           
       3.127532              0.0223924129             0.00129308501           
       3.130172              0.0126081833            0.000987059047           
       3.132813             0.00911457219            0.000826200641           
       3.135453             0.00776961118            0.000756527716           
       3.138093             0.00709147125            0.000783134707           
       3.140734              0.0061959811            0.000675345418           
       3.143374             0.00707963881            0.000763439806           
       3.146014              0.0061800812            0.000767889574           
       3.148655             0.00658270724            0.000736710072           
       3.151295             0.00692447482            0.000805202137           
       3.153936             0.00515073401            0.000670825601           
       3.156576             0.00635592714            0.000735049672           
       3.159216             0.00727710711            0.000790448275           
       3.161857             0.00585879865            0.000706361905           
       3.164497             0.00817216732            0.000876547066           
       3.167138             0.00882750278            0.000941300878           
       3.169778             0.00610683823            0.000770009235           
       3.172418             0.00541280321            0.000717560869           
       3.175059             0.00559022144            0.000646489703           
       3.177699             0.00661466765            0.000744684426           
       3.180339             0.00575919802            0.000744491953           
       3.182980             0.00574443973            0.000768742159           
       3.185620             0.00598025428            0.000798806185           
       3.188261             0.00739830648            0.000904335458           
       3.190901             0.00533307952             0.00070616019           
       3.193541             0.00721169135            0.000862851016           
       3.196182             0.00548652988             0.00078432061           
       3.198822             0.00479939857            0.000733810129           
       3.201463             0.00466257457            0.000710813555           
       3.204103             0.00611519827            0.000809091626           
       3.206743             0.00481264596            0.000717701125           
       3.209384             0.00662500538            0.000909777598           
       3.212024             0.00498774425            0.000735963448           
       3.214664             0.00617454024            0.000931153655           
       3.217305             0.00644429935            0.000904254275           
       3.219945             0.00618944953            0.000912122205           
       3.222586             0.00535320291            0.000807962636           
       3.225226             0.00631157562            0.000973239328           
       3.227866             0.00613669714            0.000877121026           
       3.230507             0.00577822181            0.000882275752           
       3.233147             0.00561518347            0.000876762562           
       3.235787             0.00384964138            0.000742925018           
       3.238428             0.00615755135             0.00101393764           
       3.241068             0.00744494072             0.00104249153           
       3.243709             0.00622957472            0.000985231365           
       3.246349             0.00584456758            0.000869934023           
       3.248989             0.00612050228             0.00105116685           
       3.251630             0.00350951543            0.000766506229           
       3.254270             0.00466733385            0.000790009504           
       3.256911             0.00412360085            0.000810224026           
       3.259551             0.00608825122             0.00105989563           
       3.262191             0.00652236446             0.00112056354           
       3.264832             0.00776184986             0.00127723437           
       3.267472             0.00535709217            0.000995417235           
       3.270112             0.00833940953             0.00137252609           
       3.272753             0.00396592074            0.000866362721           
       3.275393             0.00513783611             0.00100615836           
       3.278034             0.00532371055             0.00102477347           
       3.280674             0.00464154001             0.00103833387           
       3.283314             0.00650646357              0.0010994819           
       3.285955             0.00655512106             0.00113865781           
       3.288595             0.00613358015             0.00122539056           
       3.291235             0.00595063413             0.00124076242           
       3.293876             0.00504285177              0.0011586212           
       3.296516             0.00514260426             0.00112324967           
       3.299157              0.0079092352             0.00137549953           
       3.301797             0.00743822628             0.00152157566           
       3.304437              0.0058497416             0.00116905806           
       3.307078             0.00677188906             0.00138557948           
       3.309718             0.00567507335             0.00130923488           
       3.312359             0.00453576451             0.00117073939           
       3.314999             0.00703423927             0.00143547414           
       3.317639             0.00643605702             0.00131318502           
       3.320280             0.00422752946             0.00113155814           
       3.322920             0.00501268117             0.00125290273           
       3.325560             0.00717471741             0.00149995996           
       3.328201             0.00765776036             0.00139562902           
       3.330841             0.00377462965              0.0011925296           
       3.333482             0.00468837282             0.00125626241           
       3.336122             0.00535530561             0.00134326288           
       3.338762             0.00402642015             0.00134545336           
       3.341403             0.00654083695             0.00163860637           
       3.344043             0.00449960264               0.001304829           
       3.346683             0.00549231298             0.00147175399           
       3.349324              0.0055030232             0.00165634834           
       3.351964             0.00667963462             0.00192971164           
       3.354605              0.0072986874             0.00230692065           
       3.357245             0.00588428532             0.00186859376           
       3.359885             0.00686577601             0.00161546823           
       3.362526             0.00595514607             0.00188147325           
       3.365166             0.00638356921             0.00183731854           
       3.367807             0.00258161866              0.0014953392           
       3.370447             0.00355083468             0.00145473043           
       3.373087             0.00545673409              0.0019284614           
       3.375728             0.00165268269             0.00119778404           
       3.378368             0.00374287465             0.00267520041           
       3.381008             0.00321327063             0.00184801491           
       3.383649             0.00609247995             0.00204133053           
       3.386289             0.00957902844             0.00302940648           
       3.388930           -2.56121878e-05                         0           
       3.391570             0.00358095867             0.00207253692           
       3.394210             0.00381752216             0.00270809174           
       3.396851             0.00471001957             0.00336478828           
       3.399491             0.00692671293             0.00408161532           
       3.402131             0.00468353385             0.00474844922           
       3.404772           -2.57321402e-05                         0           
       3.407412                       nan                       nan           
       3.410053             0.00901381753             0.00932982082           
       3.412693                       nan                       nan           
       3.415333           -2.58448133e-05                         0           
