################################################################################
# EDF_DataBlockID                     0.Image.Psd
# EDF_BinarySize                      2105344
# EDF_HeaderSize                      2560
# ByteOrder                           LowByteFirst
# DataType                            FloatValue
# Dim_1                               512
# Dim_2                               1028
# Image                               0
# HeaderID                            EH:000000:000000:000000
# Size                                2105344
# Center_1                            304.9000
# Center_2                            588.7000
# Comment                             Xenocs_Cell_Window - 20251028_20perc_iodine_1.23mg
# DDummy                              0.6
# Date                                2025-10-30T11:27:51
# Delta                               21.910000
# Dummy                               -1.5
# ExposureTime                        360
# Gamma                               15.360000
# Intensity1                          8.6238e-10
# PSize_1                             7.5e-05
# PSize_2                             7.5e-05
# Pressure                            0.0326481
# SampleDistance                      0.115750
# SampleEnvKind                       large
# SampleEnvPN                         ElectroChemical cell
# SampleEnvSN                         1141
# Thickness                           0
# Wavelength                          1.541891e-10
# Wavelength                          1.54189e-10
# aux                                 0
# aux_dial                            0.002375
# beamx                               588.434
# beamx_dial                          588.434
# beamz                               657.808
# beamz_dial                          657.808
# det0x                               0
# det0x_dial                          6.36945
# det0xvd                             0
# det0xvd_dial                        0
# det0y                               450.002
# det0y_dial                          481.635
# det0z                               0
# det0z_dial                          1.23302
# det0zvd                             0
# det0zvd_dial                        0
# mag                                 1.818
# mag_dial                            1.818
# om                                  0.2499
# om_dial                             -0.610199
# phi                                 -0.0120535
# phi_dial                            0
# ry                                  0.599993
# ry_dial                             0.599993
# s1bot                               0.8
# s1bot_dial                          -1.66094
# s1hl                                0.8
# s1hl_dial                           -0.608437
# s1hr                                0.8
# s1hr_dial                           0.970938
# s1top                               0.8
# s1top_dial                          -0.461562
# s2bot                               0.45
# s2bot_dial                          1.36109
# s2hl                                0.45
# s2hl_dial                           -0.83375
# s2hr                                0.45
# s2hr_dial                           -0.118594
# s2top                               0.45
# s2top_dial                          1.44734
# w2theta                             32
# w2theta_dial                        32
# waxsch                              19.2605
# waxsch_dial                         -32.7355
# waxsh                               137.085
# waxsh_dial                          -43.5338
# waxsth                              26.0607
# waxsth_dial                         -19.4086
# waxsz                               67.0407
# waxsz_dial                          -23.7954
# wind                                65.9854
# wind_dial                           66.0041
# wpsi                                124
# wpsi_dial                           124
# wstod                               115
# wstod_dial                          115
# x                                   0
# x_dial                              1.00969
# z                                   0
# z_dial                              13.3172
# CountCutoff                         6807993
# DetectorModel                       Dectris EIGER2 Si 500K, S/N E-01-0554
# ThresholdSetting                    4023.88989258
# Saturation                          0
# FlatField                           Corrected
# BackgroundReductionExtra            0.02
# BackgroundCorrectionConstant        0.0026712
# Detector                            0
# Monitor                             0
# Pil_Roi0                            0
# SumForIntensity1                    3.10457e+08
# TransmittedFlux                     862380
# det                                 0
# mon                                 0
# pilai0                              3.10457e+08
# pilai1                              780336
# pilct0                              5.35921e+08
# pilct1                              780336
# pilroi0                             0
# pilroi1                             0
# sec                                 1
# title                               20251028_20perc_iodine_1.23mg_1_00410.edf
# usaxs0                              0
# Operation                           Azimuthal average I(q)
# Error_model                         ErrorModel.poisson
# Geometrical_correction              True
# Transmission_correction             True
# Thickness_correction                False
# Binning mode                        Uniform
# Binning factor                      1.0
# Psi                                 0.0
# Omega                               0.2499
# MaskInvalidPixels                   True
# DetectorEdge                        3
# MaskFiles                           ['WAXS_corrected.edf']
################################################################################
    q(A⁻¹)                Intensity(a.u.)            Sigma_I(a.u.)            
       0.693100               0.012305816             0.00736410445           
       0.695741             0.00276249326             0.00284723336           
       0.698381             0.00413655003             0.00426780381           
       0.701021           -2.35061445e-05                         0           
       0.703662             0.00836354896             0.00495190445           
       0.706302             0.00687372977             0.00347560438           
       0.708942             0.00282202503             0.00287432316           
       0.711583             0.00872470317             0.00437639273           
       0.714223             0.00875251787             0.00506066256           
       0.716864             0.00866876663             0.00329526478           
       0.719504              0.0087164556             0.00356573839           
       0.722144             0.00871547487             0.00330196041           
       0.724785              0.0095047609             0.00275060569           
       0.727425             0.00289188672             0.00205252485           
       0.730065             0.00792550207             0.00240354576           
       0.732706             0.00565403415             0.00170477458           
       0.735346            0.000852000237             0.00086264422           
       0.737987             0.00603928202             0.00162293671           
       0.740627               0.002831283             0.00165800965           
       0.743267             0.00561185051             0.00156347384           
       0.745908             0.00979148261             0.00224063196           
       0.748548             0.00822978796             0.00189345528           
       0.751189              0.0063121501              0.0022344257           
       0.753829             0.00803495692             0.00231736339           
       0.756469             0.00780341725             0.00184152715           
       0.759110             0.00675942651              0.0018061806           
       0.761750             0.00859664753             0.00180107364           
       0.764390             0.00744458928              0.0017542551           
       0.767031             0.00557185375             0.00131423004           
       0.769671             0.00680608233              0.0018119023           
       0.772312             0.00754477898             0.00145231489           
       0.774952             0.00458009024             0.00152803838           
       0.777592             0.00782790639             0.00145504775           
       0.780233             0.00785822104             0.00175889667           
       0.782873             0.00606956582              0.0014784262           
       0.785513             0.00863696531             0.00188540737           
       0.788154             0.00830428889             0.00154653483           
       0.790794              0.0094825259             0.00197573884           
       0.793435             0.00696418544             0.00152108295           
       0.796075             0.00925775301             0.00168941635           
       0.798715             0.00814776387             0.00187290548           
       0.801356              0.0101739424             0.00180126327           
       0.803996             0.00797621171             0.00162601149           
       0.806637             0.00795274031             0.00129209931           
       0.809277             0.00688719498             0.00130148754           
       0.811917             0.00622476563             0.00115669265           
       0.814558             0.00764314074             0.00133211667           
       0.817198             0.00651225814             0.00116819993           
       0.819838             0.00580559525             0.00111631552           
       0.822479             0.00562689928             0.00129052747           
       0.825119             0.00726276923             0.00124789352           
       0.827760             0.00769478716             0.00130112059           
       0.830400             0.00698350633             0.00116662482           
       0.833040             0.00618989645             0.00115072036           
       0.835681             0.00689530476             0.00138070192           
       0.838321              0.0077860307             0.00123144486           
       0.840961             0.00599013682             0.00117685045           
       0.843602              0.0104981984             0.00142872608           
       0.846242             0.00581642955             0.00106329811           
       0.848883              0.0062852154             0.00113113297           
       0.851523             0.00633735838             0.00112170636           
       0.854163             0.00493723104             0.00105289714           
       0.856804             0.00525430134            0.000976624572           
       0.859444             0.00748438691             0.00114205946           
       0.862085              0.0104119983             0.00140394366           
       0.864725             0.00792760587              0.0012537118           
       0.867365             0.00884878177             0.00122824308           
       0.870006             0.00618143653            0.000978239457           
       0.872646             0.00595568437             0.00100691326           
       0.875286             0.00737234128             0.00107778453           
       0.877927             0.00805253212             0.00108693054           
       0.880567             0.00883986446             0.00117984956           
       0.883208             0.00645774309            0.000998926134           
       0.885848             0.00662973546             0.00105090711           
       0.888488             0.00878023932              0.0011343411           
       0.891129             0.00924622006             0.00119523908           
       0.893769             0.00551727554            0.000883606192           
       0.896410             0.00662033641            0.000902434328           
       0.899050             0.00624501992             0.00096389078           
       0.901690             0.00934574441             0.00128443345           
       0.904331             0.00637334799            0.000940360081           
       0.906971             0.00562725144            0.000940010962           
       0.909611             0.00792956373             0.00101578903           
       0.912252             0.00608833819            0.000919357497           
       0.914892               0.007790669             0.00113646972           
       0.917533             0.00694021791             0.00101472066           
       0.920173             0.00765674614            0.000988867336           
       0.922813             0.00574815514            0.000899116508           
       0.925454             0.00706879489            0.000897831524           
       0.928094             0.00684151133            0.000942975418           
       0.930734              0.0057166805            0.000928014909           
       0.933375             0.00812328121              0.0010953634           
       0.936015             0.00826119645             0.00100323364           
       0.938656             0.00968605802             0.00116535494           
       0.941296             0.00876761619             0.00100481388           
       0.943936             0.00797547577            0.000939808587           
       0.946577             0.00731875898            0.000894332693           
       0.949217             0.00681303891            0.000793497179           
       0.951858             0.00901730129             0.00095560218           
       0.954498             0.00595403399            0.000898791321           
       0.957138             0.00741939125            0.000950503745           
       0.959779             0.00650694193            0.000877494771           
       0.962419             0.00664238646            0.000880683191           
       0.965059             0.00786677846              0.0010080076           
       0.967700              0.0063680403            0.000928864489           
       0.970340             0.00701316202              0.0008625834           
       0.972981             0.00816226743            0.000847839577           
       0.975621             0.00848945435             0.00091985517           
       0.978261             0.00710011308            0.000799311732           
       0.980902             0.00859871355             0.00105243405           
       0.983542             0.00746418871            0.000868340353           
       0.986182             0.00779462895            0.000871197685           
       0.988823             0.00726013791            0.000816415854           
       0.991463             0.00814352876            0.000922501885           
       0.994104             0.00894328452            0.000943069279           
       0.996744             0.00851263139            0.000938477263           
       0.999384             0.00753102721            0.000789439665           
       1.002025             0.00691284767            0.000844181699           
       1.004665               0.010184942            0.000936427417           
       1.007306             0.00706408828            0.000775879419           
       1.009946             0.00760817264            0.000821196237           
       1.012586             0.00823654892            0.000832170104           
       1.015227             0.00766573418            0.000862476369           
       1.017867                0.00869839            0.000882966859           
       1.020507             0.00807463827            0.000824037666           
       1.023148             0.00809178454            0.000890102724           
       1.025788             0.00633195415            0.000721969488           
       1.028429               0.007671127            0.000832533585           
       1.031069             0.00728344924            0.000763392851           
       1.033709             0.00803893006             0.00085253641           
       1.036350             0.00736537551             0.00073291516           
       1.038990             0.00772503531            0.000764389678           
       1.041630             0.00757915375             0.00078970239           
       1.044271             0.00779051749            0.000752971042           
       1.046911             0.00798790848            0.000801998478           
       1.049552             0.00738530923             0.00081019555           
       1.052192             0.00892219262            0.000813153209           
       1.054832             0.00670938337            0.000711558709           
       1.057473             0.00925014888            0.000823621562           
       1.060113             0.00838043948            0.000764561569           
       1.062754             0.00837295101            0.000780255044           
       1.065394             0.00747105283            0.000779236701           
       1.068034             0.00901101542            0.000778648244           
       1.070675              0.0074066457            0.000736377806           
       1.073315                0.00760557            0.000756896743           
       1.075955              0.0084461479            0.000753005915           
       1.078596             0.00809959624            0.000783705574           
       1.081236             0.00833581728            0.000761313842           
       1.083877             0.00860685091            0.000766652044           
       1.086517             0.00956102864            0.000866446588           
       1.089157             0.00819617951            0.000832396443           
       1.091798             0.00777813622            0.000710921139           
       1.094438             0.00813735354            0.000724805146           
       1.097078             0.00849817683             0.00071040937           
       1.099719              0.0108220578            0.000867138839           
       1.102359              0.0082928368            0.000710883776           
       1.105000               0.008527823            0.000806090182           
       1.107640              0.0083557135            0.000762935934           
       1.110280             0.00775587817            0.000670669199           
       1.112921             0.00855716475            0.000756744941           
       1.115561             0.00926279634            0.000748289243           
       1.118202             0.00977318542            0.000769352808           
       1.120842             0.00910690919            0.000780545759           
       1.123482             0.00722050981             0.00069198361           
       1.126123             0.00840226516            0.000715986024           
       1.128763             0.00946688316            0.000765204229           
       1.131403             0.00860237902              0.0007028675           
       1.134044             0.00845263384            0.000716929757           
       1.136684             0.00872646012            0.000776653804           
       1.139325             0.00984039807            0.000759745527           
       1.141965             0.00860817851            0.000715284925           
       1.144605             0.00983848809            0.000729137889           
       1.147246              0.0105118549            0.000771323043           
       1.149886             0.00748049262            0.000648361564           
       1.152527              0.0080915755            0.000684130162           
       1.155167             0.00936392922            0.000700005288           
       1.157807              0.0090236053             0.00073676547           
       1.160448              0.0093642591            0.000732925046           
       1.163088             0.00887351191            0.000680537404           
       1.165728               0.010566306            0.000762460556           
       1.168369             0.00868518799             0.00069765265           
       1.171009              0.0102193387            0.000734419895           
       1.173650             0.00966543348            0.000732979757           
       1.176290             0.00976153232            0.000719837686           
       1.178930              0.0100443372            0.000715653244           
       1.181571             0.00896878603            0.000689662752           
       1.184211             0.00912997691             0.00069829974           
       1.186851              0.0101820825            0.000720982227           
       1.189492              0.0108442024            0.000739049392           
       1.192132              0.0099339057            0.000699414028           
       1.194773              0.0084514097              0.0006479363           
       1.197413             0.00894473652            0.000638676883           
       1.200053             0.00930717315            0.000668041158           
       1.202694              0.0104944786             0.00067457329           
       1.205334             0.00929308997            0.000684102893           
       1.207975             0.00861684319            0.000628787958           
       1.210615              0.0100436922            0.000748892058           
       1.213255             0.00944131871            0.000650194488           
       1.215896             0.00918670707            0.000652988341           
       1.218536             0.00945426018            0.000636953732           
       1.221176             0.00937977003            0.000689765893           
       1.223817             0.00960212732            0.000655124768           
       1.226457             0.00905675857            0.000649066411           
       1.229098             0.00987184054            0.000677611311           
       1.231738             0.00897280766            0.000649199173           
       1.234378               0.010603846             0.00066314995           
       1.237019              0.0104322754            0.000677818724           
       1.239659             0.00969291827            0.000647666746           
       1.242299             0.00980532147            0.000643134965           
       1.244940              0.0108437719            0.000657777475           
       1.247580              0.0107567757            0.000675168734           
       1.250221              0.0110635695            0.000680504256           
       1.252861              0.0104654093            0.000630086915           
       1.255501               0.010947623            0.000699738309           
       1.258142              0.0100200213            0.000629056665           
       1.260782             0.00943414203            0.000623596076           
       1.263423              0.0103895088            0.000628813629           
       1.266063              0.0105787937            0.000650360616           
       1.268703             0.00996453349            0.000625958888           
       1.271344              0.0101630073            0.000653586516           
       1.273984              0.0108516719            0.000652271977           
       1.276624              0.0099180327            0.000611866478           
       1.279265              0.0103150765            0.000634355966           
       1.281905              0.0108875338            0.000654613204           
       1.284546              0.0100025454             0.00060648194           
       1.287186              0.0106108763            0.000612850033           
       1.289826             0.00986711677            0.000622845878           
       1.292467              0.0110601565            0.000644901644           
       1.295107             0.00927263957             0.00058462699           
       1.297747              0.0104615688            0.000594223502           
       1.300388              0.0100595424            0.000635209993           
       1.303028              0.0118937465             0.00065938078           
       1.305669              0.0111101678            0.000652464686           
       1.308309              0.0114986847            0.000657238213           
       1.310949              0.0108243165            0.000637033531           
       1.313590              0.0112771301             0.00062989634           
       1.316230              0.0115187697            0.000679350299           
       1.318871                0.01085761            0.000645963291           
       1.321511              0.0101046725            0.000611612758           
       1.324151              0.0101590254            0.000595074711           
       1.326792              0.0105055757             0.00060888057           
       1.329432              0.0113629025            0.000628769159           
       1.332072              0.0120722295            0.000638438845           
       1.334713              0.0110827574            0.000631351089           
       1.337353              0.0110551206            0.000604722884           
       1.339994              0.0116736719            0.000652108138           
       1.342634             0.00957037826            0.000566200952           
       1.345274              0.0121506221            0.000660246665           
       1.347915              0.0102300409            0.000589093119           
       1.350555              0.0105379164            0.000608363244           
       1.353195              0.0107498402            0.000617467935           
       1.355836              0.0107139458            0.000606824028           
       1.358476              0.0112781766            0.000604636866           
       1.361117              0.0109564197            0.000596767578           
       1.363757              0.0105808624            0.000604357589           
       1.366397              0.0103189044            0.000578768663           
       1.369038              0.0120912744            0.000632742831           
       1.371678               0.010885479            0.000595071603           
       1.374319              0.0114334268            0.000604613472           
       1.376959              0.0112732936            0.000594326933           
       1.379599              0.0103235275            0.000609517456           
       1.382240               0.011404855            0.000602109481           
       1.384880              0.0110784116            0.000628576968           
       1.387520               0.011399885             0.00060557857           
       1.390161              0.0107471658            0.000558445774           
       1.392801              0.0109209219            0.000586531043           
       1.395442              0.0118869953            0.000620281353           
       1.398082              0.0113711529            0.000568123173           
       1.400722              0.0108296884            0.000580754718           
       1.403363              0.0108920117            0.000613071391           
       1.406003              0.0105451649             0.00056454324           
       1.408644              0.0113753968            0.000614235327           
       1.411284              0.0102616834             0.00055242091           
       1.413924              0.0104115496            0.000554377318           
       1.416565              0.0104836271            0.000554107758           
       1.419205              0.0110130416              0.0005924379           
       1.421845              0.0105584498            0.000579741234           
       1.424486              0.0110898754            0.000571116487           
       1.427126              0.0101999088             0.00056897635           
       1.429767              0.0111303269            0.000559221099           
       1.432407              0.0108582181            0.000578039875           
       1.435047              0.0114000771            0.000556256068           
       1.437688              0.0107910101            0.000549284466           
       1.440328             0.00986774419            0.000536087875           
       1.442968              0.0106510527             0.00056943809           
       1.445609              0.0116660444            0.000577047841           
       1.448249             0.00980820827            0.000542505307           
       1.450890               0.010748992            0.000564220819           
       1.453530              0.0106554666            0.000587714841           
       1.456170              0.0113227354            0.000587979437           
       1.458811              0.0110729153            0.000556001349           
       1.461451              0.0102611098            0.000536635988           
       1.464092              0.0114065102            0.000569493958           
       1.466732              0.0115203066            0.000567409515           
       1.469372              0.0102825701               0.000523517           
       1.472013              0.0114682386            0.000596288601           
       1.474653             0.00977173158            0.000541928705           
       1.477293              0.0108035573            0.000581832709           
       1.479934               0.010729826            0.000553292201           
       1.482574              0.0118230272            0.000561828009           
       1.485215              0.0105170764             0.00053976036           
       1.487855             0.00992870891            0.000531363186           
       1.490495              0.0107489603            0.000550840522           
       1.493136              0.0111721347            0.000553881344           
       1.495776              0.0107953687            0.000541982661           
       1.498416              0.0115805437            0.000579712307           
       1.501057              0.0102498036             0.00053336875           
       1.503697              0.0108996916            0.000537730323           
       1.506338              0.0107711428            0.000544318076           
       1.508978              0.0104568786            0.000531044331           
       1.511618              0.0112199395            0.000585831364           
       1.514259              0.0108988546            0.000557441115           
       1.516899              0.0111181201             0.00054819538           
       1.519540              0.0101832576            0.000533102245           
       1.522180              0.0103855199            0.000543099827           
       1.524820              0.0110250852            0.000556433237           
       1.527461             0.00975208479            0.000525912394           
       1.530101              0.0102868471            0.000534737372           
       1.532741               0.010534161            0.000537986844           
       1.535382              0.0113557373            0.000567564568           
       1.538022              0.0100315504             0.00050253573           
       1.540663             0.00913466069            0.000515779974           
       1.543303              0.0102201389            0.000506566194           
       1.545943              0.0103911003            0.000540628754           
       1.548584              0.0101168334            0.000543021948           
       1.551224              0.0109883329            0.000523253685           
       1.553864             0.00995290919            0.000526220446           
       1.556505              0.0106930317            0.000526904479           
       1.559145              0.0100102005            0.000516048591           
       1.561786              0.0100881383            0.000518452612           
       1.564426             0.00968236226            0.000492120349           
       1.567066              0.0102980622            0.000531789948           
       1.569707             0.00954814094            0.000502862866           
       1.572347             0.00943278822            0.000516359949           
       1.574988              0.0100082597            0.000506258402           
       1.577628              0.0100727829            0.000529601645           
       1.580268              0.0101796036            0.000515841244           
       1.582909             0.00917935352            0.000519213827           
       1.585549                0.01023922            0.000532449682           
       1.588189              0.0110364945            0.000540725812           
       1.590830             0.00937162128            0.000497649374           
       1.593470             0.00884329503            0.000502559753           
       1.596111              0.0100228653            0.000522353638           
       1.598751             0.00921612503            0.000485346175           
       1.601391             0.00955085942            0.000504982377           
       1.604032             0.00940269443             0.00051152464           
       1.606672              0.0084583962            0.000471378371           
       1.609312             0.00888735736            0.000504386909           
       1.611953             0.00891047971            0.000494215684           
       1.614593             0.00957433879            0.000502521122           
       1.617234             0.00870690859            0.000496649011           
       1.619874             0.00876950498            0.000496462157           
       1.622514             0.00966657408            0.000514126164           
       1.625155             0.00895988251            0.000497900562           
       1.627795             0.00885721054            0.000482910244           
       1.630436              0.0089998174             0.00048424049           
       1.633076             0.00932948392            0.000499495958           
       1.635716              0.0101932599            0.000513983698           
       1.638357             0.00937826969            0.000494307706           
       1.640997             0.00885433617            0.000494850902           
       1.643637             0.00927184196            0.000492768025           
       1.646278             0.00867480581            0.000491614835           
       1.648918             0.00893439697            0.000500277345           
       1.651559              0.0089675021             0.00050509342           
       1.654199             0.00843516477            0.000476443699           
       1.656839             0.00859097402            0.000480991693           
       1.659480             0.00823329039            0.000488554376           
       1.662120             0.00892416912             0.00047905462           
       1.664761             0.00863124499            0.000489379195           
       1.667401             0.00897670447             0.00047701041           
       1.670041             0.00772894926            0.000449367494           
       1.672682             0.00909114075            0.000485357688           
       1.675322             0.00872895049             0.00047253284           
       1.677962             0.00814795739            0.000451500162           
       1.680603             0.00904011659            0.000477040149           
       1.683243             0.00926697181            0.000503908478           
       1.685884             0.00886823746            0.000496588577           
       1.688524             0.00883265311            0.000486011432           
       1.691164             0.00806749026            0.000464588746           
       1.693805             0.00958651388            0.000512005581           
       1.696445             0.00857354491            0.000487008449           
       1.699085              0.0087432763            0.000475326027           
       1.701726              0.0093971808            0.000474707739           
       1.704366             0.00892375185            0.000487331519           
       1.707007               0.008864386             0.00047488086           
       1.709647             0.00848402036            0.000469827274           
       1.712287             0.00794635745             0.00045865409           
       1.714928             0.00864281337            0.000482187879           
       1.717568             0.00883369335             0.00045921135           
       1.720209             0.00887083017            0.000482002021           
       1.722849             0.00778588755            0.000449243994           
       1.725489             0.00909151316            0.000485859637           
       1.728130             0.00955610102            0.000529360904           
       1.730770             0.00906534581             0.00048967103           
       1.733410             0.00845136332            0.000465366051           
       1.736051             0.00893961194            0.000481951194           
       1.738691             0.00967576493            0.000491238293           
       1.741332             0.00846092922            0.000472797883           
       1.743972              0.0091592962            0.000507994522           
       1.746612             0.00844053755            0.000468273495           
       1.749253               0.007964182            0.000463850617           
       1.751893             0.00825451525            0.000468763492           
       1.754533             0.00862978757            0.000478853072           
       1.757174             0.00861449929            0.000473948482           
       1.759814             0.00953607535            0.000491097235           
       1.762455             0.00814901287            0.000462314365           
       1.765095             0.00795211706            0.000436884304           
       1.767735             0.00828139346            0.000459591765           
       1.770376             0.00780924833            0.000447474775           
       1.773016             0.00882544972            0.000472512776           
       1.775657             0.00938131589            0.000480156393           
       1.778297             0.00820937497            0.000445297272           
       1.780937             0.00879498355            0.000486486275           
       1.783578             0.00892889821            0.000477919489           
       1.786218             0.00896966301            0.000499898523           
       1.788858             0.00872087892            0.000468152345           
       1.791499             0.00826540014            0.000450644309           
       1.794139             0.00901575861             0.00046683693           
       1.796780             0.00893946932            0.000462616565           
       1.799420             0.00842399884            0.000446593872           
       1.802060             0.00906572068            0.000467034122           
       1.804701             0.00884268347            0.000442639654           
       1.807341             0.00843775238            0.000454343683           
       1.809981             0.00928370966            0.000478164608           
       1.812622             0.00914548294            0.000466047335           
       1.815262             0.00935488036            0.000481365125           
       1.817903              0.0107944528            0.000509416238           
       1.820543             0.00901239812            0.000472724114           
       1.823183             0.00908811501            0.000474444767           
       1.825824             0.00923390441            0.000456886435           
       1.828464             0.00866285666            0.000461360294           
       1.831105             0.00800331803            0.000431189583           
       1.833745             0.00915140262            0.000470928106           
       1.836385             0.00803107229            0.000453751503           
       1.839026             0.00914556361            0.000482683266           
       1.841666             0.00780688489            0.000444378644           
       1.844306             0.00817993637            0.000442460646           
       1.846947             0.00921540389            0.000473747788           
       1.849587             0.00805028885            0.000488945176           
       1.852228             0.00854403984            0.000455484427           
       1.854868             0.00863992696            0.000483844309           
       1.857508              0.0093735464            0.000499024683           
       1.860149             0.00793359202            0.000467438715           
       1.862789             0.00913763703            0.000484214821           
       1.865429             0.00844140847            0.000485808862           
       1.868070              0.0085747623            0.000483105204           
       1.870710             0.00819641018            0.000461437422           
       1.873351             0.00912368529              0.0004928583           
       1.875991             0.00899465603            0.000497347303           
       1.878631             0.00839956277             0.00047140854           
       1.881272             0.00844532599            0.000469523818           
       1.883912             0.00938567314            0.000515123666           
       1.886553             0.00915231373             0.00050299246           
       1.889193             0.00878992552             0.00049209157           
       1.891833             0.00885338971            0.000512897908           
       1.894474             0.00876265128            0.000505818917           
       1.897114             0.00928949259            0.000503969985           
       1.899754             0.00815691526            0.000474225588           
       1.902395             0.00895710462            0.000487226332           
       1.905035             0.00858697992            0.000505279689           
       1.907676             0.00868737004            0.000479003286           
       1.910316             0.00815190949            0.000476326602           
       1.912956             0.00862484135             0.00047916989           
       1.915597             0.00852795273            0.000479133801           
       1.918237             0.00859163466            0.000496672748           
       1.920878             0.00893032534            0.000504294898           
       1.923518             0.00863900887            0.000496211841           
       1.926158             0.00782585453            0.000466153072           
       1.928799             0.00923655944            0.000500566037           
       1.931439             0.00815525925            0.000482691248           
       1.934079             0.00852980966            0.000514619244           
       1.936720             0.00838794936            0.000472828115           
       1.939360             0.00816021777            0.000497546786           
       1.942001             0.00881270587            0.000473908432           
       1.944641             0.00858407436            0.000476933685           
       1.947281             0.00852877831            0.000471013118           
       1.949922             0.00823353192            0.000478019715           
       1.952562             0.00933101662             0.00052483336           
       1.955202             0.00892071315            0.000512539128           
       1.957843             0.00898720311            0.000501104613           
       1.960483             0.00931297883            0.000533315137           
       1.963124             0.00875274897            0.000506418358           
       1.965764             0.00788201737            0.000453190181           
       1.968404             0.00896903812            0.000478863618           
       1.971045             0.00866822823            0.000479969571           
       1.973685             0.00856372367            0.000500408225           
       1.976326              0.0073931883            0.000458562755           
       1.978966             0.00694669471            0.000448401109           
       1.981606             0.00768652569            0.000481511813           
       1.984247             0.00862937022            0.000506835181           
       1.986887               0.008195018            0.000487998409           
       1.989527             0.00736129482             0.00045752845           
       1.992168             0.00859865893            0.000513073922           
       1.994808             0.00819524097            0.000498746435           
       1.997449             0.00702839362            0.000452392319           
       2.000089             0.00831543625            0.000490122281           
       2.002729             0.00778154784             0.00047441151           
       2.005370             0.00798438675            0.000475384271           
       2.008010              0.0076053154            0.000484211106           
       2.010650             0.00848203069            0.000515174852           
       2.013291             0.00814581225            0.000484386308           
       2.015931             0.00799870522            0.000476599544           
       2.018572             0.00726684492            0.000485887706           
       2.021212             0.00816139242            0.000505674785           
       2.023852             0.00745948957            0.000457554391           
       2.026493             0.00869691988            0.000516123127           
       2.029133             0.00705660539            0.000455553729           
       2.031774             0.00827625467            0.000517764011           
       2.034414              0.0080733282            0.000470537933           
       2.037054             0.00778017938            0.000473624202           
       2.039695             0.00746488377            0.000460424178           
       2.042335             0.00728972648            0.000472834888           
       2.044975             0.00756898476            0.000475963569           
       2.047616             0.00756460297            0.000474643797           
       2.050256             0.00742442057             0.00047467534           
       2.052897             0.00741882993            0.000483244209           
       2.055537             0.00867057702            0.000504902738           
       2.058177             0.00781165026            0.000469307415           
       2.060818              0.0079663234            0.000496479282           
       2.063458             0.00752255028            0.000502763604           
       2.066098             0.00735080155            0.000468829113           
       2.068739             0.00798414506            0.000496203898           
       2.071379             0.00798489578            0.000509168991           
       2.074020             0.00706908244            0.000468669125           
       2.076660             0.00745415128            0.000485155125           
       2.079300              0.0077090573            0.000505469521           
       2.081941             0.00828329176            0.000479742509           
       2.084581             0.00792312357            0.000495241683           
       2.087222             0.00635234384             0.00042765659           
       2.089862             0.00775415183            0.000514616904           
       2.092502             0.00812759099            0.000510718602           
       2.095143             0.00829262863            0.000532721016           
       2.097783             0.00807780348            0.000509039204           
       2.100423             0.00764961964            0.000477328886           
       2.103064             0.00756778894             0.00049263658           
       2.105704             0.00701566944            0.000471976301           
       2.108345             0.00747779622            0.000468139163           
       2.110985               0.007663107            0.000506164036           
       2.113625             0.00779283132            0.000514884581           
       2.116266             0.00819150099            0.000535380201           
       2.118906             0.00787528651            0.000489219262           
       2.121546             0.00697618563            0.000451655373           
       2.124187             0.00711159774            0.000478677811           
       2.126827             0.00780094595            0.000506936475           
       2.129468             0.00748832848            0.000497943731           
       2.132108             0.00777505861            0.000493649309           
       2.134748              0.0073328701             0.00047754626           
       2.137389             0.00714748363            0.000491861422           
       2.140029              0.0071415478            0.000440161479           
       2.142670             0.00808861544            0.000500630746           
       2.145310             0.00739539944            0.000465924941           
       2.147950             0.00852081651            0.000514761576           
       2.150591             0.00824012966            0.000501096307           
       2.153231             0.00805235607            0.000509889918           
       2.155871              0.0078715485            0.000487025893           
       2.158512             0.00849784771             0.00052800663           
       2.161152             0.00719971221            0.000470776646           
       2.163793             0.00809399312            0.000496911667           
       2.166433             0.00756053951            0.000493173876           
       2.169073             0.00738558063            0.000476582253           
       2.171714             0.00730999476            0.000470592849           
       2.174354              0.0086007179            0.000533374246           
       2.176995             0.00735038631            0.000491007935           
       2.179635             0.00683924693             0.00050049013           
       2.182275             0.00696410164            0.000476835866           
       2.184916             0.00778311121            0.000486890961           
       2.187556             0.00749408432            0.000472976488           
       2.190196             0.00746691689            0.000493357364           
       2.192837             0.00771079864            0.000498621807           
       2.195477             0.00759327646            0.000471740094           
       2.198118             0.00696917119            0.000463518134           
       2.200758             0.00655924976            0.000461344039           
       2.203398             0.00733251147            0.000490900745           
       2.206039             0.00800761738            0.000485512867           
       2.208679             0.00795920135              0.0004953079           
       2.211319             0.00710842608            0.000470786696           
       2.213960             0.00689855387            0.000469998714           
       2.216600             0.00785040165            0.000518662335           
       2.219241             0.00767441447            0.000490113334           
       2.221881             0.00707969257            0.000471707858           
       2.224521             0.00741361611             0.00048861905           
       2.227162             0.00785833055            0.000492988368           
       2.229802             0.00684769656            0.000474602991           
       2.232443              0.0074143685            0.000486060822           
       2.235083             0.00737159658            0.000498952854           
       2.237723             0.00708886049            0.000469545448           
       2.240364             0.00800395509            0.000511224012           
       2.243004             0.00787325364            0.000502985394           
       2.245644             0.00709650213            0.000482309538           
       2.248285             0.00702844129            0.000470375466           
       2.250925             0.00691604725            0.000469433752           
       2.253566             0.00829883129            0.000549746671           
       2.256206             0.00756417041            0.000514355102           
       2.258846             0.00699930861            0.000470670298           
       2.261487             0.00722060716            0.000501761007           
       2.264127             0.00733164186            0.000488304532           
       2.266767             0.00733769549            0.000501521223           
       2.269408             0.00837516613            0.000537998424           
       2.272048             0.00799854499            0.000522624372           
       2.274689               0.007355367            0.000507775065           
       2.277329             0.00770576468             0.00048935848           
       2.279969             0.00666495818            0.000484440298           
       2.282610             0.00818299364            0.000521852282           
       2.285250             0.00735083541            0.000473405643           
       2.287891             0.00694582683            0.000493381666           
       2.290531               0.006589521            0.000487020395           
       2.293171             0.00690486585            0.000485620623           
       2.295812             0.00698804888            0.000486573253           
       2.298452              0.0072599318             0.00051863028           
       2.301092             0.00745553685            0.000488319662           
       2.303733              0.0078905022            0.000522632323           
       2.306373               0.006967744            0.000498857181           
       2.309014             0.00668920206            0.000479249271           
       2.311654             0.00796964335            0.000545891022           
       2.314294             0.00699160443            0.000471061643           
       2.316935             0.00775370174            0.000498120507           
       2.319575             0.00692884288             0.00049337324           
       2.322215             0.00682868363             0.00051044835           
       2.324856             0.00628796127            0.000450340478           
       2.327496             0.00681813403            0.000498632246           
       2.330137               0.006578874             0.00046870692           
       2.332777             0.00710751754            0.000502328852           
       2.335417             0.00835294107            0.000528308424           
       2.338058              0.0065910066             0.00048331139           
       2.340698             0.00711189402            0.000498101042           
       2.343339             0.00696087555            0.000503628344           
       2.345979             0.00779669002             0.00050426754           
       2.348619             0.00708328074            0.000498212778           
       2.351260             0.00701369737            0.000492871199           
       2.353900             0.00737469362             0.00050379515           
       2.356540             0.00721333653            0.000497545908           
       2.359181             0.00809817438            0.000519788839           
       2.361821             0.00668433658            0.000456171016           
       2.364462             0.00767549102            0.000511247678           
       2.367102             0.00838658822            0.000549187142           
       2.369742             0.00841137134            0.000578910874           
       2.372383             0.00699244696             0.00047794747           
       2.375023             0.00665196664            0.000490041495           
       2.377663             0.00778133798            0.000506768434           
       2.380304             0.00650887267            0.000471212645           
       2.382944             0.00703176062             0.00046649462           
       2.385585             0.00725062982            0.000505208147           
       2.388225             0.00765169317             0.00051655398           
       2.390865             0.00735375653            0.000501195678           
       2.393506             0.00746542526            0.000495459569           
       2.396146             0.00738830102            0.000532938869           
       2.398787             0.00684523878            0.000472749761           
       2.401427             0.00720657018            0.000468201049           
       2.404067             0.00661248713            0.000458491439           
       2.406708             0.00745222831            0.000480897491           
       2.409348             0.00715615542            0.000499850458           
       2.411988             0.00653365023            0.000467957254           
       2.414629             0.00670467113             0.00048880567           
       2.417269             0.00817293784            0.000545981249           
       2.419910             0.00692929771            0.000503894749           
       2.422550             0.00704881105            0.000486235132           
       2.425190             0.00626656662            0.000483266697           
       2.427831             0.00729875963            0.000518618923           
       2.430471             0.00713359748            0.000488462444           
       2.433112             0.00751569959            0.000488218512           
       2.435752              0.0065298038            0.000481607686           
       2.438392             0.00722647983             0.00048901931           
       2.441033             0.00724199506             0.00051881823           
       2.443673              0.0067571998            0.000501537307           
       2.446313             0.00793562836            0.000543992948           
       2.448954             0.00728572075            0.000496294638           
       2.451594             0.00726352971             0.00053281941           
       2.454235              0.0059513862            0.000452518438           
       2.456875             0.00970983232            0.000604802462           
       2.459515             0.00720702593            0.000534546387           
       2.462156             0.00675135628            0.000488471165           
       2.464796             0.00765847247            0.000513540762           
       2.467436             0.00768592279            0.000532012354           
       2.470077             0.00803316491            0.000515516095           
       2.472717             0.00784437206            0.000511629042           
       2.475358             0.00717513991            0.000494420254           
       2.477998             0.00691764341            0.000477283202           
       2.480638             0.00776418924            0.000514629134           
       2.483279             0.00774130786            0.000537076338           
       2.485919             0.00848051499            0.000541744768           
       2.488560             0.00746857115            0.000506975754           
       2.491200             0.00792921712            0.000537909682           
       2.493840             0.00788260633            0.000567503501           
       2.496481             0.00763626947            0.000549428767           
       2.499121             0.00679675873            0.000504176529           
       2.501761             0.00678818412            0.000510534274           
       2.504402             0.00760538585            0.000532496672           
       2.507042             0.00620469784            0.000477405473           
       2.509683             0.00651595325            0.000481756152           
       2.512323              0.0070992958            0.000528126512           
       2.514963             0.00742701393            0.000533505077           
       2.517604             0.00693546272            0.000534960399           
       2.520244             0.00710833457             0.00050773835           
       2.522884             0.00749096954            0.000528678785           
       2.525525              0.0122826858            0.000684653924           
       2.528165             0.00861265853            0.000564378005           
       2.530806             0.00984829368            0.000614025775           
       2.533446              0.0131518471            0.000694431475           
       2.536086             0.00659256769            0.000487257709           
       2.538727             0.00633434257            0.000458203463           
       2.541367             0.00671222584            0.000476319046           
       2.544008             0.00604858526            0.000466970293           
       2.546648             0.00667694507             0.00049904235           
       2.549288             0.00588726097            0.000478151265           
       2.551929             0.00714533806            0.000518372036           
       2.554569             0.00719391815            0.000501102894           
       2.557209             0.00660387788            0.000484522491           
       2.559850             0.00699770815            0.000500362455           
       2.562490             0.00691791328            0.000514194471           
       2.565131             0.00670056961            0.000524698178           
       2.567771             0.00656786729            0.000500853311           
       2.570411             0.00776820779            0.000538808163           
       2.573052             0.00646581143            0.000497760521           
       2.575692             0.00680825603            0.000507678775           
       2.578332             0.00675755978            0.000507876633           
       2.580973             0.00737919041            0.000525673021           
       2.583613             0.00699417987            0.000499589918           
       2.586254             0.00687070363            0.000494472211           
       2.588894             0.00716237138            0.000524271487           
       2.591534             0.00641541105            0.000513640365           
       2.594175             0.00696196324            0.000524975552           
       2.596815             0.00685530382             0.00052401022           
       2.599456             0.00695936325            0.000500673701           
       2.602096             0.00689393739             0.00050210703           
       2.604736             0.00670784629            0.000507028135           
       2.607377             0.00772797519            0.000529876646           
       2.610017             0.00714818638            0.000500694211           
       2.612657             0.00678820517             0.00051898067           
       2.615298             0.00699478495            0.000514340431           
       2.617938             0.00622960858            0.000519246884           
       2.620579              0.0075264344             0.00054790443           
       2.623219             0.00668132653            0.000515492087           
       2.625859             0.00684685304            0.000507373441           
       2.628500             0.00722959998            0.000517944662           
       2.631140             0.00646165352            0.000497208757           
       2.633780             0.00821701416            0.000560204054           
       2.636421             0.00681542875            0.000522741217           
       2.639061             0.00777634442            0.000525648221           
       2.641702             0.00631418504            0.000484624848           
       2.644342             0.00840896683            0.000561648924           
       2.646982             0.00673863959             0.00049526553           
       2.649623             0.00722762007             0.00053751958           
       2.652263              0.0076652155            0.000547997621           
       2.654904             0.00656092657            0.000507499679           
       2.657544             0.00723528873            0.000501977435           
       2.660184             0.00705470111            0.000524566747           
       2.662825             0.00772359859            0.000561606023           
       2.665465             0.00729667115            0.000527940206           
       2.668105             0.00632367176            0.000518040146           
       2.670746             0.00826725352            0.000547181131           
       2.673386             0.00832598593            0.000565913563           
       2.676027             0.00898100595            0.000578319855           
       2.678667             0.00908545269            0.000567567427           
       2.681307              0.0114717272            0.000626637358           
       2.683948              0.0155420041            0.000749406793           
       2.686588              0.0120978812            0.000650213857           
       2.689229               0.010327567            0.000587037243           
       2.691869             0.00967529761            0.000600527555           
       2.694509             0.00988710104            0.000607398665           
       2.697150             0.00748278986            0.000519837187           
       2.699790             0.00785079924            0.000558214909           
       2.702430             0.00706308237            0.000506109991           
       2.705071             0.00715106256            0.000526216221           
       2.707711             0.00733505937            0.000517261117           
       2.710352             0.00788472044            0.000566659422           
       2.712992             0.00760449923            0.000566788532           
       2.715632             0.00716270776            0.000510363349           
       2.718273             0.00676206246            0.000513917449           
       2.720913             0.00687139335            0.000516581333           
       2.723553             0.00642257117            0.000502776463           
       2.726194              0.0073935873            0.000563899013           
       2.728834              0.0078375449             0.00058085464           
       2.731475              0.0063267886             0.00048164776           
       2.734115             0.00735897747            0.000535574892           
       2.736755             0.00650606899            0.000507727592           
       2.739396              0.0072236984            0.000531897174           
       2.742036             0.00703884095             0.00054949537           
       2.744677             0.00697814712            0.000530858361           
       2.747317             0.00724138054            0.000536922191           
       2.749957             0.00842701876            0.000583276941           
       2.752598             0.00812557324            0.000578965445           
       2.755238             0.00832505654            0.000596608322           
       2.757878             0.00781849072            0.000573117058           
       2.760519             0.00870652713            0.000598376926           
       2.763159             0.00674460589            0.000521397336           
       2.765800             0.00827581295             0.00055040408           
       2.768440             0.00786755665             0.00054060981           
       2.771080             0.00796312851            0.000548423303           
       2.773721             0.00838923377            0.000577425923           
       2.776361             0.00695130561            0.000532867079           
       2.779001             0.00757130423            0.000575921966           
       2.781642              0.0065211561            0.000530552303           
       2.784282             0.00770016146             0.00058600221           
       2.786923             0.00730278751            0.000575706065           
       2.789563             0.00696967339            0.000541678925           
       2.792203             0.00683812172            0.000512551315           
       2.794844             0.00644892947            0.000545527733           
       2.797484             0.00742591512            0.000552468788           
       2.800125             0.00730682467            0.000576244141           
       2.802765             0.00802581996            0.000593540748           
       2.805405             0.00671304439            0.000544669465           
       2.808046             0.00730909848            0.000578327088           
       2.810686             0.00594408396            0.000479230718           
       2.813326             0.00736317158            0.000554031954           
       2.815967             0.00682824331            0.000548697273           
       2.818607             0.00840552819            0.000580943594           
       2.821248             0.00695967578            0.000517648185           
       2.823888             0.00667878662            0.000526377035           
       2.826528             0.00640139313            0.000499071612           
       2.829169             0.00647776919            0.000525858798           
       2.831809             0.00693323755            0.000551432026           
       2.834449             0.00741659528            0.000573934343           
       2.837090             0.00645576256            0.000517177372           
       2.839730              0.0068977745             0.00053197917           
       2.842371             0.00633178065            0.000510422022           
       2.845011             0.00672668746            0.000530292067           
       2.847651             0.00733799905            0.000554544476           
       2.850292             0.00674753462             0.00053698427           
       2.852932             0.00718030884            0.000566009388           
       2.855573             0.00729530262            0.000553424124           
       2.858213             0.00690331642            0.000565333575           
       2.860853             0.00712871621            0.000534406547           
       2.863494             0.00720871641            0.000556399409           
       2.866134              0.0072224165             0.00057885749           
       2.868774             0.00652769336             0.00054084549           
       2.871415             0.00660057854             0.00055232788           
       2.874055             0.00675534583            0.000534110552           
       2.876696             0.00606157256            0.000519626166           
       2.879336             0.00737627939            0.000552468404           
       2.881976             0.00629169485            0.000526275069           
       2.884617             0.00742375733            0.000563268259           
       2.887257             0.00876462767            0.000615185376           
       2.889897             0.00670246544            0.000526896228           
       2.892538             0.00726619267            0.000601000842           
       2.895178             0.00661909218            0.000518223338           
       2.897819             0.00589776691            0.000499002145           
       2.900459             0.00636537522            0.000508322062           
       2.903099             0.00687140614            0.000522734736           
       2.905740             0.00704364835            0.000542938515           
       2.908380             0.00698354863            0.000546759915           
       2.911021              0.0074755928            0.000574891049           
       2.913661              0.0070286288             0.00055727287           
       2.916301             0.00681377522            0.000549212561           
       2.918942             0.00766182619            0.000557068816           
       2.921582             0.00633490731            0.000529985657           
       2.924222             0.00703060851            0.000540913739           
       2.926863             0.00713459634            0.000567575525           
       2.929503             0.00729647599             0.00058077855           
       2.932144             0.00604559072            0.000507477657           
       2.934784             0.00741523487            0.000552814971           
       2.937424             0.00702729563            0.000543685231           
       2.940065             0.00597102934             0.00047806108           
       2.942705              0.0067973893            0.000509430162           
       2.945346             0.00732022516            0.000561041215           
       2.947986             0.00612290721            0.000523195725           
       2.950626             0.00694535319            0.000554090077           
       2.953267             0.00671919348            0.000536188425           
       2.955907             0.00721751503            0.000576478723           
       2.958547             0.00751057245            0.000555164325           
       2.961188             0.00692864317            0.000556300796           
       2.963828             0.00713605227            0.000552249754           
       2.966469             0.00596475767             0.00049530236           
       2.969109             0.00604231026            0.000505898087           
       2.971749             0.00727953108            0.000551817495           
       2.974390             0.00699488987            0.000531554312           
       2.977030             0.00684697904            0.000537657303           
       2.979670             0.00849061396            0.000582372937           
       2.982311             0.00848634351            0.000603448433           
       2.984951             0.00733752951            0.000533673309           
       2.987592             0.00731412233            0.000543493376           
       2.990232             0.00695039125            0.000550993674           
       2.992872             0.00851323279            0.000574399546           
       2.995513             0.00897724375            0.000577063143           
       2.998153              0.0122321262            0.000684918482           
       3.000794              0.0118429777            0.000652775811           
       3.003434              0.0103171837            0.000610196085           
       3.006074              0.0388171884             0.00116699978           
       3.008715                0.11247503             0.00191758757           
       3.011355               0.200415024             0.00246839595           
       3.013995                0.10685544             0.00180729068           
       3.016636              0.0647933932             0.00137810667           
       3.019276               0.128534029             0.00190796788           
       3.021917               0.471364172             0.00351326958           
       3.024557                1.49295574             0.00614733152           
       3.027197                1.17898292             0.00532596239           
       3.029838                0.53393427             0.00363500686           
       3.032478               0.266463252             0.00257052218           
       3.035118               0.071848239             0.00135269082           
       3.037759              0.0859239838             0.00147736221           
       3.040399               0.116286178             0.00177285652           
       3.043040               0.485668243             0.00366750181           
       3.045680               0.413179213             0.00318268657           
       3.048320              0.0990387822             0.00159211507           
       3.050961               0.106905295             0.00168328304           
       3.053601              0.0952122117             0.00152997674           
       3.056242              0.0723974984             0.00141847059           
       3.058882              0.0664869873             0.00145816411           
       3.061522              0.0517253928              0.0012618617           
       3.064163              0.0635315303             0.00138086424           
       3.066803               0.129904448             0.00207877694           
       3.069443               0.112759957             0.00202633555           
       3.072084              0.0371139912             0.00113199022           
       3.074724              0.0442139731             0.00137980589           
       3.077365              0.0665801352             0.00175276682           
       3.080005              0.0113720543            0.000728492773           
       3.082645              0.0143286798            0.000859042382           
       3.085286              0.0132584953            0.000832859242           
       3.087926              0.0114369897            0.000767573925           
       3.090566              0.0107716513            0.000729870862           
       3.093207              0.0110786121            0.000770252004           
       3.095847             0.00975341838            0.000692713667           
       3.098488             0.00817157737            0.000703060654           
       3.101128             0.00960279067            0.000767048133           
       3.103768             0.00931964056            0.000741438292           
       3.106409             0.00774601929            0.000719392863           
       3.109049              0.0075527428            0.000681698391           
       3.111690             0.00872717863            0.000720205851           
       3.114330             0.00798585383            0.000703594386           
       3.116970              0.0078060147            0.000700967322           
       3.119611              0.0113121494            0.000898202811           
       3.122251              0.0183726521             0.00119738384           
       3.124891              0.0372234351             0.00172021328           
       3.127532              0.0242519249             0.00135836123           
       3.130172              0.0147293171             0.00107689589           
       3.132813             0.00926072989            0.000840631249           
       3.135453             0.00867481756            0.000806902227           
       3.138093             0.00720431062            0.000796764639           
       3.140734              0.0069102555            0.000719918786           
       3.143374             0.00764625861            0.000800864936           
       3.146014              0.0081649914            0.000890933081           
       3.148655             0.00552685273             0.00068139481           
       3.151295             0.00846776604            0.000898796686           
       3.153936             0.00498133043            0.000665906541           
       3.156576             0.00589600806             0.00071461447           
       3.159216             0.00646610029            0.000752109075           
       3.161857             0.00632363111            0.000740750213           
       3.164497              0.0088003152            0.000918166129           
       3.167138             0.00920428747            0.000970219855           
       3.169778             0.00700289532            0.000832323356           
       3.172418             0.00696877524            0.000821847797           
       3.175059             0.00661468542            0.000709851072           
       3.177699             0.00632100189            0.000734812872           
       3.180339              0.0055800447             0.00073971322           
       3.182980             0.00628423096            0.000811612015           
       3.185620             0.00619948844            0.000820965788           
       3.188261             0.00721755331            0.000901620835           
       3.190901             0.00456520067            0.000659492218           
       3.193541             0.00630339374            0.000814272946           
       3.196182             0.00617047709            0.000839594652           
       3.198822              0.0053679119            0.000783354823           
       3.201463             0.00496525151            0.000740421413           
       3.204103             0.00620048109            0.000822376454           
       3.206743             0.00842236261            0.000958372132           
       3.209384             0.00585462964            0.000863291318           
       3.212024             0.00575657769             0.00079809002           
       3.214664             0.00572633266            0.000905154812           
       3.217305             0.00592416241            0.000875148462           
       3.219945             0.00450366801            0.000785372587           
       3.222586             0.00707562261            0.000937631725           
       3.225226             0.00458605623            0.000837405832           
       3.227866             0.00637980608            0.000902737438           
       3.230507             0.00836828151             0.00107174365           
       3.233147             0.00558930784            0.000882967208           
       3.235787             0.00523006849            0.000874085816           
       3.238428              0.0083230022              0.0011899063           
       3.241068             0.00579672037            0.000928535744           
       3.243709             0.00650613373             0.00101633308           
       3.246349             0.00580487574            0.000875129102           
       3.248989             0.00626840533             0.00107379703           
       3.251630             0.00511698258            0.000934253252           
       3.254270             0.00543393303            0.000860439942           
       3.256911             0.00436533883            0.000841475207           
       3.259551             0.00620339503             0.00107993366           
       3.262191             0.00547955447              0.0010367454           
       3.264832             0.00620148079             0.00115239461           
       3.267472              0.0069623257              0.0011454689           
       3.270112              0.0052420867             0.00109842547           
       3.272753             0.00538465148             0.00101899506           
       3.275393             0.00482463685            0.000984178948           
       3.278034             0.00582021425             0.00108157261           
       3.280674             0.00638349268             0.00122913813           
       3.283314             0.00643925562             0.00110407596           
       3.285955              0.0068877599              0.0011781685           
       3.288595             0.00625591637             0.00124919004           
       3.291235             0.00310705401              0.0009049966           
       3.293876             0.00542354746             0.00121285988           
       3.296516             0.00450424237             0.00106111184           
       3.299157             0.00922483657             0.00149947103           
       3.301797             0.00696783793             0.00148652911           
       3.304437             0.00595174332              0.0011902971           
       3.307078             0.00516996263             0.00122204097           
       3.309718             0.00400294121             0.00110990797           
       3.312359             0.00524660089             0.00127098239           
       3.314999             0.00655619721             0.00139887319           
       3.317639             0.00520929063             0.00119253412           
       3.320280             0.00709212568             0.00147940574           
       3.322920             0.00634089699             0.00142240478           
       3.325560             0.00347996027              0.0010544596           
       3.328201              0.0059634497             0.00124317831           
       3.330841             0.00458816779             0.00132714134           
       3.333482             0.00617002308             0.00145471604           
       3.336122             0.00651332048             0.00149532518           
       3.338762             0.00914388184             0.00204663286           
       3.341403             0.00583567026             0.00156231603           
       3.344043             0.00617101231             0.00154244705           
       3.346683             0.00320132712              0.0011341961           
       3.349324             0.00610830411             0.00176147656           
       3.351964             0.00279612699              0.0012602597           
       3.354605             0.00597918103             0.00210764113           
       3.357245             0.00297164147             0.00134039184           
       3.359885             0.00544420341             0.00145206587           
       3.362526             0.00173416003             0.00102485391           
       3.365166             0.00215233196              0.0010768937           
       3.367807             0.00441260966             0.00197336294           
       3.370447             0.00608410524             0.00192212309           
       3.373087             0.00482347774             0.00183016494           
       3.375728             0.00613161918             0.00232882529           
       3.378368             0.00183373018             0.00189010938           
       3.381008              0.0043286772             0.00216508503           
       3.383649             0.00350092651             0.00156197225           
       3.386289             0.00487323818              0.0021810779           
       3.388930             0.00237748766             0.00240971015           
       3.391570             0.00358437421             0.00209302701           
       3.394210              0.0059036969             0.00339938344           
       3.396851             0.00244298265             0.00244608822           
       3.399491             0.00946690589             0.00481657188           
       3.402131             0.00964236456             0.00687736823           
       3.404772           -2.62184483e-05                         0           
       3.407412                       nan                       nan           
       3.410053             0.00918416842              0.0095061438           
       3.412693                       nan                       nan           
       3.415333           -2.63332509e-05                         0           
