################################################################################
# EDF_DataBlockID                     0.Image.Psd
# EDF_BinarySize                      4366944
# EDF_HeaderSize                      2560
# ByteOrder                           LowByteFirst
# DataType                            FloatValue
# Dim_1                               1028
# Dim_2                               1062
# Image                               0
# HeaderID                            EH:000000:000000:000000
# Size                                4366944
# Center_1                            607.5200
# Center_2                            651.5500
# Comment                             Xenocs_Cell_Window - 20251028_20perc_iodine_1.23mg
# DDummy                              0.6
# Date                                2025-11-01T07:08:50
# Delta                               0
# Dummy                               -1.5
# ExposureTime                        360
# Gamma                               0
# Intensity1                          8.62956e-10
# PSize_1                             7.5e-05
# PSize_2                             7.5e-05
# Pressure                            0.0327158
# SampleDistance                      0.450002
# SampleEnvKind                       large
# SampleEnvPN                         ElectroChemical cell
# SampleEnvSN                         1141
# Thickness                           0
# Wavelength                          1.541891e-10
# Wavelength                          1.54189e-10
# aux                                 0
# aux_dial                            0.002375
# beamx                               588.434
# beamx_dial                          588.434
# beamz                               657.808
# beamz_dial                          657.808
# det0x                               0
# det0x_dial                          6.36945
# det0xvd                             0
# det0xvd_dial                        0
# det0y                               450.002
# det0y_dial                          481.635
# det0z                               0
# det0z_dial                          1.23302
# det0zvd                             0
# det0zvd_dial                        0
# mag                                 1.818
# mag_dial                            1.818
# om                                  0.2499
# om_dial                             -0.610199
# phi                                 -0.0120535
# phi_dial                            0
# ry                                  0.599993
# ry_dial                             0.599993
# s1bot                               0.8
# s1bot_dial                          -1.66094
# s1hl                                0.8
# s1hl_dial                           -0.608437
# s1hr                                0.8
# s1hr_dial                           0.970938
# s1top                               0.8
# s1top_dial                          -0.461562
# s2bot                               0.45
# s2bot_dial                          1.36109
# s2hl                                0.45
# s2hl_dial                           -0.83375
# s2hr                                0.45
# s2hr_dial                           -0.118594
# s2top                               0.45
# s2top_dial                          1.44734
# w2theta                             32
# w2theta_dial                        32
# waxsch                              19.2605
# waxsch_dial                         -32.7355
# waxsh                               137.085
# waxsh_dial                          -43.5338
# waxsth                              26.0607
# waxsth_dial                         -19.4086
# waxsz                               67.0407
# waxsz_dial                          -23.7954
# wind                                65.9854
# wind_dial                           66.0041
# wpsi                                124
# wpsi_dial                           124
# wstod                               115
# wstod_dial                          115
# x                                   0
# x_dial                              1.00969
# z                                   0
# z_dial                              13.3172
# CountCutoff                         15302352
# DetectorModel                       Dectris EIGER2 Si 1M, S/N E-02-0362
# ThresholdSetting                    4023.88989258
# Saturation                          0
# FlatField                           Corrected
# BackgroundReductionExtra            0.02
# BackgroundCorrectionConstant        0.0026712
# Detector                            0
# Monitor                             0
# Pil_Roi0                            0
# SumForIntensity1                    3.10664e+08
# TransmittedFlux                     862956
# det                                 0
# mon                                 0
# pilai0                              3.10664e+08
# pilai1                              787709
# pilct0                              5.36902e+08
# pilct1                              787709
# pilroi0                             0
# pilroi1                             0
# sec                                 1
# title                               20251028_20perc_iodine_1.23mg_0_00807.edf
# usaxs0                              0
# Operation                           Azimuthal average I(q)
# Error_model                         ErrorModel.poisson
# Geometrical_correction              True
# Transmission_correction             True
# Thickness_correction                False
# Binning mode                        Uniform
# Binning factor                      1.0
# Psi                                 0.0
# Omega                               0.2499
# MaskInvalidPixels                   True
# DetectorEdge                        3
# MaskFiles                           ['20251028_20perc_iodine_1.23mg_0_00012_mask.edf']
################################################################################
    q(A⁻¹)                Intensity(a.u.)            Sigma_I(a.u.)            
       0.000340                371604.404                119.808439           
       0.001019                 359239.05                72.1363893           
       0.001698                349729.627                50.3284876           
       0.002377                330871.172                43.7846797           
       0.003056                307976.971                 35.701617           
       0.003735                 253555.38                28.5688682           
       0.004415                204708.793                 25.669947           
       0.005094                152569.239                19.1920324           
       0.005773                100490.302                14.4203669           
       0.006452                58366.6007                10.5299352           
       0.007131                32150.1014                7.57082294           
       0.007810                 16188.024                5.33130756           
       0.008490                8135.73594                3.35017722           
       0.009169                3941.45279                2.30456087           
       0.009848                1210.59617                1.23485293           
       0.010527                468.249297               0.767987971           
       0.011206                117.063808                0.36648878           
       0.011885                54.1534014               0.231595596           
       0.012564                25.0319705               0.161657819           
       0.013244                16.7290581               0.123550616           
       0.013923                12.2564846               0.107458752           
       0.014602                9.32270752              0.0869190132           
       0.015281                7.32853641               0.078447888           
       0.015960                6.15741553              0.0713917111           
       0.016639                4.97306315              0.0605864028           
       0.017319                4.13126926              0.0543622856           
       0.017998                 3.4531766              0.0475484885           
       0.018677                2.90687065              0.0451840674           
       0.019356                2.40115038              0.0405771233           
       0.020035                2.08581962              0.0354816009           
       0.020714                1.87831278              0.0340267934           
       0.021394                1.55488036              0.0292924306           
       0.022073                1.33795018              0.0282706798           
       0.022752                1.20882823              0.0257058579           
       0.023431                1.08349947              0.0236233483           
       0.024110               0.990093148               0.023543544           
       0.024789               0.889337036              0.0207227409           
       0.025469               0.816793503              0.0204654932           
       0.026148                0.72498228                 0.0181161           
       0.026827               0.672474656              0.0177269425           
       0.027506               0.589498663              0.0168366357           
       0.028185               0.576083348              0.0158724101           
       0.028864               0.491863379              0.0145840709           
       0.029544                0.48391647              0.0140277329           
       0.030223               0.452687738              0.0137621093           
       0.030902               0.396652984               0.013000116           
       0.031581               0.362988455              0.0118219821           
       0.032260               0.343543861              0.0116969489           
       0.032939               0.297189196              0.0104899448           
       0.033619               0.288007686              0.0104784006           
       0.034298               0.282720263              0.0101031455           
       0.034977               0.248934051              0.0092939538           
       0.035656               0.235184917             0.00927273039           
       0.036335               0.227224326             0.00883987111           
       0.037014               0.203542698             0.00839150389           
       0.037693               0.182787812             0.00764988277           
       0.038373               0.190522503             0.00788670205           
       0.039052               0.170083716              0.0074833754           
       0.039731               0.167009336             0.00724262036           
       0.040410               0.144230261              0.0066854708           
       0.041089               0.138339952             0.00644496934           
       0.041768               0.141423342             0.00655044289           
       0.042448               0.145558412             0.00659395086           
       0.043127               0.128151229             0.00604099165           
       0.043806                0.11152694              0.0056775756           
       0.044485               0.119168212             0.00574828733           
       0.045164               0.122158401             0.00593466513           
       0.045843               0.118777511             0.00561274337           
       0.046523                 0.1170059             0.00558996454           
       0.047202              0.0990898237             0.00518016897           
       0.047881              0.0957877423             0.00499490807           
       0.048560              0.0978597509             0.00509465925           
       0.049239              0.0877643895              0.0046326034           
       0.049918              0.0889386198             0.00475465736           
       0.050598              0.0868060893             0.00462683448           
       0.051277              0.0858044736             0.00458546669           
       0.051956              0.0830033945             0.00448167843           
       0.052635              0.0699098249              0.0040257429           
       0.053314              0.0738543049             0.00425873124           
       0.053993              0.0672797763             0.00395327231           
       0.054673              0.0778682224             0.00415825462           
       0.055352               0.073556134             0.00410084307           
       0.056031              0.0676491798             0.00385010526           
       0.056710                0.06985393             0.00400821319           
       0.057389              0.0645867493             0.00371658648           
       0.058068              0.0667343895             0.00381681677           
       0.058748              0.0653356156             0.00382371391           
       0.059427              0.0648976182             0.00374635409           
       0.060106              0.0654073037             0.00379663352           
       0.060785              0.0600565032             0.00352902041           
       0.061464              0.0579521777              0.0035502012           
       0.062143              0.0557641178             0.00344715879           
       0.062822              0.0555831857             0.00340117598           
       0.063502              0.0534838516             0.00333036713           
       0.064181              0.0539911238             0.00331078912           
       0.064860              0.0514399057             0.00328084189           
       0.065539              0.0539954192             0.00332848072           
       0.066218              0.0491173682             0.00310659835           
       0.066897              0.0465732361              0.0030484249           
       0.067577              0.0491589751             0.00316199477           
       0.068256              0.0480785314              0.0032038683           
       0.068935              0.0455180511             0.00306698178           
       0.069614              0.0446820586             0.00306893644           
       0.070293              0.0451700652              0.0031141031           
       0.070972              0.0459602547             0.00311822395           
       0.071652              0.0410676743              0.0029529902           
       0.072331              0.0407801183             0.00289018895           
       0.073010               0.039687245             0.00291634568           
       0.073689              0.0441685149             0.00305968581           
       0.074368              0.0374343935               0.002811676           
       0.075047              0.0424235139             0.00296101042           
       0.075727              0.0408357861             0.00288713021           
       0.076406              0.0372368582             0.00281198044           
       0.077085              0.0374339209             0.00276672035           
       0.077764              0.0387909882             0.00280655511           
       0.078443               0.031945823              0.0025626883           
       0.079122              0.0329079175             0.00257600475           
       0.079802              0.0348477451             0.00267895626           
       0.080481              0.0382283066             0.00271124336           
       0.081160              0.0377194685             0.00274840226           
       0.081839              0.0390073659             0.00275018361           
       0.082518              0.0321240698             0.00249786673           
       0.083197              0.0308853379             0.00241117748           
       0.083876              0.0298728705             0.00233192391           
       0.084556              0.0306146824             0.00242635358           
       0.085235              0.0336761458             0.00249561471           
       0.085914               0.031137899             0.00242303384           
       0.086593              0.0337395641             0.00250599604           
       0.087272               0.034534116              0.0024994943           
       0.087951              0.0316288289             0.00244607991           
       0.088631              0.0300117256             0.00230157158           
       0.089310              0.0345958274              0.0025235137           
       0.089989              0.0303754718              0.0023369431           
       0.090668              0.0307536394             0.00237740103           
       0.091347              0.0308821634             0.00239570209           
       0.092026               0.025113739             0.00206499522           
       0.092706              0.0317477323             0.00240604649           
       0.093385              0.0251068686             0.00210679868           
       0.094064              0.0295233013             0.00231118442           
       0.094743              0.0274080458             0.00219291586           
       0.095422              0.0317241304             0.00233296238           
       0.096101              0.0307791292             0.00234527944           
       0.096781              0.0293531353             0.00225751345           
       0.097460              0.0327032544             0.00231785917           
       0.098139              0.0259002963             0.00204686551           
       0.098818              0.0272360287             0.00207313393           
       0.099497              0.0272121327             0.00207647887           
       0.100176              0.0246891983             0.00192596891           
       0.100856              0.0276759778             0.00203783436           
       0.101535              0.0251526568             0.00193896924           
       0.102214              0.0241798278             0.00190111452           
       0.102893              0.0244603033             0.00189032261           
       0.103572              0.0236086046             0.00182968584           
       0.104251               0.029172434             0.00204140479           
       0.104931              0.0237480311             0.00182509155           
       0.105610              0.0259221677             0.00191493981           
       0.106289              0.0212392007             0.00170451325           
       0.106968              0.0283888299             0.00197647818           
       0.107647              0.0247128702             0.00184518728           
       0.108326              0.0218864925             0.00171323837           
       0.109005              0.0234759288             0.00176319364           
       0.109685              0.0266792805             0.00185856038           
       0.110364              0.0223121118             0.00171895635           
       0.111043              0.0269879669             0.00188301691           
       0.111722              0.0227290137             0.00170694076           
       0.112401              0.0252630044             0.00180458224           
       0.113080              0.0229369338             0.00169979415           
       0.113760              0.0251261804             0.00180878049           
       0.114439              0.0241905308             0.00174945403           
       0.115118              0.0261999339             0.00180693628           
       0.115797              0.0222187703             0.00167941324           
       0.116476              0.0211092127             0.00161244282           
       0.117155              0.0195786716             0.00156541185           
       0.117835              0.0235735299              0.0016835603           
       0.118514              0.0208448031             0.00160319841           
       0.119193              0.0241502848             0.00172564968           
       0.119872              0.0202065052              0.0015587319           
       0.120551              0.0229097462             0.00164866876           
       0.121230              0.0214069072             0.00157763906           
       0.121910              0.0228759821             0.00164663653           
       0.122589              0.0217414886             0.00160694052           
       0.123268              0.0212259958             0.00155701535           
       0.123947              0.0205949772             0.00154361579           
       0.124626              0.0207734403             0.00153133423           
       0.125305               0.020654841             0.00153444987           
       0.125985              0.0218785604             0.00156699679           
       0.126664              0.0215776547             0.00154136043           
       0.127343              0.0217247866             0.00156453373           
       0.128022              0.0212027911             0.00153376849           
       0.128701                0.02094762             0.00151656978           
       0.129380              0.0201101482             0.00146733409           
       0.130059              0.0203154329             0.00147822937           
       0.130739              0.0207139374              0.0015031541           
       0.131418              0.0208300226             0.00150313998           
       0.132097              0.0211037458             0.00149358025           
       0.132776              0.0187599802             0.00140184448           
       0.133455              0.0178715334             0.00137887729           
       0.134134              0.0184614019             0.00139698519           
       0.134814              0.0209543836             0.00147298677           
       0.135493              0.0184400527             0.00138738343           
       0.136172              0.0195081046             0.00141622415           
       0.136851              0.0184989378              0.0013871274           
       0.137530              0.0209488055              0.0014410529           
       0.138209              0.0200474568             0.00142626123           
       0.138889              0.0171837501             0.00132629026           
       0.139568              0.0204176115             0.00144508814           
       0.140247              0.0185600282             0.00137597857           
       0.140926              0.0183155577             0.00132780316           
       0.141605              0.0191353086             0.00139167269           
       0.142284              0.0208242395             0.00142773331           
       0.142964              0.0192065959             0.00137640308           
       0.143643              0.0185508533             0.00135099396           
       0.144322              0.0202122136              0.0013806838           
       0.145001              0.0181351127              0.0013346628           
       0.145680              0.0181962873             0.00130528271           
       0.146359              0.0192685101             0.00134810276           
       0.147039              0.0165459157             0.00125952035           
       0.147718              0.0200786039             0.00136458427           
       0.148397              0.0192808812             0.00135798133           
       0.149076              0.0172366509             0.00124414462           
       0.149755              0.0192169884             0.00133395634           
       0.150434              0.0147725089             0.00117004698           
       0.151114              0.0190121665             0.00132002812           
       0.151793              0.0187311872             0.00131024966           
       0.152472               0.019134675             0.00130089413           
       0.153151              0.0195912597              0.0013290494           
       0.153830              0.0200303265             0.00133406868           
       0.154509              0.0182791586             0.00126910184           
       0.155188              0.0173542898             0.00123612174           
       0.155868              0.0155630596             0.00116226132           
       0.156547              0.0175453596             0.00124199033           
       0.157226              0.0186900469               0.001250556           
       0.157905              0.0152478611             0.00113902975           
       0.158584                0.01637702             0.00117830665           
       0.159263              0.0194917114             0.00129021152           
       0.159943               0.017895792              0.0012371865           
       0.160622              0.0172815869             0.00119230765           
       0.161301              0.0161372331             0.00116756577           
       0.161980              0.0197034431             0.00126820981           
       0.162659              0.0177887525             0.00121837213           
       0.163338              0.0178198822             0.00120949858           
       0.164018              0.0170709855             0.00117759735           
       0.164697              0.0172735627             0.00119977407           
       0.165376              0.0172202665             0.00117174863           
       0.166055              0.0161982761             0.00114394119           
       0.166734              0.0172863023             0.00117644206           
       0.167413              0.0168151886             0.00116111256           
       0.168093              0.0195096695             0.00126251699           
       0.168772                0.01800452             0.00117736935           
       0.169451              0.0172577701             0.00117390233           
       0.170130               0.017239592              0.0011578808           
       0.170809              0.0171231726             0.00116773597           
       0.171488              0.0173424336             0.00116447544           
       0.172168               0.018976078             0.00120638581           
       0.172847              0.0168360835             0.00115125429           
       0.173526              0.0177900497              0.0011608455           
       0.174205              0.0179486388             0.00117137826           
       0.174884              0.0172307076              0.0011417311           
       0.175563              0.0176069814              0.0011590577           
       0.176243              0.0171923067             0.00115678956           
       0.176922              0.0139353897             0.00101432954           
       0.177601              0.0163683634              0.0011113962           
       0.178280              0.0171486921             0.00112488113           
       0.178959              0.0168396516             0.00112366506           
       0.179638              0.0168834818             0.00112188643           
       0.180317              0.0170750214             0.00112001314           
       0.180997              0.0180995318              0.0011593833           
       0.181676              0.0168463382             0.00110658277           
       0.182355              0.0159502994             0.00108321858           
       0.183034              0.0168357762             0.00109501894           
       0.183713              0.0169979946             0.00111368147           
       0.184392               0.019446874             0.00119084615           
       0.185072              0.0151413433             0.00103880744           
       0.185751                0.01552596             0.00105484486           
       0.186430              0.0159476615             0.00106158638           
       0.187109              0.0155643622             0.00106043096           
       0.187788              0.0171500516             0.00111039482           
       0.188467              0.0162347775             0.00106757339           
       0.189147              0.0170256642             0.00110433935           
       0.189826              0.0164767562             0.00106718008           
       0.190505              0.0177495003             0.00112586364           
       0.191184              0.0168826186             0.00108220096           
       0.191863              0.0156322518             0.00104354874           
       0.192542               0.018063089             0.00113233333           
       0.193222              0.0161049022             0.00104523513           
       0.193901              0.0154751013             0.00103832698           
       0.194580              0.0168369221             0.00106410532           
       0.195259              0.0143970747            0.000995290285           
       0.195938              0.0175761042             0.00110232455           
       0.196617              0.0176295688             0.00108858954           
       0.197297              0.0159419628             0.00103940279           
       0.197976              0.0149978717            0.000992670461           
       0.198655              0.0157897156             0.00102966377           
       0.199334              0.0152622408             0.00100339176           
       0.200013              0.0157577884             0.00101898582           
       0.200692              0.0164148576             0.00104626939           
       0.201371              0.0146097994            0.000975951496           
       0.202051              0.0148537343            0.000987125529           
       0.202730               0.013874733            0.000944511797           
       0.203409              0.0149319172            0.000986412248           
       0.204088              0.0167168604             0.00104255121           
       0.204767              0.0164050526             0.00102735429           
       0.205446              0.0160859708             0.00101930203           
       0.206126              0.0159642737             0.00100164308           
       0.206805              0.0167543362             0.00104494064           
       0.207484              0.0130061477            0.000904115183           
       0.208163              0.0160283417              0.0010097076           
       0.208842              0.0153791909             0.00098636945           
       0.209521               0.015740558            0.000989597487           
       0.210201              0.0162826159             0.00101772433           
       0.210880              0.0164369294             0.00100247029           
       0.211559              0.0161757704             0.00100917787           
       0.212238              0.0155115088            0.000983210928           
       0.212917              0.0165025038             0.00101036432           
       0.213596              0.0160685744             0.00100288728           
       0.214276              0.0162508965            0.000987548984           
       0.214955              0.0142668022            0.000944760027           
       0.215634              0.0150551745            0.000963556792           
       0.216313              0.0155322857            0.000976650537           
       0.216992              0.0161930437            0.000996958259           
       0.217671              0.0147109806            0.000943804005           
       0.218351              0.0159964921            0.000993802789           
       0.219030              0.0139803132            0.000914400349           
       0.219709              0.0142164851            0.000927843347           
       0.220388              0.0154316292            0.000965441905           
       0.221067              0.0151609767            0.000957696769           
       0.221746               0.015189443            0.000957613513           
       0.222426              0.0149733765             0.00093656892           
       0.223105              0.0151901533            0.000956175511           
       0.223784              0.0146084447            0.000928387271           
       0.224463              0.0159938224            0.000979147669           
       0.225142              0.0166985326            0.000984656263           
       0.225821              0.0143833564            0.000917532498           
       0.226500              0.0140254434            0.000911805677           
       0.227180              0.0153808708            0.000940137813           
       0.227859              0.0145724567            0.000919202934           
       0.228538               0.015008169            0.000923476546           
       0.229217              0.0138200208            0.000893183088           
       0.229896              0.0147911625            0.000923587755           
       0.230575              0.0153125564            0.000924745319           
       0.231255              0.0145761285            0.000915742434           
       0.231934              0.0155100441            0.000938169899           
       0.232613               0.014381703            0.000906733119           
       0.233292              0.0154286951             0.00093008455           
       0.233971              0.0145147137            0.000901694344           
       0.234650              0.0145979874            0.000914913718           
       0.235330              0.0145584391            0.000905695059           
       0.236009              0.0146190889            0.000905623335           
       0.236688              0.0156220256             0.00093282273           
       0.237367               0.014270582            0.000892856384           
       0.238046              0.0131053891            0.000861655207           
       0.238725              0.0153347773            0.000917687577           
       0.239405              0.0155208085            0.000928962151           
       0.240084              0.0151567034            0.000912155677           
       0.240763              0.0145049837            0.000900873736           
       0.241442              0.0133243605            0.000851266534           
       0.242121              0.0142475772            0.000881925469           
       0.242800              0.0116924381            0.000802721881           
       0.243480              0.0138053982            0.000868157984           
       0.244159              0.0143165107            0.000884510465           
       0.244838              0.0148925729            0.000887286025           
       0.245517               0.014586154            0.000890741759           
       0.246196              0.0136186461            0.000861108236           
       0.246875              0.0131664219            0.000834887754           
       0.247554              0.0142625196            0.000877776372           
       0.248234              0.0128356864            0.000820086402           
       0.248913              0.0147388489            0.000888640814           
       0.249592              0.0143847416             0.00086955876           
       0.250271              0.0144239152            0.000868213595           
       0.250950               0.013590279            0.000847912545           
       0.251629              0.0134612558            0.000836705545           
       0.252309               0.013786141            0.000848460743           
       0.252988              0.0144650397            0.000854130272           
       0.253667              0.0141827815            0.000855637524           
       0.254346              0.0119640062            0.000785702347           
       0.255025              0.0134452045            0.000831095736           
       0.255704              0.0138289312            0.000839011631           
       0.256384              0.0138795993             0.00083763936           
       0.257063              0.0132435862            0.000822887546           
       0.257742              0.0123863415             0.00079029565           
       0.258421              0.0134009117            0.000820443119           
       0.259100              0.0132848328            0.000818306563           
       0.259779              0.0143275282             0.00084909311           
       0.260459              0.0130628817             0.00081234629           
       0.261138              0.0122052131            0.000769880339           
       0.261817              0.0130722651            0.000812840365           
       0.262496              0.0130008276            0.000802666497           
       0.263175              0.0124013266            0.000785625404           
       0.263854              0.0114178387            0.000750327731           
       0.264534              0.0129532075            0.000792360033           
       0.265213               0.013122257            0.000810081616           
       0.265892              0.0133259866            0.000805887027           
       0.266571              0.0125372084            0.000779895033           
       0.267250              0.0129227274            0.000793128962           
       0.267929              0.0119233543            0.000761062627           
       0.268609               0.011997774             0.00076761405           
       0.269288              0.0136752584             0.00080590742           
       0.269967              0.0127866873            0.000787681395           
       0.270646              0.0125570525            0.000777202129           
       0.271325              0.0124696859            0.000775787229           
       0.272004              0.0114547282            0.000736133085           
       0.272683              0.0112029282            0.000728896739           
       0.273363              0.0113940177            0.000739775183           
       0.274042              0.0117385502            0.000746446415           
       0.274721              0.0126117705            0.000773253469           
       0.275400              0.0118835102            0.000745626237           
       0.276079              0.0125300158            0.000769987485           
       0.276758              0.0110743148             0.00073301459           
       0.277438              0.0107744592            0.000714906633           
       0.278117              0.0125851652            0.000786696416           
       0.278796              0.0113907035            0.000740836253           
       0.279475              0.0112695533            0.000749058955           
       0.280154              0.0108442989            0.000724220829           
       0.280833              0.0121422513            0.000770997471           
       0.281513              0.0118405898            0.000773304643           
       0.282192              0.0116570305            0.000754196959           
       0.282871               0.011015408            0.000738270152           
       0.283550              0.0111504252            0.000746761436           
       0.284229              0.0112032254            0.000759521315           
       0.284908              0.0117516299            0.000786093682           
       0.285588              0.0111814063            0.000757805645           
       0.286267             0.00941195733            0.000706396155           
       0.286946              0.0114556991            0.000774257966           
       0.287625              0.0093001175            0.000709498465           
       0.288304               0.010671986             0.00074985582           
       0.288983              0.0102626984            0.000744648199           
       0.289663              0.0110365089            0.000776731054           
       0.290342              0.0103180628            0.000747026322           
       0.291021              0.0114745339            0.000792023052           
       0.291700              0.0101641139            0.000735688953           
       0.292379              0.0101559515            0.000752231096           
       0.293058             0.00944875037            0.000722827364           
       0.293738             0.00996161892             0.00073595288           
       0.294417              0.0102009248            0.000753396511           
       0.295096              0.0108393811            0.000768077961           
       0.295775              0.0105071937            0.000767765897           
       0.296454              0.0120734329            0.000812356844           
       0.297133               0.010649771            0.000766569243           
       0.297812              0.0107846598            0.000775277606           
       0.298492              0.0098404055            0.000741991278           
       0.299171              0.0109258083            0.000780362999           
       0.299850              0.0100282906            0.000742518952           
       0.300529              0.0115980309            0.000807515691           
       0.301208              0.0104600494            0.000768743086           
       0.301887              0.0104503112            0.000767472068           
       0.302567              0.0102837993            0.000757520164           
       0.303246               0.010232927            0.000760577632           
       0.303925              0.0095162006            0.000742875691           
       0.304604              0.0100631554            0.000747430909           
       0.305283             0.00905676097            0.000719588508           
       0.305962             0.00982892445            0.000745107902           
       0.306642             0.00966010859            0.000748713789           
       0.307321             0.00946553779            0.000738768667           
       0.308000              0.0087922377             0.00070356946           
       0.308679             0.00924735469            0.000737174914           
       0.309358             0.00946339651            0.000735648688           
       0.310037              0.0091401448            0.000724586172           
       0.310717             0.00906770896            0.000721014914           
       0.311396             0.00718322529            0.000646038114           
       0.312075              0.0083650224            0.000705999967           
       0.312754             0.00979421826            0.000748651391           
       0.313433             0.00847472776            0.000702454803           
       0.314112             0.00946198177            0.000742073394           
       0.314792             0.00899260272            0.000728542011           
       0.315471             0.00813999622            0.000684572995           
       0.316150              0.0089097759            0.000722839568           
       0.316829             0.00851299659            0.000711226977           
       0.317508               0.009386226            0.000738433917           
       0.318187             0.00814103279            0.000696782892           
       0.318866              0.0086112541            0.000706969613           
       0.319546              0.0096579168            0.000759925322           
       0.320225             0.00679338903            0.000637354299           
       0.320904             0.00761562701            0.000664389806           
       0.321583              0.0076019395            0.000678418951           
       0.322262             0.00787948352            0.000680224247           
       0.322941             0.00685612153            0.000642645062           
       0.323621             0.00817937888            0.000697643526           
       0.324300             0.00898723607            0.000731857851           
       0.324979             0.00816184526            0.000698702479           
       0.325658             0.00783678924            0.000685889822           
       0.326337             0.00863937083             0.00072109558           
       0.327016             0.00829757826            0.000702201073           
       0.327696             0.00922115812            0.000748483107           
       0.328375             0.00761328761             0.00067436512           
       0.329054             0.00843083103            0.000713498882           
       0.329733             0.00953102493            0.000761396799           
       0.330412             0.00655498887            0.000626259246           
       0.331091             0.00760505952            0.000686794407           
       0.331771             0.00703282639            0.000643144704           
       0.332450             0.00756156957            0.000679830796           
       0.333129             0.00739093436            0.000670382139           
       0.333808             0.00813923849            0.000704430706           
       0.334487             0.00607070307            0.000611251798           
       0.335166             0.00618852086            0.000608122521           
       0.335846             0.00765934902            0.000688429142           
       0.336525             0.00816510687            0.000703777103           
       0.337204             0.00705400616            0.000655857042           
       0.337883             0.00633035829            0.000622129377           
       0.338562             0.00629413172             0.00062378921           
       0.339241             0.00687519902            0.000653169082           
       0.339921             0.00687587015            0.000642246844           
       0.340600             0.00634754834            0.000628798182           
       0.341279              0.0073615782            0.000669912517           
       0.341958             0.00676609829             0.00065130754           
       0.342637             0.00631222694            0.000620196282           
       0.343316             0.00757420053            0.000681336765           
       0.343995             0.00587468148             0.00060987271           
       0.344675             0.00522647172            0.000564671339           
       0.345354             0.00653315428            0.000635489237           
       0.346033             0.00558060419            0.000585805933           
       0.346712             0.00578024248            0.000599996242           
       0.347391             0.00560024571            0.000594237168           
       0.348070             0.00514075668            0.000561252078           
       0.348750             0.00641866367            0.000636205141           
       0.349429             0.00575419005            0.000594598487           
       0.350108             0.00615324039            0.000622269494           
       0.350787             0.00670830511             0.00063869191           
       0.351466             0.00649127065            0.000639848713           
       0.352145             0.00651188464            0.000641395682           
       0.352825             0.00587311201            0.000606366506           
       0.353504             0.00638526398            0.000632097353           
       0.354183             0.00744645174            0.000674740273           
       0.354862              0.0059594597            0.000617649032           
       0.355541             0.00641489534            0.000632423223           
       0.356220             0.00501196158            0.000560062446           
       0.356900             0.00593107727            0.000615042352           
       0.357579             0.00533425911            0.000576125492           
       0.358258             0.00549283958            0.000592716859           
       0.358937             0.00565263104            0.000589972157           
       0.359616             0.00461217002            0.000540357912           
       0.360295              0.0058882396             0.00061105914           
       0.360975             0.00608393713            0.000618474089           
       0.361654             0.00533583483            0.000582188458           
       0.362333             0.00527516591            0.000575925815           
       0.363012              0.0049010677            0.000562271358           
       0.363691              0.0055722334            0.000587707691           
       0.364370             0.00629226502            0.000632273157           
       0.365050             0.00559393723            0.000592966109           
       0.365729              0.0052430631            0.000579542125           
       0.366408             0.00521328682            0.000579173694           
       0.367087             0.00516765266            0.000567384751           
       0.367766             0.00487522664            0.000562580055           
       0.368445             0.00552868685            0.000588461342           
       0.369124             0.00432343661            0.000524469031           
       0.369804             0.00570226579            0.000601358642           
       0.370483             0.00459761972            0.000542340976           
       0.371162             0.00498252954            0.000567860254           
       0.371841             0.00530405568            0.000575680635           
       0.372520             0.00463063477            0.000548677331           
       0.373199             0.00412036641            0.000511381194           
       0.373879             0.00409634271            0.000515791628           
       0.374558             0.00396244879            0.000499889381           
       0.375237             0.00493276876            0.000558661577           
       0.375916             0.00453002802            0.000545626071           
       0.376595             0.00422996156            0.000516940731           
       0.377274             0.00443954058            0.000538069333           
       0.377954             0.00499325592            0.000561674419           
       0.378633             0.00382763435            0.000497979949           
       0.379312             0.00505020791            0.000571862491           
       0.379991             0.00429906956            0.000524892729           
       0.380670             0.00511488269            0.000582653223           
       0.381349             0.00419630626            0.000520169588           
       0.382029             0.00432713455            0.000535784436           
       0.382708             0.00488634303            0.000556920161           
       0.383387             0.00439230957            0.000539982489           
       0.384066             0.00404627735            0.000513520522           
       0.384745             0.00355857926            0.000483472971           
       0.385424             0.00391623585            0.000508909836           
       0.386104             0.00272323373            0.000419684353           
       0.386783              0.0045384854            0.000553514977           
       0.387462             0.00456251836            0.000541172429           
       0.388141             0.00484739481              0.0005667208           
       0.388820             0.00437801644            0.000534690992           
       0.389499             0.00384099725            0.000503644603           
       0.390178             0.00400504528            0.000516335423           
       0.390858             0.00348697358            0.000477885731           
       0.391537             0.00389182278              0.0005100215           
       0.392216             0.00437150215            0.000533764117           
       0.392895             0.00329264422            0.000464801005           
       0.393574             0.00386337818            0.000502227418           
       0.394253             0.00363241205            0.000489174436           
       0.394933             0.00479560806            0.000568489809           
       0.395612             0.00304956773            0.000440167525           
       0.396291             0.00417868428            0.000525740581           
       0.396970             0.00442030967            0.000535936219           
       0.397649             0.00445600802            0.000539752693           
       0.398328             0.00455152182            0.000543108987           
       0.399008             0.00380103367            0.000495238798           
       0.399687             0.00403700604            0.000512364679           
       0.400366             0.00393921084            0.000504184889           
       0.401045             0.00378762272            0.000493453992           
       0.401724             0.00400520327            0.000508276357           
       0.402403              0.0038136022            0.000499835527           
       0.403083             0.00469278935            0.000546470851           
       0.403762             0.00424582817            0.000522358891           
       0.404441             0.00416783686             0.00052083529           
       0.405120             0.00472534092            0.000552758104           
       0.405799             0.00473653121             0.00055100803           
       0.406478             0.00416169168            0.000516503875           
       0.407158             0.00427851973            0.000522720542           
       0.407837                0.00369474            0.000490039591           
       0.408516             0.00380233094            0.000492798687           
       0.409195             0.00421607589            0.000524804651           
       0.409874             0.00330449974            0.000471082656           
       0.410553             0.00418877623            0.000536085127           
       0.411233             0.00306520604            0.000456208988           
       0.411912             0.00364105846            0.000504264293           
       0.412591             0.00312436018            0.000470207717           
       0.413270             0.00444760502            0.000558346954           
       0.413949             0.00341020256            0.000494252415           
       0.414628             0.00232840405             0.00040766876           
       0.415307             0.00288430426            0.000458778449           
       0.415987             0.00348560334            0.000500181702           
       0.416666             0.00208933401            0.000384921263           
       0.417345             0.00261028176            0.000437425568           
       0.418024              0.0035630314            0.000511071141           
       0.418703             0.00325156661             0.00048732566           
       0.419382             0.00250217643            0.000425400971           
       0.420062             0.00302165776            0.000468788819           
       0.420741             0.00328018461            0.000491029096           
       0.421420             0.00309015402            0.000478401016           
       0.422099              0.0031618753              0.0004839335           
       0.422778             0.00237983276            0.000422116211           
       0.423457             0.00286481578             0.00046596926           
       0.424137             0.00371428682            0.000521928217           
       0.424816             0.00296763904            0.000476279063           
       0.425495             0.00264961872            0.000449610662           
       0.426174             0.00203607005            0.000394269615           
       0.426853             0.00225041691            0.000411985927           
       0.427532             0.00183095221            0.000374753582           
       0.428212             0.00224501247            0.000417709269           
       0.428891             0.00286356048            0.000470683513           
       0.429570             0.00207116632            0.000400571584           
       0.430249             0.00182646693            0.000374212117           
       0.430928             0.00288491847            0.000480588353           
       0.431607             0.00229893595            0.000421641006           
       0.432287              0.0022674404            0.000421809658           
       0.432966             0.00287224073            0.000478919322           
       0.433645             0.00224296441            0.000423658986           
       0.434324             0.00229569482            0.000426026381           
       0.435003             0.00182412968            0.000380406908           
       0.435682             0.00169347263            0.000369536225           
       0.436361             0.00201454025            0.000402507774           
       0.437041             0.00240475135            0.000439178851           
       0.437720             0.00218459682            0.000420612055           
       0.438399             0.00230662552            0.000434455196           
       0.439078             0.00228095833            0.000444559292           
       0.439757             0.00293076836            0.000500815817           
       0.440436             0.00271281347             0.00049269268           
       0.441116             0.00279946429            0.000508683612           
       0.441795             0.00383841095             0.00059636059           
       0.442474             0.00349063307            0.000570288504           
       0.443153             0.00357415476            0.000590533769           
       0.443832             0.00270322537             0.00051443512           
       0.444511             0.00161743993            0.000396134154           
       0.445191             0.00213282288            0.000465953538           
       0.445870             0.00161130135            0.000405009737           
       0.446549             0.00218460643            0.000476561965           
       0.447228             0.00254942523            0.000511909191           
       0.447907             0.00210332075             0.00047054891           
       0.448586             0.00265115514            0.000540997732           
       0.449266             0.00228270299            0.000497381183           
       0.449945             0.00192401551            0.000454772186           
       0.450624             0.00262979604            0.000540123678           
       0.451303              0.0027607012            0.000560577111           
       0.451982             0.00203170312             0.00047792823           
       0.452661             0.00294491421            0.000586118437           
       0.453341             0.00168258077            0.000444586545           
       0.454020             0.00274016486            0.000568221965           
       0.454699             0.00220185178            0.000514010776           
       0.455378             0.00160283435            0.000438788771           
       0.456057             0.00253697884            0.000561856547           
       0.456736              0.0014129902            0.000418003779           
       0.457416             0.00289853902            0.000598704525           
       0.458095            0.000961553874            0.000349824203           
       0.458774             0.00294868075            0.000620695857           
       0.459453             0.00205987582            0.000521399181           
       0.460132             0.00233122719            0.000542700615           
       0.460811             0.00211757755            0.000536532543           
       0.461490             0.00246991298            0.000573558398           
       0.462170             0.00214954126            0.000543418863           
       0.462849             0.00246606682            0.000585830443           
       0.463528             0.00202842742            0.000530079462           
       0.464207            0.000680969078            0.000312878688           
       0.464886             0.00178292329            0.000502323715           
       0.465565            0.000547751819            0.000281484207           
       0.466245            0.000993877455            0.000380341851           
       0.466924             0.00119688846            0.000427242144           
       0.467603             0.00202187026            0.000543516883           
       0.468282              0.0025751441            0.000627936073           
       0.468961            0.000773642217             0.00034644031           
       0.469640             0.00185464669            0.000538540079           
       0.470320             0.00154727604            0.000492233769           
       0.470999            0.000945353277            0.000388384252           
       0.471678              0.0011518985            0.000432838798           
       0.472357             0.00180127227            0.000542774572           
       0.473036             0.00117573719            0.000441283447           
       0.473715             0.00169084695            0.000533333495           
       0.474395             0.00106730446             0.00042958893           
       0.475074             0.00175035429            0.000550154348           
       0.475753            0.000876077768            0.000385859523           
       0.476432            0.000233998544            0.000206678058           
       0.477111             0.00164553921            0.000541449604           
       0.477790             0.00092697524            0.000408556607           
       0.478470            0.000789888324            0.000382126033           
       0.479149             0.00080353774            0.000389399927           
       0.479828             0.00169338463            0.000563958262           
       0.480507             0.00119721289            0.000478015744           
       0.481186            7.95217623e-05            0.000125973968           
       0.481865             0.00182872386            0.000596623444           
       0.482545            0.000670966713            0.000365635502           
       0.483224            0.000264510849            0.000231141042           
       0.483903            0.000519742708            0.000329106977           
       0.484582             0.00117771317            0.000503463834           
       0.485261            7.57867929e-05            0.000124480218           
       0.485940            0.000343986665            0.000275898868           
       0.486619            0.000537742269            0.000341163347           
       0.487299             0.00013205027            0.000171756723           
       0.487978           -0.000316298384                         0           
       0.488657           -8.20016595e-05                         0           
       0.489336           -0.000100098841                         0           
       0.490015           -9.13186964e-05                         0           
       0.490694            0.000174470643            0.000207054883           
       0.491374           -0.000316393992                         0           
       0.492053           -0.000316413261                         0           
       0.492732           -0.000316432395                         0           
       0.493411           -0.000316451778                         0           
       0.494090           -0.000316471288                         0           
       0.494769           -0.000316490421                         0           
       0.495449           -0.000316509824                         0           
       0.496128           -0.000316529286                         0           
       0.496807           -0.000316548535                         0           
       0.497486           -0.000316567961                         0           
       0.498165           -0.000316587667                         0           
       0.498844           -3.30636173e-05                         0           
       0.499524           -0.000316626575                         0           
       0.500203            0.000539701184            0.000392632906           
       0.500882           -0.000316665804                         0           
       0.501561            0.000284795658            0.000291263375           
       0.502240           -0.000316705026                         0           
       0.502919           -6.85494699e-06                         0           
       0.503599           -0.000316744411                         0           
       0.504278           -0.000316764421                         0           
       0.504957            8.74433441e-06            5.27275395e-05           
       0.505636           -0.000316803842                         0           
       0.506315            8.58582787e-06            5.28202381e-05           
       0.506994           -0.000316843427                         0           
       0.507673            0.000364353886            0.000353944127           
       0.508353            1.08479174e-05            5.97057056e-05           
       0.509032           -0.000316902889                         0           
       0.509711           -0.000316922798                         0           
       0.510390            -0.00031694302                         0           
       0.511069           -0.000316963176                         0           
       0.511748            -0.00031698325                         0           
       0.512428           -0.000317003467                         0           
       0.513107            0.000428299035            0.000401708205           
       0.513786            8.13562659e-05            0.000180008694           
       0.514465            5.26797889e-05            0.000140225976           
       0.515144           -0.000317083946                         0           
       0.515823           -0.000317104057                         0           
       0.516503             0.00133258257            0.000745051381           
       0.517182           -0.000317144653                         0           
       0.517861           -0.000317164901                         0           
       0.518540           -0.000317185263                         0           
       0.519219           -0.000317205507                         0           
       0.519898           -0.000317225956                         0           
       0.520578            0.000129387175            0.000239009247           
       0.521257           -0.000317266834                         0           
       0.521936           -0.000317287188                         0           
       0.522615            0.000155711611            0.000272551126           
       0.523294           -0.000317328462                         0           
       0.523973           -0.000317348851                         0           
       0.524653           -0.000317369093                         0           
       0.525332            -0.00031738963                         0           
       0.526011           -0.000317410537                         0           
       0.526690            0.000166480294            0.000284164688           
       0.527369           -0.000317452097                         0           
       0.528048           -0.000317472939                         0           
       0.528728             0.00021380599            0.000334588793           
       0.529407           -0.000317514476                         0           
       0.530086            -0.00031753509                         0           
       0.530765           -0.000317555733                         0           
       0.531444           -0.000317576598                         0           
       0.532123            0.000244861477            0.000372336953           
       0.532802           -0.000317618895                         0           
       0.533482            0.000833343973            0.000693574063           
       0.534161            0.000816514229            0.000678374208           
       0.534840           -0.000317681751                         0           
       0.535519            -0.00031770298                         0           
       0.536198           -0.000317723989                         0           
       0.536877           -0.000317744709                         0           
       0.537557           -0.000317765786                         0           
       0.538236           -0.000317787052                         0           
       0.538915            -0.00031780831                         0           
       0.539594            -0.00031782954                         0           
       0.540273           -0.000317851102                         0           
       0.540952           -0.000317872423                         0           
       0.541632           -0.000317893355                         0           
       0.542311           -0.000317914479                         0           
       0.542990           -0.000317935839                         0           
       0.543669           -0.000317957378                         0           
       0.544348           -0.000317978891                         0           
       0.545027           -0.000318000358                         0           
       0.545707            -0.00031802189                         0           
       0.546386           -0.000318043482                         0           
       0.547065           -0.000318064815                         0           
       0.547744           -0.000318086245                         0           
       0.548423           -0.000318107911                         0           
       0.549102             -0.0003181296                         0           
       0.549782           -0.000318151179                         0           
       0.550461           -0.000318173013                         0           
       0.551140            -0.00031819498                         0           
       0.551819           -0.000318216687                         0           
       0.552498            -0.00031823858                         0           
       0.553177           -0.000318260096                         0           
       0.553856            -0.00031828169                         0           
       0.554536           -0.000318303355                         0           
       0.555215            -0.00031832535                         0           
       0.555894           -0.000318347293                         0           
       0.556573           -0.000318369367                         0           
       0.557252           -0.000318391423                         0           
       0.557931           -0.000318413378                         0           
       0.558611           -0.000318435847                         0           
       0.559290           -0.000318457744                         0           
       0.559969           -0.000318479103                         0           
       0.560648           -0.000318501028                         0           
       0.561327           -0.000318523441                         0           
       0.562006            0.000613377399            0.000758917771           
       0.562686           -0.000318568073                         0           
       0.563365           -0.000318590477                         0           
       0.564044           -0.000318612769                         0           
       0.564723           -0.000318635011                         0           
       0.565402           -0.000318656839                         0           
       0.566081           -0.000318678811                         0           
       0.566761           -0.000318701021                         0           
       0.567440           -0.000318723681                         0           
       0.568119           -0.000318746163                         0           
       0.568798           -0.000318768961                         0           
       0.569477           -0.000318791612                         0           
       0.570156           -0.000318814373                         0           
       0.570836           -0.000318837048                         0           
       0.571515           -0.000318859244                         0           
       0.572194           -0.000318882084                         0           
       0.572873           -0.000318904401                         0           
       0.573552           -0.000318926587                         0           
       0.574231           -0.000318949222                         0           
       0.574911           -0.000318972429                         0           
       0.575590           -0.000318995188                         0           
       0.576269              0.0033922395              0.0024965535           
       0.576948           -0.000319041004                         0           
       0.577627           -0.000319063425                         0           
       0.578306           -0.000319086162                         0           
       0.578985           -0.000319109093                         0           
       0.579665           -0.000319131892                         0           
       0.580344           -0.000319155037                         0           
       0.581023           -0.000319178156                         0           
       0.581702           -0.000319201061                         0           
       0.582381           -0.000319223758                         0           
       0.583060           -0.000319247133                         0           
       0.583740            -0.00031927014                         0           
       0.584419           -0.000319293224                         0           
       0.585098            -0.00031931628                         0           
       0.585777           -0.000319339516                         0           
       0.586456           -0.000319363129                         0           
       0.587135           -0.000319386115                         0           
       0.587815           -0.000319408853                         0           
       0.588494           -0.000319432299                         0           
       0.589173           -0.000319456284                         0           
       0.589852           -0.000319478994                         0           
       0.590531           -0.000319502561                         0           
       0.591210           -0.000319525583                         0           
       0.591890           -0.000319549051                         0           
       0.592569           -0.000319571733                         0           
       0.593248           -0.000319596531                         0           
       0.593927           -0.000319620109                         0           
       0.594606           -0.000319644171                         0           
       0.595285             -0.0003196668                         0           
       0.595965           -0.000319687916                         0           
       0.596644           -0.000319709646                         0           
