################################################################################
# EDF_DataBlockID                     0.Image.Psd
# EDF_BinarySize                      4366944
# EDF_HeaderSize                      2560
# ByteOrder                           LowByteFirst
# DataType                            FloatValue
# Dim_1                               1028
# Dim_2                               1062
# Image                               0
# HeaderID                            EH:000000:000000:000000
# Size                                4366944
# Center_1                            607.5200
# Center_2                            651.5500
# Comment                             Xenocs_Cell_Window - 20251028_20perc_iodine_1.23mg
# DDummy                              0.6
# Date                                2025-10-31T22:20:04
# Delta                               0
# Dummy                               -1.5
# ExposureTime                        360
# Gamma                               0
# Intensity1                          8.5824e-10
# PSize_1                             7.5e-05
# PSize_2                             7.5e-05
# Pressure                            0.0327501
# SampleDistance                      0.450002
# SampleEnvKind                       large
# SampleEnvPN                         ElectroChemical cell
# SampleEnvSN                         1141
# Thickness                           0
# Wavelength                          1.541891e-10
# Wavelength                          1.54189e-10
# aux                                 0
# aux_dial                            0.002375
# beamx                               588.434
# beamx_dial                          588.434
# beamz                               657.808
# beamz_dial                          657.808
# det0x                               0
# det0x_dial                          6.36945
# det0xvd                             0
# det0xvd_dial                        0
# det0y                               450.002
# det0y_dial                          481.635
# det0z                               0
# det0z_dial                          1.23302
# det0zvd                             0
# det0zvd_dial                        0
# mag                                 1.818
# mag_dial                            1.818
# om                                  0.2499
# om_dial                             -0.610199
# phi                                 -0.0120535
# phi_dial                            0
# ry                                  0.599993
# ry_dial                             0.599993
# s1bot                               0.8
# s1bot_dial                          -1.66094
# s1hl                                0.8
# s1hl_dial                           -0.608437
# s1hr                                0.8
# s1hr_dial                           0.970938
# s1top                               0.8
# s1top_dial                          -0.461562
# s2bot                               0.45
# s2bot_dial                          1.36109
# s2hl                                0.45
# s2hl_dial                           -0.83375
# s2hr                                0.45
# s2hr_dial                           -0.118594
# s2top                               0.45
# s2top_dial                          1.44734
# w2theta                             32
# w2theta_dial                        32
# waxsch                              19.2605
# waxsch_dial                         -32.7355
# waxsh                               137.085
# waxsh_dial                          -43.5338
# waxsth                              26.0607
# waxsth_dial                         -19.4086
# waxsz                               67.0407
# waxsz_dial                          -23.7954
# wind                                65.9854
# wind_dial                           66.0041
# wpsi                                124
# wpsi_dial                           124
# wstod                               115
# wstod_dial                          115
# x                                   0
# x_dial                              1.00969
# z                                   0
# z_dial                              13.3172
# CountCutoff                         15302352
# DetectorModel                       Dectris EIGER2 Si 1M, S/N E-02-0362
# ThresholdSetting                    4023.88989258
# Saturation                          0
# FlatField                           Corrected
# BackgroundReductionExtra            0.02
# BackgroundCorrectionConstant        0.0026712
# Detector                            0
# Monitor                             0
# Pil_Roi0                            0
# SumForIntensity1                    3.08966e+08
# TransmittedFlux                     858240
# det                                 0
# mon                                 0
# pilai0                              3.08966e+08
# pilai1                              784152
# pilct0                              5.3471e+08
# pilct1                              784152
# pilroi0                             0
# pilroi1                             0
# sec                                 1
# title                               20251028_20perc_iodine_1.23mg_0_00727.edf
# usaxs0                              0
# Operation                           Azimuthal average I(q)
# Error_model                         ErrorModel.poisson
# Geometrical_correction              True
# Transmission_correction             True
# Thickness_correction                False
# Binning mode                        Uniform
# Binning factor                      1.0
# Psi                                 0.0
# Omega                               0.2499
# MaskInvalidPixels                   True
# DetectorEdge                        3
# MaskFiles                           ['20251028_20perc_iodine_1.23mg_0_00012_mask.edf']
################################################################################
    q(A⁻¹)                Intensity(a.u.)            Sigma_I(a.u.)            
       0.000340                372236.464                120.239286           
       0.001019                 359301.54                72.3406023           
       0.001698                349603.432                 50.457469           
       0.002377                330907.669                43.9072339           
       0.003056                308034.619                35.8029227           
       0.003735                253456.041                28.6416409           
       0.004415                204778.354                25.7447511           
       0.005094                152871.855                19.2637661           
       0.005773                100925.458                14.4912066           
       0.006452                58719.6725                10.5907145           
       0.007131                32307.9039                7.61020328           
       0.007810                16264.5139                 5.3585503           
       0.008490                 8179.5721                3.36840732           
       0.009169                3982.33919                2.32283892           
       0.009848                1223.95588                1.24505467           
       0.010527                472.932267               0.773936401           
       0.011206                118.320811               0.369462088           
       0.011885                54.3343693               0.232618737           
       0.012564                25.3451228               0.163112163           
       0.013244                16.9454149               0.124688162           
       0.013923                12.3393965               0.108117437           
       0.014602                9.36730276              0.0873657051           
       0.015281                7.36246224              0.0788449935           
       0.015960                6.13046572              0.0714307556           
       0.016639                4.95208069              0.0606243349           
       0.017319                4.15615291              0.0546753619           
       0.017998                3.47131269              0.0478039892           
       0.018677                2.91644948              0.0453826288           
       0.019356                  2.470859              0.0412748503           
       0.020035                 2.2014772              0.0365520618           
       0.020714                1.80497882              0.0334474546           
       0.021394                1.57639066              0.0295752754           
       0.022073                1.40718529              0.0290724662           
       0.022752                1.22334561               0.025930706           
       0.023431                1.02856587              0.0230798566           
       0.024110               0.989608821              0.0236023659           
       0.024789               0.861703528              0.0204542187           
       0.025469               0.831260011                0.02070258           
       0.026148               0.711199251              0.0179922969           
       0.026827               0.646857892               0.017433728           
       0.027506               0.630190453              0.0174558002           
       0.028185               0.555358255              0.0156270421           
       0.028864               0.501112295              0.0147609396           
       0.029544               0.453064838              0.0136104478           
       0.030223               0.406204089              0.0130721714           
       0.030902               0.423681678              0.0134726075           
       0.031581                0.35799952              0.0117726725           
       0.032260               0.332126205              0.0115324882           
       0.032939               0.327696492              0.0110454278           
       0.033619                0.28960975              0.0105363332           
       0.034298                0.26183561             0.00974950226           
       0.034977               0.224866437             0.00885748908           
       0.035656               0.240611715             0.00940483618           
       0.036335               0.210133177             0.00852424226           
       0.037014               0.208582661             0.00851806773           
       0.037693               0.191700906             0.00785566935           
       0.038373               0.172225716             0.00751902009           
       0.039052                0.18573217             0.00784150966           
       0.039731               0.160563634             0.00712096567           
       0.040410               0.157410685             0.00700343103           
       0.041089               0.153078135             0.00679819435           
       0.041768               0.119885984             0.00604761693           
       0.042448                0.14470532             0.00659263835           
       0.043127                0.12775078             0.00604809466           
       0.043806               0.123519946             0.00599144435           
       0.044485               0.112349044              0.0055967112           
       0.045164              0.0997185829             0.00537665968           
       0.045843               0.105876967             0.00531372129           
       0.046523               0.106611447             0.00535053291           
       0.047202               0.110584635             0.00548740157           
       0.047881              0.0920716791             0.00491049771           
       0.048560              0.0938725794             0.00500348285           
       0.049239              0.0968144444             0.00487894568           
       0.049918              0.0946102608             0.00491737245           
       0.050598              0.0840206375             0.00456448521           
       0.051277              0.0857638124             0.00459695833           
       0.051956               0.084925028             0.00454569784           
       0.052635              0.0875531885             0.00451754889           
       0.053314               0.079474842             0.00442993254           
       0.053993              0.0755732558             0.00420134628           
       0.054673              0.0736505607             0.00405516871           
       0.055352              0.0711401587             0.00404399927           
       0.056031              0.0655214667             0.00379947062           
       0.056710              0.0755570182             0.00418006222           
       0.057389              0.0702655833             0.00388717244           
       0.058068              0.0615924041             0.00367688455           
       0.058748              0.0605205927             0.00369021725           
       0.059427              0.0616990803             0.00366288885           
       0.060106              0.0580010133             0.00358503414           
       0.060785              0.0641143327             0.00365629866           
       0.061464              0.0598211644             0.00361689139           
       0.062143              0.0538736737             0.00339752075           
       0.062822              0.0574299848             0.00346670341           
       0.063502              0.0555023288             0.00340193748           
       0.064181              0.0496073244             0.00318224189           
       0.064860              0.0517397105             0.00329941669           
       0.065539              0.0490774244             0.00318198713           
       0.066218              0.0442129925             0.00295551024           
       0.066897              0.0480074157             0.00310349756           
       0.067577              0.0425261676             0.00294902063           
       0.068256              0.0442431558             0.00308185398           
       0.068935              0.0450927065             0.00306099393           
       0.069614              0.0501011034             0.00325862888           
       0.070293              0.0409019693             0.00297145863           
       0.070972              0.0436692136             0.00304785095           
       0.071652              0.0500003609             0.00326729593           
       0.072331              0.0427072511             0.00296580611           
       0.073010              0.0377166295             0.00285082076           
       0.073689              0.0339178642             0.00268859033           
       0.074368              0.0416301811             0.00297319897           
       0.075047              0.0476223771             0.00314580719           
       0.075727              0.0394182628             0.00284436025           
       0.076406              0.0376189523             0.00283412551           
       0.077085              0.0450606117             0.00304383493           
       0.077764              0.0427347538             0.00295385183           
       0.078443              0.0355848098             0.00271213324           
       0.079122              0.0365364339             0.00272175787           
       0.079802              0.0358011776             0.00272280719           
       0.080481              0.0361729176             0.00264458598           
       0.081160              0.0352935237             0.00266584549           
       0.081839              0.0296817698             0.00240559894           
       0.082518              0.0336293655             0.00256273246           
       0.083197              0.0405148771              0.0027691738           
       0.083876              0.0284281501             0.00228107806           
       0.084556              0.0311642751             0.00245475229           
       0.085235              0.0305311168             0.00238274542           
       0.085914              0.0335941909             0.00252369502           
       0.086593              0.0372492796             0.00264033806           
       0.087272              0.0282054032             0.00226508281           
       0.087951              0.0312597227             0.00243843731           
       0.088631              0.0285838803             0.00225231716           
       0.089310              0.0325152074             0.00245316648           
       0.089989              0.0300051435             0.00232902648           
       0.090668              0.0323219528             0.00244395348           
       0.091347              0.0278795515              0.0022825053           
       0.092026               0.031243769              0.0023095907           
       0.092706              0.0278972824             0.00226161439           
       0.093385              0.0275453051             0.00221279156           
       0.094064               0.030369576              0.0023505065           
       0.094743              0.0268518162             0.00217650524           
       0.095422              0.0251378722             0.00208241402           
       0.096101              0.0296769201             0.00230922259           
       0.096781              0.0261942982             0.00213843686           
       0.097460              0.0279910816             0.00215026185           
       0.098139              0.0286730416             0.00215955255           
       0.098818              0.0306291422             0.00220451387           
       0.099497              0.0273645585             0.00208799954           
       0.100176               0.029654886             0.00211657596           
       0.100856              0.0272430249              0.0020273793           
       0.101535              0.0273955389             0.00202912528           
       0.102214               0.028299972             0.00206236073           
       0.102893              0.0257775978             0.00194588057           
       0.103572               0.023158192             0.00181712015           
       0.104251              0.0271517631             0.00197483932           
       0.104931              0.0294428778             0.00203775013           
       0.105610              0.0278845598             0.00199155047           
       0.106289              0.0275306653              0.0019459407           
       0.106968              0.0255189267             0.00187905474           
       0.107647              0.0238849386             0.00181899235           
       0.108326               0.027184898             0.00191462407           
       0.109005              0.0267215244             0.00188629313           
       0.109685              0.0291553771             0.00194822405           
       0.110364              0.0254887026              0.0018422914           
       0.111043              0.0244717589             0.00179800824           
       0.111722              0.0250278416             0.00179609706           
       0.112401              0.0258171453             0.00182927181           
       0.113080              0.0219074083             0.00166576641           
       0.113760              0.0226572107             0.00172232776           
       0.114439              0.0201148147             0.00159966044           
       0.115118              0.0223496906             0.00167347199           
       0.115797              0.0205615537             0.00162000173           
       0.116476              0.0225741597             0.00167202994           
       0.117155              0.0260613333             0.00181102844           
       0.117835              0.0200893404             0.00155843666           
       0.118514              0.0218123758              0.0016444846           
       0.119193              0.0228184614             0.00168199475           
       0.119872              0.0214037589             0.00160864716           
       0.120551              0.0227847675             0.00164867678           
       0.121230              0.0230267291             0.00164072866           
       0.121910              0.0223237035             0.00163110135           
       0.122589              0.0212534184             0.00159316043           
       0.123268              0.0213633279             0.00156632998           
       0.123947               0.023947755             0.00166909443           
       0.124626              0.0227209992             0.00160590349           
       0.125305              0.0222304541             0.00159626832           
       0.125985              0.0216363899             0.00156257577           
       0.126664              0.0210231291             0.00152560012           
       0.127343              0.0209212092             0.00153953835           
       0.128022              0.0218470694             0.00156116871           
       0.128701              0.0199762931             0.00148505472           
       0.129380              0.0204256581             0.00148285727           
       0.130059              0.0222332945             0.00155067451           
       0.130739              0.0204820013               0.001498816           
       0.131418              0.0227829197             0.00157633746           
       0.132097              0.0192131994             0.00142902091           
       0.132776              0.0214662783             0.00150366807           
       0.133455               0.020113126             0.00146681197           
       0.134134              0.0190947506             0.00142464418           
       0.134814              0.0185211819             0.00138862731           
       0.135493              0.0184319304             0.00139088359           
       0.136172              0.0206531048             0.00146119132           
       0.136851              0.0192249373             0.00141796454           
       0.137530                0.01978167             0.00140417655           
       0.138209              0.0198586562              0.0014234241           
       0.138889              0.0188934793             0.00139452251           
       0.139568              0.0176882509             0.00134872766           
       0.140247               0.019649618              0.0014196764           
       0.140926              0.0182309514              0.0013283675           
       0.141605              0.0193109535              0.0014018811           
       0.142284              0.0178459374             0.00132532427           
       0.142964              0.0195975392             0.00139415531           
       0.143643              0.0169919397             0.00129653096           
       0.144322              0.0179781273             0.00130571822           
       0.145001              0.0188116567             0.00136305977           
       0.145680              0.0198113941             0.00136571683           
       0.146359              0.0179467275             0.00130461244           
       0.147039              0.0181990284             0.00132456672           
       0.147718               0.019406601             0.00134523542           
       0.148397              0.0184294521             0.00133130181           
       0.149076              0.0186040219             0.00129609786           
       0.149755               0.019216578             0.00133760206           
       0.150434              0.0190530154             0.00133244098           
       0.151114              0.0196664523             0.00134623334           
       0.151793              0.0180064915             0.00128817807           
       0.152472               0.019593322             0.00132000446           
       0.153151              0.0190754768             0.00131503585           
       0.153830              0.0169963864              0.0012322602           
       0.154509              0.0214779865             0.00137944727           
       0.155188              0.0207271257             0.00135461947           
       0.155868              0.0184213804             0.00126796518           
       0.156547              0.0186013025             0.00128232676           
       0.157226              0.0162253108              0.0011683808           
       0.157905              0.0171971968             0.00121296812           
       0.158584              0.0159626825             0.00116649741           
       0.159263              0.0164872472              0.0011898712           
       0.159943               0.017461893             0.00122544923           
       0.160622              0.0176846951             0.00120944259           
       0.161301               0.017851223              0.0012313762           
       0.161980              0.0136181219             0.00105722787           
       0.162659              0.0189813887             0.00126200522           
       0.163338              0.0172555873             0.00119345973           
       0.164018              0.0178117242             0.00120617536           
       0.164697              0.0169477506             0.00119166585           
       0.165376               0.017947676               0.001199523           
       0.166055                0.01882638              0.0012366382           
       0.166734              0.0169069323             0.00116665339           
       0.167413              0.0166606964              0.0011589374           
       0.168093              0.0184056927             0.00122964093           
       0.168772               0.017343057             0.00115870993           
       0.169451              0.0168484874              0.0011630812           
       0.170130              0.0178103931             0.00118012243           
       0.170809              0.0150511029             0.00109780866           
       0.171488              0.0155420167              0.0011053987           
       0.172168              0.0161680409             0.00111661033           
       0.172847              0.0157498812             0.00111655293           
       0.173526               0.016191027             0.00111048575           
       0.174205              0.0189682938              0.0012074954           
       0.174884              0.0147520043             0.00105932139           
       0.175563              0.0192210575             0.00121434249           
       0.176243              0.0208001006             0.00127588036           
       0.176922               0.014387157             0.00103346781           
       0.177601              0.0154529546             0.00108283427           
       0.178280              0.0145852496             0.00104025069           
       0.178959              0.0164096074             0.00111226782           
       0.179638              0.0172230257             0.00113622035           
       0.180317               0.016675694             0.00110987584           
       0.180997              0.0164089413             0.00110693878           
       0.181676              0.0184482899             0.00116117894           
       0.182355              0.0175002143             0.00113774075           
       0.183034              0.0159394801             0.00106839559           
       0.183713              0.0158970989             0.00107996838           
       0.184392              0.0158849085             0.00107922766           
       0.185072              0.0173666186             0.00111557926           
       0.185751              0.0174711476             0.00112204436           
       0.186430              0.0163242837             0.00107699541           
       0.187109              0.0160625205             0.00108022328           
       0.187788              0.0175143751             0.00112520586           
       0.188467              0.0180933099             0.00113011732           
       0.189147              0.0159610203             0.00107218762           
       0.189826               0.015731251             0.00104561892           
       0.190505              0.0163921271             0.00108492655           
       0.191184              0.0152412437             0.00103107003           
       0.191863              0.0157243872             0.00104949116           
       0.192542              0.0154783413             0.00105106709           
       0.193222              0.0167389181             0.00106853462           
       0.193901              0.0153816311             0.00103802673           
       0.194580              0.0146254197            0.000994483049           
       0.195259              0.0153092202             0.00102915105           
       0.195938              0.0146313345             0.00100850972           
       0.196617              0.0174344471             0.00108551881           
       0.197297              0.0161133086             0.00104784078           
       0.197976               0.015396038             0.00100852047           
       0.198655              0.0148721528             0.00100204021           
       0.199334              0.0143926167            0.000977059944           
       0.200013              0.0149110613            0.000993950459           
       0.200692               0.016115899             0.00103954233           
       0.201371               0.015524896             0.00100881239           
       0.202051              0.0150309526            0.000995721218           
       0.202730              0.0162844633              0.0010260576           
       0.203409              0.0144798401            0.000974030382           
       0.204088              0.0159409551             0.00102086228           
       0.204767              0.0164870159             0.00103274334           
       0.205446               0.015531316             0.00100432282           
       0.206126              0.0146603184            0.000962498511           
       0.206805              0.0152890159             0.00100093927           
       0.207484              0.0148382226            0.000968345442           
       0.208163              0.0173905737             0.00105462541           
       0.208842              0.0164083929             0.00102163519           
       0.209521                0.01532293            0.000979060168           
       0.210201               0.016135369             0.00101589183           
       0.210880              0.0153029602            0.000969926529           
       0.211559              0.0167020277             0.00102827619           
       0.212238              0.0155935345            0.000988511915           
       0.212917              0.0143527835            0.000944846153           
       0.213596              0.0150417172            0.000972975955           
       0.214276              0.0157297912            0.000974252239           
       0.214955              0.0147158377            0.000962145236           
       0.215634                0.01476501             0.00095684423           
       0.216313              0.0141310553             0.00093411158           
       0.216992              0.0159133136            0.000991021308           
       0.217671              0.0152683549            0.000964155489           
       0.218351              0.0160044075            0.000996776025           
       0.219030              0.0134543235            0.000899495128           
       0.219709              0.0147758889            0.000948517394           
       0.220388              0.0131638443             0.00089413187           
       0.221067              0.0162124525            0.000993067437           
       0.221746               0.015101649            0.000957461849           
       0.222426              0.0158105941             0.00096503689           
       0.223105              0.0148520725            0.000948069157           
       0.223784              0.0163004088             0.00098336871           
       0.224463              0.0146181665            0.000938660326           
       0.225142              0.0137550391            0.000896120388           
       0.225821              0.0151571582            0.000944474368           
       0.226500              0.0150570408            0.000947335379           
       0.227180              0.0143566331            0.000910788021           
       0.227859               0.015315375            0.000944928142           
       0.228538              0.0149812964             0.00092518091           
       0.229217              0.0149940608            0.000932901362           
       0.229896              0.0155004208            0.000948066293           
       0.230575              0.0140566536             0.00088844227           
       0.231255              0.0131498283            0.000872172193           
       0.231934              0.0144674577            0.000908575538           
       0.232613              0.0153122137            0.000938173718           
       0.233292              0.0142394109            0.000895970671           
       0.233971              0.0158975608            0.000946259617           
       0.234650              0.0148992283            0.000926841528           
       0.235330               0.016152587            0.000956611474           
       0.236009              0.0162128681            0.000956329001           
       0.236688              0.0152515853            0.000924225381           
       0.237367              0.0154353122            0.000931125938           
       0.238046              0.0148396471            0.000919412268           
       0.238725              0.0156245479            0.000928859006           
       0.239405              0.0149942714            0.000915574067           
       0.240084               0.014687765            0.000900397742           
       0.240763               0.015764032            0.000941735426           
       0.241442              0.0139256095            0.000872648666           
       0.242121              0.0134477745            0.000859164916           
       0.242800              0.0141897959            0.000886728336           
       0.243480              0.0144399982            0.000890323454           
       0.244159              0.0131409811            0.000849744243           
       0.244838              0.0144554558            0.000876565998           
       0.245517              0.0153540537            0.000916395385           
       0.246196               0.015051045            0.000907745391           
       0.246875               0.013138747            0.000836298141           
       0.247554              0.0141779232            0.000877570508           
       0.248234              0.0132478499            0.000835435088           
       0.248913              0.0130342314            0.000837967425           
       0.249592              0.0134545739            0.000843281994           
       0.250271              0.0152292312            0.000894569203           
       0.250950               0.013711358             0.00085401807           
       0.251629              0.0139986646            0.000855584901           
       0.252309              0.0142271822            0.000864290603           
       0.252988              0.0141260459             0.00084637837           
       0.253667              0.0135824454            0.000839630199           
       0.254346              0.0140535875            0.000853892672           
       0.255025              0.0139944859            0.000850228725           
       0.255704              0.0120553818            0.000785514325           
       0.256384              0.0141475465            0.000848006395           
       0.257063              0.0141198448            0.000852005896           
       0.257742              0.0126568156            0.000801069587           
       0.258421              0.0128629685            0.000806012649           
       0.259100              0.0131548556            0.000816527807           
       0.259779              0.0116691271            0.000768384889           
       0.260459              0.0142535543            0.000850889652           
       0.261138              0.0128529225            0.000792212046           
       0.261817              0.0127786366            0.000805864548           
       0.262496              0.0126233143             0.00079309696           
       0.263175              0.0131852809             0.00081229932           
       0.263854              0.0133007229            0.000812057195           
       0.264534              0.0135703892             0.00081324238           
       0.265213              0.0143084323            0.000848223858           
       0.265892              0.0124527545            0.000781172854           
       0.266571              0.0113902441            0.000745404822           
       0.267250              0.0147114944            0.000848564899           
       0.267929              0.0114012851            0.000746256322           
       0.268609              0.0119154858            0.000767076015           
       0.269288              0.0116597657            0.000746194846           
       0.269967               0.012069589            0.000767375193           
       0.270646              0.0125876374            0.000780283079           
       0.271325              0.0109350706            0.000728476615           
       0.272004              0.0121942361             0.00076160747           
       0.272683              0.0122520069             0.00076435269           
       0.273363              0.0119403126            0.000759379925           
       0.274042              0.0118315745            0.000751454395           
       0.274721              0.0118250561            0.000750801969           
       0.275400              0.0119456905            0.000749625564           
       0.276079              0.0115627263            0.000741699403           
       0.276758              0.0134995919            0.000811529773           
       0.277438              0.0122190414            0.000763413974           
       0.278117             0.00990733726            0.000699916344           
       0.278796              0.0113943554            0.000742987973           
       0.279475              0.0125815331            0.000793632387           
       0.280154              0.0115270657            0.000748720296           
       0.280833              0.0120104218            0.000768904538           
       0.281513              0.0130357121            0.000813619371           
       0.282192              0.0106464291            0.000722741087           
       0.282871              0.0114762378            0.000755622245           
       0.283550             0.00966431922            0.000697126757           
       0.284229              0.0122338866            0.000795867198           
       0.284908             0.00997183082            0.000726110397           
       0.285588              0.0119947443            0.000787036852           
       0.286267              0.0111764293            0.000771880091           
       0.286946              0.0117772415            0.000787202789           
       0.287625               0.012170941            0.000813877929           
       0.288304             0.00977831485            0.000719742424           
       0.288983              0.0094876165            0.000717941193           
       0.289663               0.010926513            0.000774971184           
       0.290342              0.0104363671            0.000753358073           
       0.291021              0.0112631686            0.000786847446           
       0.291700               0.012241818            0.000809603511           
       0.292379              0.0101485757            0.000754021052           
       0.293058              0.0102341186            0.000754332068           
       0.293738              0.0101774367             0.00074592335           
       0.294417              0.0112559388            0.000793568907           
       0.295096              0.0108958609            0.000772189313           
       0.295775             0.00937902424            0.000727368064           
       0.296454             0.00944597735            0.000720518037           
       0.297133             0.00932363873            0.000719223593           
       0.297812             0.00997160733            0.000747526423           
       0.298492              0.0102894064            0.000760812104           
       0.299171             0.00976766935             0.00073986981           
       0.299850              0.0102879288            0.000754133119           
       0.300529              0.0108646113            0.000783710899           
       0.301208              0.0086596879            0.000701383307           
       0.301887              0.0100379131            0.000754240125           
       0.302567             0.00965840041            0.000736139217           
       0.303246             0.00956994951            0.000737544764           
       0.303925              0.0100590849            0.000765867322           
       0.304604             0.00970820694            0.000736145102           
       0.305283              0.0103052712            0.000769692811           
       0.305962             0.00755368319            0.000654991259           
       0.306642             0.00807026044            0.000686212386           
       0.307321             0.00763050935            0.000665123873           
       0.308000             0.00912187304             0.00071860334           
       0.308679             0.00966412563            0.000755671466           
       0.309358              0.0096145553            0.000743535139           
       0.310037              0.0107703564            0.000788712079           
       0.310717             0.00976775533            0.000750382675           
       0.311396             0.00855988241            0.000707167424           
       0.312075             0.00920463809            0.000742616229           
       0.312754             0.00881616831            0.000712237168           
       0.313433             0.00700625728            0.000640454821           
       0.314112              0.0104379838            0.000781545142           
       0.314792             0.00963620155            0.000756231536           
       0.315471             0.00882197226            0.000714628703           
       0.316150             0.00939126478            0.000744150059           
       0.316829             0.00773404227            0.000679767211           
       0.317508             0.00768193408              0.0006698713           
       0.318187              0.0087205531            0.000723135517           
       0.318866             0.00819171787            0.000691424857           
       0.319546             0.00965523385            0.000761904494           
       0.320225             0.00887204557            0.000730364253           
       0.320904             0.00905612763            0.000726492851           
       0.321583             0.00650135041            0.000629111326           
       0.322262             0.00753388473            0.000666964424           
       0.322941             0.00708036445            0.000654861831           
       0.323621             0.00935509835            0.000748148026           
       0.324300              0.0081982244            0.000700912028           
       0.324979             0.00736961052            0.000665748696           
       0.325658             0.00879009483            0.000728403469           
       0.326337             0.00777551254            0.000685971763           
       0.327016             0.00715435251            0.000653824105           
       0.327696             0.00822961047            0.000709036934           
       0.328375             0.00826434153             0.00070453579           
       0.329054             0.00811911881            0.000702105707           
       0.329733              0.0094050899            0.000758425052           
       0.330412             0.00755857333            0.000674338627           
       0.331091             0.00735259802            0.000677151435           
       0.331771             0.00687863176            0.000637800316           
       0.332450             0.00834213096            0.000716016961           
       0.333129             0.00682800214            0.000646114573           
       0.333808             0.00648574942            0.000630545492           
       0.334487             0.00783843313            0.000696474521           
       0.335166             0.00824773659            0.000703971373           
       0.335846             0.00554091726            0.000587143287           
       0.336525              0.0082852898            0.000710882787           
       0.337204             0.00704198469              0.0006570959           
       0.337883             0.00723262004            0.000666813432           
       0.338562             0.00723790618            0.000670758785           
       0.339241             0.00660355464            0.000641891789           
       0.339921             0.00667476669            0.000634521206           
       0.340600             0.00774867533            0.000696645685           
       0.341279             0.00715659874            0.000662332265           
       0.341958              0.0064271553            0.000636526226           
       0.342637             0.00641886683            0.000627129152           
       0.343316             0.00644986551            0.000630461694           
       0.343995             0.00642657404            0.000639626938           
       0.344675             0.00586729447            0.000599929662           
       0.345354             0.00589500713             0.00060531141           
       0.346033             0.00535469592            0.000575400867           
       0.346712             0.00657406569            0.000641626765           
       0.347391             0.00614120614            0.000623983433           
       0.348070             0.00669990461             0.00064249344           
       0.348750             0.00581879592            0.000607409217           
       0.349429             0.00696215608            0.000655833395           
       0.350108             0.00536912775            0.000582865552           
       0.350787             0.00692288216            0.000650606551           
       0.351466             0.00551726992            0.000591513292           
       0.352145             0.00691448136            0.000662738862           
       0.352825             0.00752986326            0.000688469266           
       0.353504             0.00459379618            0.000537613733           
       0.354183              0.0065686885            0.000635464402           
       0.354862             0.00591905417            0.000617240521           
       0.355541             0.00681218973            0.000653501125           
       0.356220             0.00464999411            0.000540939553           
       0.356900             0.00584946422            0.000612471982           
       0.357579              0.0057490277            0.000599745764           
       0.358258             0.00584927783            0.000613323913           
       0.358937              0.0061159781            0.000615359781           
       0.359616             0.00611396016            0.000623849905           
       0.360295             0.00585001998            0.000610743892           
       0.360975             0.00555572326            0.000592637875           
       0.361654             0.00433695441             0.00052631383           
       0.362333             0.00518484755            0.000572540786           
       0.363012             0.00511280072            0.000575864086           
       0.363691             0.00696335734            0.000658788511           
       0.364370             0.00504805644             0.00056787571           
       0.365050             0.00574185661            0.000602403102           
       0.365729             0.00560731137            0.000600979633           
       0.366408              0.0059429385            0.000620074094           
       0.367087             0.00545168522            0.000584367883           
       0.367766             0.00666993785             0.00065983868           
       0.368445             0.00496525698            0.000559200766           
       0.369124              0.0061377076            0.000626611483           
       0.369804              0.0058492035             0.00061072844           
       0.370483             0.00501767854            0.000568129398           
       0.371162             0.00487577764            0.000563285313           
       0.371841             0.00482150092            0.000550374952           
       0.372520             0.00489930499            0.000565918565           
       0.373199             0.00446500894            0.000533799239           
       0.373879             0.00471233394             0.00055473316           
       0.374558             0.00518930633            0.000573636378           
       0.375237             0.00456821692            0.000539096776           
       0.375916               0.004706032            0.000557650451           
       0.376595             0.00406636768            0.000508236457           
       0.377274             0.00504384024            0.000575095324           
       0.377954             0.00437442708            0.000527160999           
       0.378633             0.00481885954            0.000560284643           
       0.379312              0.0047502001            0.000556138402           
       0.379991              0.0043191595            0.000527561255           
       0.380670             0.00562036314            0.000612441277           
       0.381349              0.0042720861            0.000526285395           
       0.382029             0.00467507296            0.000558436814           
       0.382708              0.0050403249            0.000567179049           
       0.383387             0.00401418373            0.000517632789           
       0.384066             0.00419753091            0.000524465447           
       0.384745             0.00529744491            0.000591503138           
       0.385424              0.0037978999            0.000502537105           
       0.386104             0.00553349904             0.00059988802           
       0.386783             0.00464170846            0.000561310008           
       0.387462             0.00374374449            0.000491559847           
       0.388141             0.00341316959            0.000476852255           
       0.388820             0.00415181504            0.000522123359           
       0.389499              0.0047254199            0.000560160318           
       0.390178             0.00389620315            0.000510668363           
       0.390858             0.00383793116            0.000502734021           
       0.391537             0.00405210576            0.000521845921           
       0.392216             0.00413316998            0.000520433938           
       0.392895             0.00488682499            0.000567803414           
       0.393574             0.00434017696            0.000533777762           
       0.394253             0.00417042493            0.000525589044           
       0.394933             0.00415193109            0.000530415079           
       0.395612             0.00454145954            0.000538625029           
       0.396291             0.00427395001            0.000533158565           
       0.396970             0.00451321938            0.000543025136           
       0.397649             0.00486037738            0.000565258084           
       0.398328             0.00384823037            0.000500759453           
       0.399008             0.00377216574            0.000494708231           
       0.399687             0.00477692028            0.000558873389           
       0.400366             0.00396173467            0.000507011552           
       0.401045             0.00414079327            0.000517362605           
       0.401724             0.00370012234            0.000489875387           
       0.402403              0.0044233259            0.000539788772           
       0.403083             0.00300774642             0.00043869434           
       0.403762             0.00426859167            0.000525194345           
       0.404441             0.00373882564            0.000494655229           
       0.405120             0.00461905385            0.000548005615           
       0.405799             0.00399091604            0.000507170485           
       0.406478             0.00438796208            0.000531814307           
       0.407158             0.00378195922            0.000492800533           
       0.407837             0.00377519097            0.000496705124           
       0.408516             0.00427703514            0.000524090087           
       0.409195             0.00268930918            0.000420294574           
       0.409874             0.00373190922            0.000501995402           
       0.410553             0.00339000706            0.000483593472           
       0.411233             0.00315173304             0.00046387254           
       0.411912             0.00311715885            0.000467857729           
       0.412591             0.00300831756            0.000462658979           
       0.413270              0.0029216057            0.000453776287           
       0.413949             0.00427622286            0.000554981911           
       0.414628             0.00347309405            0.000499259666           
       0.415307             0.00379054096            0.000527379229           
       0.415987             0.00401410014            0.000538236159           
       0.416666              0.0028021392            0.000446995107           
       0.417345             0.00335797763            0.000497495687           
       0.418024             0.00380095722            0.000529307411           
       0.418703             0.00392862309            0.000537134545           
       0.419382             0.00331435484            0.000490940617           
       0.420062             0.00332641284            0.000493210862           
       0.420741              0.0025585827              0.0004348583           
       0.421420             0.00288478701            0.000463499059           
       0.422099             0.00294010162            0.000467933824           
       0.422778              0.0025240885            0.000435914235           
       0.423457             0.00241183282             0.00042871874           
       0.424137             0.00269232886            0.000445581408           
       0.424816             0.00244033824            0.000433082779           
       0.425495              0.0028192952            0.000465055876           
       0.426174             0.00229005737             0.00041928573           
       0.426853             0.00292454395            0.000470944703           
       0.427532             0.00336730969            0.000509610971           
       0.428212             0.00203287554            0.000398575023           
       0.428891             0.00209647169            0.000403840859           
       0.429570             0.00200597505            0.000395298679           
       0.430249             0.00206714353            0.000399196942           
       0.430928              0.0026556199            0.000462359065           
       0.431607             0.00232021994            0.000424750534           
       0.432287             0.00172955621            0.000369407638           
       0.432966             0.00287475907            0.000480443827           
       0.433645              0.0017706644            0.000377453371           
       0.434324             0.00276557547            0.000468880448           
       0.435003             0.00270570163             0.00046456923           
       0.435682             0.00308464732            0.000500104354           
       0.436361             0.00170227148            0.000371014309           
       0.437041             0.00289580624              0.0004832602           
       0.437720             0.00302312098            0.000496150897           
       0.438399             0.00148388028             0.00034941845           
       0.439078             0.00228118837            0.000445801516           
       0.439757             0.00234577805            0.000449283738           
       0.440436             0.00246280049            0.000470728734           
       0.441116             0.00300051677            0.000528078225           
       0.441795             0.00274156882            0.000505385442           
       0.442474             0.00332485752             0.00055810895           
       0.443153             0.00194462779            0.000436783532           
       0.443832             0.00272787298            0.000518192956           
       0.444511             0.00251245941            0.000495071226           
       0.445191              0.0024402421            0.000499771662           
       0.445870             0.00182850874            0.000432628922           
       0.446549             0.00145565441            0.000390078366           
       0.447228             0.00194856482            0.000448765195           
       0.447907             0.00263735558            0.000528355598           
       0.448586             0.00078832043            0.000295814334           
       0.449266             0.00164877799            0.000423872937           
       0.449945             0.00237165111            0.000506296543           
       0.450624              0.0033223968            0.000608762488           
       0.451303             0.00288017176            0.000574149252           
       0.451982             0.00226912122            0.000506467241           
       0.452661             0.00283626741            0.000576783192           
       0.453341             0.00286228346            0.000581453013           
       0.454020             0.00275457555            0.000571277297           
       0.454699             0.00341832297            0.000642206475           
       0.455378             0.00221606981            0.000517360006           
       0.456057             0.00205754109            0.000507377534           
       0.456736             0.00203031185              0.0005024374           
       0.457416             0.00202024911             0.00050120498           
       0.458095             0.00262253151            0.000579313102           
       0.458774             0.00164870998            0.000465400723           
       0.459453             0.00246020623            0.000571380655           
       0.460132            0.000947806478            0.000346990673           
       0.460811             0.00131299694            0.000423641224           
       0.461490             0.00167503912            0.000473630045           
       0.462170            0.000922605587            0.000356993088           
       0.462849             0.00163190065            0.000477866211           
       0.463528             0.00175666434            0.000494647234           
       0.464207             0.00271259879            0.000626173982           
       0.464886             0.00153134478            0.000466813917           
       0.465565            0.000410155115            0.000244245256           
       0.466245             0.00114808484            0.000409906343           
       0.466924             0.00105186931            0.000401622549           
       0.467603             0.00144216327            0.000460292144           
       0.468282             0.00136340172            0.000458159328           
       0.468961            0.000624157771            0.000312029374           
       0.469640             0.00140672955            0.000470308352           
       0.470320             0.00172457591            0.000521097047           
       0.470999             0.00255376475            0.000640095743           
       0.471678             0.00131323933            0.000463426609           
       0.472357             0.00132419833            0.000466655384           
       0.473036             0.00150149861            0.000500051722           
       0.473715             0.00119565752            0.000449717782           
       0.474395             0.00107489936            0.000432297548           
       0.475074             0.00106686195            0.000430690837           
       0.475753            0.000705941688            0.000347321972           
       0.476432               0.000780524            0.000378504351           
       0.477111             0.00144402963            0.000508606522           
       0.477790            0.000582428464            0.000324735237           
       0.478470            0.000236550017            0.000209688793           
       0.479149             0.00099813084            0.000435187501           
       0.479828            0.000987112101             0.00043175994           
       0.480507            6.61070566e-05            0.000112634224           
       0.481186            0.000668742674            0.000366317173           
       0.481865            0.000446040815             0.00029546327           
       0.482545            0.000853169221            0.000413433259           
       0.483224            0.000494937512            0.000317044671           
       0.483903             0.00114304812            0.000489401272           
       0.484582            0.000110193285            0.000154424438           
       0.485261            9.59308708e-05            0.000140434147           
       0.485940            0.000768492419            0.000413512706           
       0.486619             9.8161721e-05            0.000146162617           
       0.487299            0.000348892072            0.000279949437           
       0.487978            0.000348506379               0.000276944           
       0.488657            0.000606681609            0.000380477008           
       0.489336            0.000584607454            0.000366942671           
       0.490015           -8.57827084e-05                         0           
       0.490694           -0.000318113391                         0           
       0.491374           -8.09844426e-05                         0           
       0.492053            0.000190090829             0.00021994887           
       0.492732           -0.000318171181                         0           
       0.493411            -0.00031819067                         0           
       0.494090           -0.000318210288                         0           
       0.494769           -5.52117569e-05                         0           
       0.495449           -0.000318249035                         0           
       0.496128            0.000749140845            0.000447863245           
       0.496807           -0.000318287958                         0           
       0.497486            -5.5186219e-05                         0           
       0.498165           -0.000318327305                         0           
       0.498844            -0.00031834682                         0           
       0.499524           -0.000318366428                         0           
       0.500203           -3.29408377e-05                         0           
       0.500882           -0.000318405872                         0           
       0.501561            -0.00031842546                         0           
       0.502240           -1.90176037e-05                         0           
       0.502919             0.00030701935            0.000311182143           
       0.503599           -0.000318484911                         0           
       0.504278            -0.00031850503                         0           
       0.504957           -0.000318524913                         0           
       0.505636           -0.000318544669                         0           
       0.506315           -0.000318564749                         0           
       0.506994           -0.000318584471                         0           
       0.507673           -0.000318604152                         0           
       0.508353           -0.000318624249                         0           
       0.509032            -0.00031864426                         0           
       0.509711            0.000356763869            0.000349213642           
       0.510390           -0.000318684611                         0           
       0.511069            3.90227608e-05            0.000118779959           
       0.511748            4.42143794e-05            0.000127211937           
       0.512428           -0.000318745391                         0           
       0.513107           -0.000318765406                         0           
       0.513786             8.0979269e-05            0.000180083886           
       0.514465           -0.000318805905                         0           
       0.515144            9.55661911e-05            0.000199706863           
       0.515823           -0.000318846533                         0           
       0.516503             0.00050879178            0.000461635451           
       0.517182            0.000537815106            0.000476308923           
       0.517861           -0.000318907711                         0           
       0.518540            0.000130270264            0.000241357199           
       0.519219            -0.00031894854                         0           
       0.519898           -0.000318969102                         0           
       0.520578           -0.000318989786                         0           
       0.521257           -0.000319010204                         0           
       0.521936            0.000126235216            0.000240343853           
       0.522615           -0.000319051382                         0           
       0.523294           -0.000319072171                         0           
       0.523973           -0.000319092672                         0           
       0.524653           -0.000319113026                         0           
       0.525332            0.000154169156             0.00026981842           
       0.526011           -0.000319154697                         0           
       0.526690           -0.000319175678                         0           
       0.527369           -0.000319196486                         0           
       0.528048           -0.000319217442                         0           
       0.528728           -0.000319238373                         0           
       0.529407            0.000209247168            0.000336397038           
       0.530086            0.000207535493            0.000329846113           
       0.530765           -0.000319300691                         0           
       0.531444            0.000197512297            0.000319706942           
       0.532123           -0.000319343023                         0           
       0.532802            0.000218686363             0.00034395737           
       0.533482           -0.000319385305                         0           
       0.534161           -0.000319406444                         0           
       0.534840            0.000280961357            0.000405827139           
       0.535519           -0.000319448747                         0           
       0.536198           -0.000319469872                         0           
       0.536877           -0.000319490706                         0           
       0.537557           -0.000319511898                         0           
       0.538236           -0.000319533281                         0           
       0.538915           -0.000319554656                         0           
       0.539594            0.000980836377            0.000798588848           
       0.540273           -0.000319597683                         0           
       0.540952           -0.000319619122                         0           
       0.541632           -0.000319640168                         0           
       0.542311           -0.000319661408                         0           
       0.542990           -0.000319682886                         0           
       0.543669           -0.000319704543                         0           
       0.544348             0.00188941331             0.00118152214           
       0.545027            -0.00031974776                         0           
       0.545707            -0.00031976941                         0           
       0.546386            -0.00031979112                         0           
       0.547065           -0.000319812571                         0           
       0.547744           -0.000319834118                         0           
       0.548423           -0.000319855904                         0           
       0.549102           -0.000319877711                         0           
       0.549782           -0.000319899409                         0           
       0.550461           -0.000319921363                         0           
       0.551140           -0.000319943451                         0           
       0.551819           -0.000319965277                         0           
       0.552498            -0.00031998729                         0           
       0.553177           -0.000320008925                         0           
       0.553856           -0.000320030637                         0           
       0.554536           -0.000320052421                         0           
       0.555215           -0.000320074537                         0           
       0.555894           -0.000320096601                         0           
       0.556573           -0.000320118796                         0           
       0.557252           -0.000320140973                         0           
       0.557931           -0.000320163049                         0           
       0.558611           -0.000320185641                         0           
       0.559290           -0.000320207659                         0           
       0.559969           -0.000320229135                         0           
       0.560648            -0.00032025118                         0           
       0.561327            0.000856696797              0.0010035082           
       0.562006           -0.000320296149                         0           
       0.562686           -0.000320318594                         0           
       0.563365           -0.000320341121                         0           
       0.564044           -0.000320363535                         0           
       0.564723             -0.0003203859                         0           
       0.565402           -0.000320407847                         0           
       0.566081           -0.000320429941                         0           
       0.566761           -0.000320452272                         0           
       0.567440           -0.000320475057                         0           
       0.568119            0.000867058816             0.00100499729           
       0.568798           -0.000320520585                         0           
       0.569477           -0.000320543361                         0           
       0.570156           -0.000320566247                         0           
       0.570836             0.00106493564             0.00121908387           
       0.571515           -0.000320611365                         0           
       0.572194              0.0042238807             0.00253334348           
       0.572873            -0.00032065677                         0           
       0.573552           -0.000320679078                         0           
       0.574231           -0.000320701838                         0           
       0.574911           -0.000320725171                         0           
       0.575590           -0.000320748056                         0           
       0.576269           -0.000320770871                         0           
       0.576948           -0.000320794124                         0           
       0.577627           -0.000320816668                         0           
       0.578306           -0.000320839529                         0           
       0.578985           -0.000320862587                         0           
       0.579665           -0.000320885511                         0           
       0.580344           -0.000320908783                         0           
       0.581023           -0.000320932029                         0           
       0.581702            -0.00032095506                         0           
       0.582381           -0.000320977882                         0           
       0.583060           -0.000321001385                         0           
       0.583740           -0.000321024519                         0           
       0.584419           -0.000321047729                         0           
       0.585098           -0.000321070912                         0           
       0.585777           -0.000321094275                         0           
       0.586456           -0.000321118019                         0           
       0.587135           -0.000321141131                         0           
       0.587815           -0.000321163994                         0           
       0.588494           -0.000321187569                         0           
       0.589173           -0.000321211686                         0           
       0.589852            -0.00032123452                         0           
       0.590531           -0.000321258217                         0           
       0.591210           -0.000321281366                         0           
       0.591890           -0.000321304962                         0           
       0.592569           -0.000321327769                         0           
       0.593248           -0.000321352704                         0           
       0.593927           -0.000321376411                         0           
       0.594606           -0.000321400605                         0           
       0.595285           -0.000321423358                         0           
       0.595965           -0.000321444591                         0           
       0.596644           -0.000321466439                         0           
