################################################################################
# EDF_DataBlockID                     0.Image.Psd
# EDF_BinarySize                      2105344
# EDF_HeaderSize                      2560
# ByteOrder                           LowByteFirst
# DataType                            FloatValue
# Dim_1                               512
# Dim_2                               1028
# Image                               0
# HeaderID                            EH:000000:000000:000000
# Size                                2105344
# Center_1                            304.9000
# Center_2                            588.7000
# Comment                             Xenocs_Cell_Window - 20251028_20perc_iodine_1.23mg
# DDummy                              0.6
# Date                                2025-11-03T07:42:41
# Delta                               21.910000
# Dummy                               -1.5
# ExposureTime                        360
# Gamma                               15.360000
# Intensity1                          8.8092e-10
# PSize_1                             7.5e-05
# PSize_2                             7.5e-05
# Pressure                            0.0329847
# SampleDistance                      0.115750
# SampleEnvKind                       large
# SampleEnvPN                         ElectroChemical cell
# SampleEnvSN                         1141
# Thickness                           0
# Wavelength                          1.541891e-10
# Wavelength                          1.54189e-10
# aux                                 0
# aux_dial                            0.002375
# beamx                               588.434
# beamx_dial                          588.434
# beamz                               657.808
# beamz_dial                          657.808
# det0x                               0
# det0x_dial                          6.36945
# det0xvd                             0
# det0xvd_dial                        0
# det0y                               450.002
# det0y_dial                          481.635
# det0z                               0
# det0z_dial                          1.23302
# det0zvd                             0
# det0zvd_dial                        0
# mag                                 1.818
# mag_dial                            1.818
# om                                  0.2499
# om_dial                             -0.610199
# phi                                 -0.0120535
# phi_dial                            0
# ry                                  0.599993
# ry_dial                             0.599993
# s1bot                               0.8
# s1bot_dial                          -1.66094
# s1hl                                0.8
# s1hl_dial                           -0.608437
# s1hr                                0.8
# s1hr_dial                           0.970938
# s1top                               0.8
# s1top_dial                          -0.461562
# s2bot                               0.45
# s2bot_dial                          1.36109
# s2hl                                0.45
# s2hl_dial                           -0.83375
# s2hr                                0.45
# s2hr_dial                           -0.118594
# s2top                               0.45
# s2top_dial                          1.44734
# w2theta                             32
# w2theta_dial                        32
# waxsch                              19.2605
# waxsch_dial                         -32.7355
# waxsh                               137.085
# waxsh_dial                          -43.5338
# waxsth                              26.0607
# waxsth_dial                         -19.4086
# waxsz                               67.0407
# waxsz_dial                          -23.7954
# wind                                65.9854
# wind_dial                           66.0041
# wpsi                                124
# wpsi_dial                           124
# wstod                               115
# wstod_dial                          115
# x                                   0
# x_dial                              1.00969
# z                                   0
# z_dial                              13.3172
# CountCutoff                         6807993
# DetectorModel                       Dectris EIGER2 Si 500K, S/N E-01-0554
# ThresholdSetting                    4023.88989258
# Saturation                          0
# FlatField                           Corrected
# BackgroundReductionExtra            0.02
# BackgroundCorrectionConstant        0.0026712
# Detector                            0
# Monitor                             0
# Pil_Roi0                            0
# SumForIntensity1                    3.17131e+08
# TransmittedFlux                     880920
# det                                 0
# mon                                 0
# pilai0                              3.17131e+08
# pilai1                              797634
# pilct0                              5.4863e+08
# pilct1                              797634
# pilroi0                             0
# pilroi1                             0
# sec                                 1
# title                               20251028_20perc_iodine_1.23mg_1_01248.edf
# usaxs0                              0
# Operation                           Azimuthal average I(q)
# Error_model                         ErrorModel.poisson
# Geometrical_correction              True
# Transmission_correction             True
# Thickness_correction                False
# Binning mode                        Uniform
# Binning factor                      1.0
# Psi                                 0.0
# Omega                               0.2499
# MaskInvalidPixels                   True
# DetectorEdge                        3
# MaskFiles                           ['WAXS_corrected.edf']
################################################################################
    q(A⁻¹)                Intensity(a.u.)            Sigma_I(a.u.)            
       0.693100             0.00802589692             0.00588427041           
       0.695741             0.00273131909             0.00280117197           
       0.698381              0.0082182551             0.00595190812           
       0.701021             0.00855680353             0.00858567361           
       0.703662           -2.30008449e-05                         0           
       0.706302             0.00669630936             0.00339416512           
       0.708942             0.00832080914             0.00488336343           
       0.711583             0.00845744166             0.00426325751           
       0.714223             0.00565473936             0.00402465146           
       0.716864              0.0061191387             0.00273928937           
       0.719504             0.00565441712             0.00284154502           
       0.722144              0.0073174712             0.00299355987           
       0.724785             0.00932232768             0.00269526222           
       0.727425             0.00857910541              0.0034978396           
       0.730065             0.00566458563             0.00201050047           
       0.732706             0.00805341404             0.00201306994           
       0.735346             0.00676794883             0.00240558936           
       0.737987             0.00717071616             0.00174973105           
       0.740627             0.00471465243             0.00211690494           
       0.743267             0.00594352079             0.00159199086           
       0.745908             0.00704800635             0.00188087764           
       0.748548             0.00551954764             0.00153424097           
       0.751189             0.00699482413             0.00232726995           
       0.753829             0.00722072367               0.002173571           
       0.756469              0.0118525972             0.00224555439           
       0.759110             0.00567246284             0.00163709235           
       0.761750             0.00658695475               0.001559877           
       0.764390             0.00404235411             0.00127900033           
       0.767031             0.00874531108             0.00162907197           
       0.769671             0.00856356421             0.00201091892           
       0.772312             0.00681059544             0.00136524682           
       0.774952              0.0050016436             0.00157991862           
       0.777592             0.00951328126              0.0015870869           
       0.780233             0.00537029897             0.00143866123           
       0.782873             0.00880752161             0.00176209289           
       0.785513             0.00844566168             0.00184468644           
       0.788154             0.00563899742             0.00126092871           
       0.790794             0.00759234115             0.00174918795           
       0.793435             0.00748615607             0.00156037246           
       0.796075             0.00452350871             0.00116843005           
       0.798715             0.00670117806              0.0016805573           
       0.801356             0.00927653469             0.00170179227           
       0.803996             0.00648235084             0.00145034941           
       0.806637             0.00798258196             0.00128082646           
       0.809277             0.00748361796             0.00134231899           
       0.811917             0.00779141608             0.00128040033           
       0.814558             0.00837069532             0.00137933007           
       0.817198             0.00675580246             0.00117725609           
       0.819838             0.00857293935             0.00134217629           
       0.822479             0.00552285668             0.00126501499           
       0.825119             0.00899055789             0.00137372825           
       0.827760             0.00579172715             0.00111687454           
       0.830400             0.00985941844             0.00137151701           
       0.833040             0.00941153492             0.00140391055           
       0.835681             0.00729349792             0.00140498676           
       0.838321             0.00667475371             0.00112812089           
       0.840961             0.00858397593              0.0013938892           
       0.843602             0.00716200518             0.00116758902           
       0.846242             0.00701455455             0.00115533507           
       0.848883             0.00577698442             0.00107296432           
       0.851523             0.00777675735             0.00122943459           
       0.854163             0.00726308031             0.00126353055           
       0.856804             0.00729444836             0.00113853789           
       0.859444             0.00803319671             0.00117067382           
       0.862085             0.00704555118             0.00114267105           
       0.864725             0.00856839593             0.00128960751           
       0.867365             0.00563365856            0.000969658813           
       0.870006             0.00785002315             0.00109072945           
       0.872646              0.0101584928             0.00130113382           
       0.875286             0.00660058174             0.00100902387           
       0.877927             0.00717286549              0.0010149929           
       0.880567             0.00789377771             0.00110313174           
       0.883208             0.00726392891             0.00104823798           
       0.885848             0.00911719697             0.00121934893           
       0.888488             0.00785770162             0.00106174288           
       0.891129             0.00783581946             0.00108866933           
       0.893769             0.00872263125             0.00109926215           
       0.896410             0.00778714841            0.000968380213           
       0.899050             0.00917797859              0.0011561536           
       0.901690             0.00932625064             0.00126951928           
       0.904331             0.00829037836             0.00106115457           
       0.906971             0.00738441878             0.00106542779           
       0.909611             0.00672981245            0.000925894397           
       0.912252             0.00814219484             0.00105193011           
       0.914892             0.00634040963             0.00101440236           
       0.917533             0.00621765972            0.000950286429           
       0.920173             0.00711413052            0.000943100391           
       0.922813             0.00550541737            0.000870618635           
       0.925454             0.00825149681            0.000959775436           
       0.928094             0.00734394431            0.000966651962           
       0.930734             0.00837586916             0.00111142213           
       0.933375             0.00765525947             0.00105209157           
       0.936015             0.00856961908             0.00101097979           
       0.938656             0.00742747737             0.00100968629           
       0.941296             0.00811403135            0.000956410431           
       0.943936             0.00910226946             0.00099338376           
       0.946577             0.00770115487            0.000907693898           
       0.949217             0.00687401816             0.00078860839           
       0.951858             0.00712114148             0.00084022336           
       0.954498             0.00611293959            0.000901071742           
       0.957138             0.00749828081            0.000945434941           
       0.959779             0.00857273483            0.000996544897           
       0.962419             0.00617080027            0.000839865005           
       0.965059             0.00643617211            0.000902111618           
       0.967700             0.00793471162             0.00102587899           
       0.970340             0.00671434481            0.000835078078           
       0.972981             0.00818108876            0.000839836859           
       0.975621             0.00644925442            0.000793259757           
       0.978261             0.00756537073            0.000816356331           
       0.980902             0.00903485626             0.00106738201           
       0.983542             0.00820886659            0.000900992924           
       0.986182             0.00687396566            0.000809475617           
       0.988823              0.0078180812            0.000838243483           
       0.991463             0.00828229137            0.000920486239           
       0.994104             0.00739475717            0.000848473212           
       0.996744             0.00882666406            0.000945521139           
       0.999384             0.00689591358            0.000747427105           
       1.002025             0.00675792256            0.000825838542           
       1.004665             0.00879036723            0.000860754799           
       1.007306             0.00734196072            0.000782624256           
       1.009946             0.00641972122             0.00074635588           
       1.012586             0.00822625972            0.000822852096           
       1.015227             0.00749778253              0.0008439522           
       1.017867             0.00861619197            0.000869488318           
       1.020507             0.00849167714            0.000836109899           
       1.023148             0.00661676323            0.000796382806           
       1.025788             0.00901809119            0.000852488202           
       1.028429             0.00841722301            0.000862854752           
       1.031069             0.00696613253            0.000738680287           
       1.033709             0.00769225006            0.000825128543           
       1.036350             0.00778565449            0.000745563991           
       1.038990             0.00725143796            0.000732753242           
       1.041630              0.0076472189            0.000784848726           
       1.044271              0.0086815334            0.000786456025           
       1.046911             0.00866925972            0.000826664169           
       1.049552             0.00706050042             0.00078379837           
       1.052192             0.00849558848            0.000785080914           
       1.054832             0.00820012689            0.000778324719           
       1.057473             0.00820091478            0.000767300708           
       1.060113             0.00792768752            0.000735755356           
       1.062754             0.00731981106            0.000721819064           
       1.065394             0.00917617487            0.000854457447           
       1.068034             0.00723225972            0.000690196181           
       1.070675             0.00933442867            0.000817927629           
       1.073315             0.00746892505            0.000742131569           
       1.075955             0.00886056246            0.000763098843           
       1.078596             0.00892525343            0.000813977934           
       1.081236             0.00842685554            0.000757361999           
       1.083877             0.00808931605            0.000735382283           
       1.086517              0.0092913693             0.00084510457           
       1.089157             0.00760131196            0.000793140024           
       1.091798             0.00944711113            0.000775200905           
       1.094438             0.00872462522            0.000742564476           
       1.097078             0.00848100235            0.000702183296           
       1.099719             0.00892025138            0.000778938849           
       1.102359             0.00967259959            0.000759625878           
       1.105000             0.00865239324            0.000803366597           
       1.107640              0.0108353308            0.000859604123           
       1.110280             0.00851569298            0.000695318801           
       1.112921             0.00896060484            0.000766186235           
       1.115561             0.00950242053             0.00074988846           
       1.118202             0.00824791277            0.000699295295           
       1.120842             0.00975954946              0.0007994823           
       1.123482             0.00919865066            0.000772778521           
       1.126123             0.00924707988            0.000743172723           
       1.128763             0.00920536305            0.000746578392           
       1.131403             0.00791521944            0.000667078216           
       1.134044             0.00804223735            0.000691910825           
       1.136684              0.0096808586            0.000809368804           
       1.139325             0.00981093246             0.00075058186           
       1.141965             0.00865468101             0.00070962691           
       1.144605             0.00751045603            0.000630318046           
       1.147246             0.00851955253            0.000687046484           
       1.149886             0.00951881169            0.000723643445           
       1.152527             0.00802604305            0.000674146118           
       1.155167             0.00917715105            0.000685657613           
       1.157807             0.00877217308            0.000718743479           
       1.160448             0.00866322118            0.000697499108           
       1.163088              0.0101284785            0.000719378476           
       1.165728              0.0100796506            0.000736816991           
       1.168369             0.00975063494            0.000731386918           
       1.171009             0.00866318833            0.000669041439           
       1.173650             0.00824679836            0.000669892481           
       1.176290             0.00863479531            0.000669857938           
       1.178930              0.0102847874            0.000716507541           
       1.181571             0.00964370508            0.000707575851           
       1.184211              0.0099725989            0.000722091644           
       1.186851             0.00910137631            0.000674436231           
       1.189492             0.00868127373            0.000654255655           
       1.192132             0.00982323421            0.000688149304           
       1.194773             0.00876444045            0.000652846281           
       1.197413             0.00880443735            0.000626944834           
       1.200053              0.0098951172            0.000681531443           
       1.202694             0.00988454448            0.000647751072           
       1.205334             0.00890943804            0.000662746763           
       1.207975              0.0103153438            0.000680695812           
       1.210615             0.00960994114            0.000724793008           
       1.213255             0.00977486602            0.000654581104           
       1.215896             0.00854374457            0.000623061224           
       1.218536              0.0102194273            0.000655222033           
       1.221176              0.0103308313            0.000716233051           
       1.223817             0.00890969887            0.000624385638           
       1.226457              0.0100038291            0.000674942808           
       1.229098             0.00996820311            0.000673707098           
       1.231738             0.00937772897            0.000656664775           
       1.234378              0.0104948804            0.000652754514           
       1.237019              0.0108503724            0.000683954901           
       1.239659              0.0105045556            0.000667105112           
       1.242299              0.0110269136            0.000674806554           
       1.244940              0.0108809603            0.000651933842           
       1.247580               0.010990532            0.000675245543           
       1.250221              0.0100213029            0.000640805761           
       1.252861              0.0107952049            0.000633167914           
       1.255501              0.0110032952            0.000694093887           
       1.258142             0.00933967039            0.000600900167           
       1.260782              0.0100016932              0.0006352871           
       1.263423             0.00986470158             0.00060624409           
       1.266063              0.0103346013            0.000636010267           
       1.268703               0.010604379            0.000638912004           
       1.271344             0.00978888668            0.000634657941           
       1.273984              0.0110138458            0.000650176084           
       1.276624              0.0113294689            0.000647037977           
       1.279265              0.0104651966            0.000632195791           
       1.281905               0.010940959            0.000649275179           
       1.284546              0.0108728678            0.000625627406           
       1.287186              0.0102194021               0.000595076           
       1.289826              0.0107959124            0.000644608813           
       1.292467              0.0102442544            0.000614092974           
       1.295107              0.0103496012            0.000611110974           
       1.297747              0.0112066065            0.000608512607           
       1.300388              0.0107811016            0.000650640183           
       1.303028              0.0102263124            0.000604947347           
       1.305669              0.0105685063            0.000629628837           
       1.308309              0.0105889982            0.000624032579           
       1.310949              0.0100702394            0.000607943267           
       1.313590               0.011280777            0.000623333402           
       1.316230              0.0115861221            0.000674125688           
       1.318871              0.0116449137             0.00066189631           
       1.321511              0.0114532938            0.000644260817           
       1.324151              0.0106044614            0.000601548825           
       1.326792              0.0110851637            0.000618834256           
       1.329432              0.0105384237            0.000599122352           
       1.332072              0.0109278802            0.000601000216           
       1.334713              0.0117691865            0.000643726439           
       1.337353              0.0118077392            0.000618356799           
       1.339994              0.0110727793            0.000628384268           
       1.342634              0.0119904148            0.000627053001           
       1.345274               0.011473389            0.000634795619           
       1.347915               0.010682062            0.000595598941           
       1.350555              0.0102434601            0.000593458065           
       1.353195              0.0107694981            0.000611494059           
       1.355836              0.0108575268            0.000604414124           
       1.358476              0.0101460124            0.000567419131           
       1.361117              0.0116364793            0.000608503097           
       1.363757               0.010888229            0.000606587103           
       1.366397              0.0104131533             0.00057525506           
       1.369038                0.01132143            0.000605791173           
       1.371678              0.0111987016            0.000597187067           
       1.374319              0.0112950425            0.000594585959           
       1.376959              0.0109061771            0.000578385475           
       1.379599              0.0115054298            0.000636655674           
       1.382240              0.0115811179            0.000600325686           
       1.384880               0.011310527             0.00062840877           
       1.387520              0.0113475496            0.000597795182           
       1.390161               0.011402362            0.000569131405           
       1.392801              0.0107742311            0.000576415431           
       1.395442              0.0109310803            0.000588525554           
       1.398082              0.0108385959            0.000548792122           
       1.400722              0.0123087996            0.000612595382           
       1.403363              0.0114025609            0.000620639346           
       1.406003              0.0110867347            0.000572734646           
       1.408644              0.0117073765            0.000616541635           
       1.411284              0.0108857089            0.000562950571           
       1.413924              0.0111145831            0.000566729029           
       1.416565              0.0122059551            0.000591569039           
       1.419205              0.0117959163            0.000606647119           
       1.421845              0.0111094677            0.000588385334           
       1.424486              0.0109952873            0.000562659633           
       1.427126              0.0106094993            0.000574149008           
       1.429767              0.0109018759            0.000547597314           
       1.432407              0.0109820901            0.000575177807           
       1.435047              0.0114758807            0.000552198196           
       1.437688               0.011635517            0.000564339192           
       1.440328               0.010885369            0.000557095593           
       1.442968              0.0104239659            0.000557375458           
       1.445609              0.0114522084            0.000565686391           
       1.448249              0.0113910753            0.000578459045           
       1.450890               0.010601564            0.000554410325           
       1.453530              0.0111803246            0.000595646688           
       1.456170              0.0111380072            0.000576994017           
       1.458811              0.0111055432             0.00055092929           
       1.461451              0.0113049901             0.00055731255           
       1.464092              0.0108514884             0.00054958957           
       1.466732              0.0117800989            0.000567701664           
       1.469372               0.010509152            0.000523654559           
       1.472013              0.0109571533            0.000576684288           
       1.474653              0.0111576697            0.000572959923           
       1.477293             0.00938310988            0.000536499407           
       1.479934              0.0105621988            0.000543145868           
       1.482574              0.0117391915            0.000553910045           
       1.485215              0.0108708086            0.000542957077           
       1.487855              0.0110183981            0.000553841387           
       1.490495              0.0122927625             0.00058283886           
       1.493136              0.0113836915            0.000553186173           
       1.495776              0.0109117516            0.000539131852           
       1.498416               0.010224065            0.000538940658           
       1.501057              0.0123212111            0.000578598891           
       1.503697              0.0114211904            0.000544620785           
       1.506338              0.0108452213            0.000540408507           
       1.508978              0.0111598882            0.000542801162           
       1.511618              0.0102917786            0.000555141483           
       1.514259              0.0106887704            0.000546202326           
       1.516899              0.0109347801            0.000537905298           
       1.519540              0.0102194663             0.00052839945           
       1.522180             0.00971284907            0.000519660809           
       1.524820              0.0104354263            0.000535621851           
       1.527461               0.010244397            0.000533321355           
       1.530101              0.0103692887            0.000531196227           
       1.532741              0.0104400001            0.000529911121           
       1.535382             0.00991432829            0.000524711228           
       1.538022              0.0108037304            0.000516001409           
       1.540663              0.0117758531            0.000579422772           
       1.543303               0.010558117            0.000509427217           
       1.545943               0.011023864            0.000550955341           
       1.548584              0.0106676746            0.000551710267           
       1.551224              0.0112439373            0.000523704976           
       1.553864               0.010995644            0.000547247942           
       1.556505              0.0115057275             0.00054077874           
       1.559145              0.0112347086             0.00054091773           
       1.561786             0.00988126426            0.000507681004           
       1.564426              0.0109272357            0.000517269555           
       1.567066               0.010867059            0.000540504712           
       1.569707             0.00958245455            0.000498436276           
       1.572347              0.0110430089            0.000552786364           
       1.574988             0.00959919672            0.000490559296           
       1.577628              0.0100478112            0.000523349032           
       1.580268              0.0105786142             0.00052029077           
       1.582909             0.00919232267            0.000514083819           
       1.585549             0.00940313452            0.000504850235           
       1.588189             0.00982819234            0.000504869869           
       1.590830              0.0103390073            0.000517173925           
       1.593470             0.00918575363            0.000506779628           
       1.596111             0.00920146304            0.000495197249           
       1.598751             0.00968948547            0.000492389625           
       1.601391               0.010555585            0.000525263535           
       1.604032             0.00969581439            0.000513941451           
       1.606672             0.00912313548            0.000484371748           
       1.609312              0.0098007402            0.000524068463           
       1.611953             0.00818615538            0.000468691498           
       1.614593             0.00926959976            0.000489228242           
       1.617234             0.00968346616            0.000518219922           
       1.619874             0.00919439936            0.000502969205           
       1.622514             0.00949046322            0.000504032131           
       1.625155             0.00882477138            0.000488904791           
       1.627795             0.00916337275            0.000485989307           
       1.630436             0.00889463073            0.000476309579           
       1.633076             0.00941775125             0.00049654416           
       1.635716             0.00887878265            0.000474625001           
       1.638357             0.00898455571            0.000478702206           
       1.640997             0.00838780418            0.000476542465           
       1.643637             0.00973930465            0.000499694521           
       1.646278             0.00895696944             0.00049426146           
       1.648918              0.0100680947            0.000525451894           
       1.651559             0.00973029868            0.000520571223           
       1.654199             0.00965463843            0.000504328966           
       1.656839             0.00912451888            0.000490458724           
       1.659480              0.0089164784            0.000503041685           
       1.662120             0.00994963068             0.00050047884           
       1.664761             0.00954393783            0.000509159304           
       1.667401              0.0092806639            0.000479888142           
       1.670041             0.00854384581            0.000467465139           
       1.672682              0.0093842019            0.000487901885           
       1.675322             0.00919775806             0.00047992467           
       1.677962             0.00882079691            0.000464802602           
       1.680603             0.00897573582            0.000470309823           
       1.683243             0.00928233814            0.000498990801           
       1.685884             0.00815499472            0.000471162821           
       1.688524             0.00929482668            0.000493290383           
       1.691164             0.00771730206            0.000449586553           
       1.693805             0.00899405706            0.000490685545           
       1.696445             0.00969450636            0.000512389516           
       1.699085              0.0092015833            0.000482466183           
       1.701726             0.00852143968            0.000447265201           
       1.704366             0.00951608394            0.000497921631           
       1.707007             0.00944720554            0.000485057385           
       1.709647             0.00863361841            0.000468937433           
       1.712287             0.00922369421            0.000488916589           
       1.714928             0.00864533788            0.000477156462           
       1.717568             0.00867917825            0.000450362126           
       1.720209             0.00892279176            0.000478297608           
       1.722849             0.00844331473             0.00046287722           
       1.725489             0.00896635582             0.00047739935           
       1.728130             0.00837975635             0.00049046531           
       1.730770              0.0086405843            0.000473004074           
       1.733410             0.00893226958            0.000473361928           
       1.736051             0.00828988442            0.000459197027           
       1.738691             0.00924506278            0.000475100617           
       1.741332             0.00838511289            0.000465695511           
       1.743972             0.00869581861            0.000489738578           
       1.746612             0.00897656646            0.000477805068           
       1.749253             0.00869799755            0.000479621115           
       1.751893             0.00835973046            0.000466750976           
       1.754533              0.0090728307            0.000485796891           
       1.757174             0.00942289547            0.000490443979           
       1.759814             0.00876038657            0.000465720537           
       1.762455             0.00807715777            0.000455402355           
       1.765095             0.00868821558            0.000451826248           
       1.767735             0.00866483605            0.000465137984           
       1.770376             0.00865700482            0.000466153419           
       1.773016             0.00859153672            0.000461276852           
       1.775657             0.00822505604            0.000444837479           
       1.778297             0.00833902725            0.000444051956           
       1.780937             0.00854010768              0.0004743139           
       1.783578              0.0095766483            0.000489715305           
       1.786218             0.00800745912             0.00046732849           
       1.788858             0.00853545275            0.000458248929           
       1.791499             0.00782415692            0.000433812267           
       1.794139             0.00859064896            0.000450877077           
       1.796780             0.00935063262            0.000468130471           
       1.799420             0.00954572792            0.000470369593           
       1.802060             0.00833182805             0.00044299487           
       1.804701             0.00863447274            0.000432770144           
       1.807341             0.00956205943            0.000478550669           
       1.809981             0.00948016594            0.000478085669           
       1.812622             0.00883775142            0.000453292675           
       1.815262             0.00790043155            0.000437685353           
       1.817903             0.00847367157            0.000446569836           
       1.820543             0.00843880607            0.000452594403           
       1.823183             0.00831840989            0.000449107197           
       1.825824             0.00908387189            0.000448365492           
       1.828464             0.00860414145            0.000454929945           
       1.831105             0.00820337653            0.000431927295           
       1.833745             0.00801161733            0.000435965358           
       1.836385             0.00846908177            0.000461031474           
       1.839026             0.00830513433            0.000455104824           
       1.841666             0.00806275169             0.00044682456           
       1.844306             0.00891374297            0.000456994362           
       1.846947             0.00829265257            0.000444649539           
       1.849587             0.00903533162            0.000512516186           
       1.852228             0.00779070257            0.000430339604           
       1.854868             0.00881318051            0.000483501735           
       1.857508             0.00745860895            0.000440433234           
       1.860149              0.0091169347            0.000495787157           
       1.862789             0.00830715535             0.00045680242           
       1.865429             0.00741004734            0.000450349379           
       1.868070             0.00889530916            0.000486846774           
       1.870710              0.0076657199            0.000441528301           
       1.873351             0.00864082886            0.000474565028           
       1.875991             0.00898988115            0.000491955211           
       1.878631             0.00855977991            0.000470848843           
       1.881272             0.00714930095            0.000427427353           
       1.883912             0.00846455786            0.000484018579           
       1.886553             0.00782361278            0.000460130268           
       1.889193             0.00797510139            0.000463769878           
       1.891833             0.00815931914            0.000487174109           
       1.894474             0.00771303085             0.00046953821           
       1.897114             0.00813412665            0.000466600547           
       1.899754             0.00836027169            0.000475021544           
       1.902395             0.00782272069            0.000450512601           
       1.905035             0.00784386675            0.000477812848           
       1.907676             0.00834377873            0.000464469098           
       1.910316             0.00874755609            0.000488202088           
       1.912956             0.00841036379            0.000468168788           
       1.915597             0.00716095229            0.000434411097           
       1.918237             0.00826374698            0.000481950061           
       1.920878              0.0078000144            0.000466315379           
       1.923518             0.00823492594            0.000479342698           
       1.926158             0.00782347046            0.000461151357           
       1.928799             0.00814682156            0.000465137623           
       1.931439             0.00776807819            0.000466110016           
       1.934079             0.00856851293            0.000510328924           
       1.936720             0.00829879739             0.00046533324           
       1.939360             0.00783612769            0.000482408449           
       1.942001             0.00823021337             0.00045313379           
       1.944641             0.00834681668             0.00046532116           
       1.947281             0.00746211989             0.00043591499           
       1.949922             0.00748996601            0.000451100956           
       1.952562             0.00754113769            0.000466827562           
       1.955202             0.00789097387            0.000476950868           
       1.957843             0.00792916318            0.000465705003           
       1.960483             0.00809708255            0.000492022529           
       1.963124             0.00748598514            0.000463385871           
       1.965764              0.0070026435            0.000422643223           
       1.968404             0.00775159887            0.000440469311           
       1.971045             0.00759309542            0.000444466535           
       1.973685             0.00784816813            0.000473978202           
       1.976326             0.00753409841            0.000458014937           
       1.978966             0.00779247741            0.000469890268           
       1.981606             0.00779363853            0.000479725868           
       1.984247             0.00680981864            0.000445477812           
       1.986887             0.00790281646            0.000474149723           
       1.989527             0.00731061514            0.000451127252           
       1.992168             0.00742235292            0.000471646356           
       1.994808             0.00715469416            0.000461079252           
       1.997449             0.00712129181             0.00045055486           
       2.000089              0.0079510116            0.000474192001           
       2.002729             0.00736234001            0.000456574087           
       2.005370             0.00804979727            0.000472277874           
       2.008010              0.0072372176            0.000467350864           
       2.010650             0.00682533986            0.000457243962           
       2.013291             0.00766740764            0.000464975468           
       2.015931              0.0080272891            0.000472399394           
       2.018572             0.00775518053            0.000496638088           
       2.021212             0.00846482632             0.00050954119           
       2.023852             0.00773720844            0.000461064222           
       2.026493             0.00685875958            0.000453497062           
       2.029133             0.00799694419            0.000479827158           
       2.031774             0.00764453752            0.000492347399           
       2.034414              0.0072722819            0.000441860106           
       2.037054             0.00821539969              0.0004815424           
       2.039695             0.00839992619            0.000483242847           
       2.042335             0.00713362752            0.000462796658           
       2.044975             0.00750392463            0.000468899999           
       2.047616             0.00790717978            0.000480138631           
       2.050256             0.00768757168            0.000477904455           
       2.052897             0.00674016046            0.000455737926           
       2.055537             0.00767000115            0.000469853583           
       2.058177             0.00739261735            0.000451716794           
       2.060818             0.00762372222            0.000480548027           
       2.063458             0.00765482183            0.000501799157           
       2.066098             0.00811455662            0.000487372166           
       2.068739             0.00726374997            0.000468282047           
       2.071379             0.00743010443            0.000485965996           
       2.074020             0.00805452916            0.000494978121           
       2.076660             0.00782132763            0.000491703007           
       2.079300              0.0082452967            0.000517223898           
       2.081941              0.0072653857            0.000444546467           
       2.084581             0.00647473999             0.00044295667           
       2.087222             0.00732329667            0.000454320765           
       2.089862             0.00782019093            0.000511336364           
       2.092502             0.00802257725            0.000502040569           
       2.095143             0.00733765513            0.000495807935           
       2.097783             0.00789342364            0.000497872797           
       2.100423             0.00712222444            0.000455708078           
       2.103064             0.00818525576            0.000506919947           
       2.105704             0.00732726199            0.000477240834           
       2.108345             0.00795161821            0.000477635969           
       2.110985             0.00759686061            0.000498639893           
       2.113625             0.00686493185            0.000478147034           
       2.116266             0.00732953732            0.000501071781           
       2.118906             0.00772575972            0.000479426536           
       2.121546              0.0064912365            0.000431065222           
       2.124187             0.00670708511            0.000459946922           
       2.126827             0.00773521301              0.0004994559           
       2.129468             0.00797840337            0.000508542113           
       2.132108             0.00786191735            0.000491147613           
       2.134748             0.00784188857             0.00048861848           
       2.137389             0.00788355299            0.000511102818           
       2.140029              0.0067263215            0.000422654767           
       2.142670             0.00731569382            0.000471074165           
       2.145310             0.00724146676            0.000456172934           
       2.147950             0.00794150648            0.000491697574           
       2.150591             0.00819051396            0.000494300284           
       2.153231             0.00714597457            0.000475255089           
       2.155871             0.00654210109            0.000439300494           
       2.158512             0.00716642729            0.000479752621           
       2.161152             0.00756508073            0.000477469053           
       2.163793             0.00699260777            0.000456981338           
       2.166433             0.00747671651            0.000485244063           
       2.169073             0.00683614841            0.000453661985           
       2.171714             0.00762499411            0.000475540653           
       2.174354             0.00771063454            0.000499678718           
       2.176995              0.0076790925            0.000496557425           
       2.179635             0.00769752871            0.000525349274           
       2.182275             0.00683065713            0.000467249354           
       2.184916             0.00794219888            0.000486638624           
       2.187556             0.00713150902            0.000456511882           
       2.190196             0.00804672095            0.000506735733           
       2.192837             0.00688347055            0.000466129318           
       2.195477             0.00700215725            0.000448213792           
       2.198118             0.00733129191            0.000470378564           
       2.200758             0.00708209689            0.000474307361           
       2.203398             0.00749900676            0.000491190876           
       2.206039             0.00720909167            0.000455795952           
       2.208679             0.00743228755            0.000473568562           
       2.211319             0.00661180242            0.000449240076           
       2.213960             0.00851045283             0.00051650565           
       2.216600             0.00725856466            0.000493452383           
       2.219241             0.00736500069            0.000475052264           
       2.221881             0.00767215365            0.000485853863           
       2.224521             0.00819590621            0.000508317358           
       2.227162             0.00765731202            0.000481493912           
       2.229802             0.00689600557            0.000471235632           
       2.232443             0.00648659552            0.000449824437           
       2.235083             0.00727152931            0.000490312216           
       2.237723             0.00791621362            0.000490940969           
       2.240364             0.00736068856            0.000485064227           
       2.243004             0.00735736643            0.000481083596           
       2.245644             0.00581755403             0.00043207088           
       2.248285             0.00706088279            0.000466472188           
       2.250925             0.00744924363            0.000482039389           
       2.253566             0.00705675766            0.000501577267           
       2.256206             0.00748083885            0.000506102698           
       2.258846             0.00728916555             0.00047523589           
       2.261487             0.00759652168            0.000509211899           
       2.264127             0.00669211705            0.000461586396           
       2.266767              0.0078916386              0.0005146052           
       2.269408             0.00694699667            0.000484801479           
       2.272048              0.0081309263            0.000521357082           
       2.274689             0.00683955226            0.000484466928           
       2.277329             0.00693093969            0.000459194217           
       2.279969             0.00718795092             0.00049776597           
       2.282610             0.00830695343            0.000520227698           
       2.285250             0.00797764281            0.000487959163           
       2.287891              0.0076494232            0.000512290708           
       2.290531             0.00651409408            0.000479102394           
       2.293171             0.00702716126            0.000484719579           
       2.295812             0.00680033761            0.000474915785           
       2.298452             0.00714072897            0.000508913506           
       2.301092             0.00733610845            0.000479268323           
       2.303733             0.00714728803            0.000492147959           
       2.306373             0.00777892411            0.000521520045           
       2.309014             0.00684542339            0.000479684366           
       2.311654             0.00740146285            0.000520506783           
       2.314294             0.00674809401            0.000457889815           
       2.316935             0.00726799382            0.000477164641           
       2.319575             0.00749768996            0.000507796936           
       2.322215             0.00837654186            0.000559366937           
       2.324856             0.00679847915            0.000463311461           
       2.327496             0.00670733649            0.000489332142           
       2.330137             0.00666700292            0.000466844242           
       2.332777              0.0078541319            0.000522467586           
       2.335417             0.00792815355            0.000509254595           
       2.338058             0.00690160461            0.000489336146           
       2.340698             0.00734584017            0.000500871883           
       2.343339             0.00703409302            0.000500914249           
       2.345979             0.00708891642            0.000475747933           
       2.348619             0.00690804923            0.000486806591           
       2.351260             0.00762343263            0.000508412612           
       2.353900             0.00709055301            0.000488768431           
       2.356540             0.00745226117            0.000500368772           
       2.359181             0.00669098679            0.000467476278           
       2.361821             0.00698605718            0.000461419245           
       2.364462             0.00757899776            0.000502649502           
       2.367102             0.00779086209            0.000523722898           
       2.369742             0.00729428542            0.000533397263           
       2.372383             0.00743723007            0.000487699474           
       2.375023             0.00743714705            0.000512674967           
       2.377663             0.00740409994            0.000489102244           
       2.380304             0.00678664508            0.000476072088           
       2.382944             0.00681855762            0.000454508449           
       2.385585             0.00743607551            0.000506215545           
       2.388225             0.00767739788            0.000511947075           
       2.390865               0.007402366            0.000497529772           
       2.393506             0.00814001474            0.000511887639           
       2.396146             0.00735312454            0.000526044118           
       2.398787             0.00651467981            0.000456314908           
       2.401427             0.00798438537            0.000487606987           
       2.404067             0.00697440995            0.000465890279           
       2.406708             0.00672768223            0.000452088306           
       2.409348             0.00768352122            0.000512461759           
       2.411988             0.00659657805            0.000465231057           
       2.414629             0.00743822881            0.000509405189           
       2.417269             0.00757751535             0.00052015544           
       2.419910             0.00684839349            0.000495644941           
       2.422550             0.00633666233             0.00045614171           
       2.425190              0.0071619673            0.000511174648           
       2.427831             0.00797076443            0.000536234705           
       2.430471             0.00731330905            0.000489344762           
       2.433112             0.00736463535            0.000478174336           
       2.435752             0.00740811756             0.00050754947           
       2.438392             0.00777027334            0.000501720519           
       2.441033             0.00783425994            0.000533907728           
       2.443673             0.00702332329            0.000505908873           
       2.446313             0.00744673236            0.000521394667           
       2.448954              0.0074396876             0.00049620573           
       2.451594             0.00764702072            0.000540920468           
       2.454235             0.00768622994            0.000508820971           
       2.456875             0.00655412109            0.000491638651           
       2.459515             0.00795294766             0.00055558757           
       2.462156             0.00781622052            0.000520023444           
       2.464796             0.00809795338            0.000522483502           
       2.467436             0.00793543949            0.000534860226           
       2.470077             0.00737482552            0.000488715221           
       2.472717             0.00678759778            0.000470885425           
       2.475358             0.00855516333            0.000534166099           
       2.477998             0.00809399244            0.000510810204           
       2.480638             0.00700545811            0.000483666142           
       2.483279             0.00805753241            0.000542139415           
       2.485919             0.00815523032            0.000525633252           
       2.488560             0.00764737395            0.000507581395           
       2.491200             0.00644018773            0.000479650138           
       2.493840             0.00643428679            0.000507300087           
       2.496481             0.00673024037            0.000510348875           
       2.499121             0.00735292091            0.000518851107           
       2.501761             0.00781516497            0.000541998737           
       2.504402             0.00660353755            0.000490936928           
       2.507042             0.00765770412            0.000524756067           
       2.509683             0.00679857938            0.000486887337           
       2.512323             0.00663893192            0.000505313085           
       2.514963             0.00746072139            0.000529057592           
       2.517604             0.00726867554            0.000541866944           
       2.520244             0.00692566563            0.000495870075           
       2.522884              0.0082515965            0.000549000781           
       2.525525               0.012147268            0.000673666327           
       2.528165             0.00758256725            0.000523951037           
       2.530806             0.00843939888            0.000562396962           
       2.533446             0.00684633864            0.000495731268           
       2.536086             0.00783308472             0.00052550752           
       2.538727             0.00713933455            0.000481301886           
       2.541367             0.00667253755            0.000469884678           
       2.544008             0.00690947688               0.000493817           
       2.546648             0.00730020387            0.000516294024           
       2.549288             0.00747611043            0.000533123249           
       2.551929              0.0068743781            0.000503069497           
       2.554569             0.00727369906            0.000498543355           
       2.557209             0.00741661333            0.000508040514           
       2.559850             0.00679061164            0.000487688317           
       2.562490             0.00721880936            0.000519701218           
       2.565131              0.0072770037            0.000541017229           
       2.567771             0.00730225965            0.000522526238           
       2.570411             0.00683794562             0.00050017004           
       2.573052             0.00724093963            0.000521179707           
       2.575692               0.006511562            0.000491241173           
       2.578332             0.00755552848            0.000531345259           
       2.580973             0.00807764396            0.000544170239           
       2.583613             0.00771899435             0.00051928614           
       2.586254             0.00630261904            0.000468579099           
       2.588894             0.00698117335            0.000512121648           
       2.591534             0.00786165873            0.000562581049           
       2.594175             0.00669552941            0.000509385736           
       2.596815             0.00706587229            0.000526369114           
       2.599456             0.00699497217            0.000496642779           
       2.602096             0.00697084653            0.000499558667           
       2.604736             0.00757354416            0.000533053982           
       2.607377             0.00739234374            0.000512759952           
       2.610017             0.00727063408            0.000499622379           
       2.612657             0.00722525272            0.000529762638           
       2.615298             0.00725131834            0.000518147098           
       2.617938             0.00610129255            0.000508435126           
       2.620579             0.00752576317            0.000542083949           
       2.623219             0.00688418493             0.00051772367           
       2.625859             0.00705546855            0.000509596292           
       2.628500             0.00642485849            0.000483102309           
       2.631140             0.00689400208            0.000508140421           
       2.633780             0.00778321763            0.000539448413           
       2.636421             0.00784569603            0.000554928456           
       2.639061             0.00736660631            0.000506200172           
       2.641702             0.00716701294            0.000510854499           
       2.644342             0.00733920711            0.000519157683           
       2.646982             0.00713346157             0.00050417726           
       2.649623             0.00754496787            0.000543383481           
       2.652263              0.0075122237            0.000536762105           
       2.654904             0.00707744151            0.000521521756           
       2.657544             0.00711628491            0.000492565544           
       2.660184             0.00782074963            0.000546470524           
       2.662825             0.00702303444            0.000529865218           
       2.665465             0.00706965407             0.00051416503           
       2.668105             0.00800376312            0.000576642932           
       2.670746             0.00818514529            0.000538697282           
       2.673386             0.00774093557            0.000539895982           
       2.676027             0.00774089047            0.000531229489           
       2.678667               0.010293704            0.000597738347           
       2.681307               0.012638729            0.000650780722           
       2.683948              0.0138597372            0.000700200984           
       2.686588              0.0122633328            0.000647719428           
       2.689229             0.00942107404            0.000554750823           
       2.691869              0.0106455863            0.000623256287           
       2.694509             0.00893170969            0.000571199409           
       2.697150                0.00723848            0.000505871673           
       2.699790             0.00815638142            0.000562955883           
       2.702430             0.00699303645            0.000498266597           
       2.705071             0.00745866199            0.000531729199           
       2.707711             0.00707783467            0.000502735238           
       2.710352             0.00670128599            0.000516879304           
       2.712992             0.00673578026            0.000527789569           
       2.715632             0.00669382255            0.000488156485           
       2.718273              0.0063378559            0.000492273047           
       2.720913              0.0069934314            0.000515635211           
       2.723553             0.00705952584            0.000521542068           
       2.726194             0.00661300532            0.000527660119           
       2.728834             0.00725241788            0.000552840632           
       2.731475             0.00641433675             0.00047983825           
       2.734115             0.00734050643            0.000529243566           
       2.736755             0.00699133726            0.000520754058           
       2.739396              0.0082417662            0.000562133061           
       2.742036             0.00684744636            0.000536239602           
       2.744677             0.00686163466            0.000520839003           
       2.747317              0.0079544021            0.000556782455           
       2.749957              0.0072214981              0.0005342353           
       2.752598             0.00827806665            0.000578190833           
       2.755238             0.00781392822             0.00057188871           
       2.757878             0.00839649621            0.000587640911           
       2.760519             0.00918290732            0.000608027978           
       2.763159              0.0108437182            0.000654124979           
       2.765800              0.0085305309            0.000552898542           
       2.768440             0.00857776613            0.000558511585           
       2.771080             0.00845991833            0.000559291509           
       2.773721             0.00664406953            0.000508432515           
       2.776361             0.00740974931            0.000544337882           
       2.779001             0.00752923823            0.000568244076           
       2.781642             0.00625416874              0.0005140813           
       2.784282             0.00696286255            0.000551346157           
       2.786923              0.0062588049            0.000527330975           
       2.789563             0.00691960664            0.000534020011           
       2.792203             0.00702722545            0.000514093349           
       2.794844              0.0070840287            0.000565710551           
       2.797484             0.00727602579            0.000541079368           
       2.800125             0.00707594668            0.000561068075           
       2.802765             0.00683210432            0.000541831414           
       2.805405             0.00688333167            0.000545699706           
       2.808046             0.00675586856            0.000550127464           
       2.810686             0.00650060218            0.000495861144           
       2.813326             0.00595281254            0.000492883817           
       2.815967             0.00668040764             0.00053698344           
       2.818607             0.00778171416            0.000553057394           
       2.821248             0.00711837581             0.00051797852           
       2.823888             0.00628704195            0.000505303645           
       2.826528             0.00661329402            0.000501898197           
       2.829169             0.00692280297            0.000537871457           
       2.831809             0.00687077621              0.0005431352           
       2.834449             0.00721855279            0.000560229655           
       2.837090             0.00721770195            0.000541061105           
       2.839730             0.00683175667            0.000523826456           
       2.842371             0.00716902638            0.000537375256           
       2.845011             0.00653567248            0.000517178841           
       2.847651             0.00673020218            0.000525463696           
       2.850292             0.00757488492            0.000562934838           
       2.852932                0.00698045            0.000552172642           
       2.855573              0.0063185149            0.000509594862           
       2.858213             0.00689146642            0.000558872595           
       2.860853              0.0067804536            0.000515675602           
       2.863494             0.00730541586            0.000554193291           
       2.866134             0.00670751261            0.000551940477           
       2.868774             0.00697320767            0.000553083551           
       2.871415             0.00587515767            0.000515580912           
       2.874055             0.00644226896            0.000516069144           
       2.876696             0.00645868078            0.000530702789           
       2.879336             0.00723285581             0.00054128348           
       2.881976             0.00694033042            0.000546890209           
       2.884617             0.00756639313            0.000562637856           
       2.887257             0.00697237808            0.000542888741           
       2.889897             0.00717593622            0.000539421418           
       2.892538             0.00691327839            0.000580022381           
       2.895178             0.00607464368             0.00049120102           
       2.897819             0.00634928846            0.000512273916           
       2.900459             0.00687182269            0.000522569466           
       2.903099             0.00606385269            0.000485863164           
       2.905740             0.00660635407            0.000520252102           
       2.908380               0.006783264            0.000533161829           
       2.911021             0.00731668257            0.000562731127           
       2.913661             0.00708726465            0.000553672591           
       2.916301             0.00693475746             0.00054820539           
       2.918942             0.00654736664            0.000509515187           
       2.921582             0.00511641743             0.00047125728           
       2.924222             0.00667983458            0.000521669578           
       2.926863             0.00774491069            0.000585097532           
       2.929503             0.00673921131            0.000552254965           
       2.932144             0.00763150696            0.000564135995           
       2.934784             0.00790941848            0.000564898889           
       2.937424             0.00705043179            0.000538818358           
       2.940065             0.00618396959            0.000481363949           
       2.942705             0.00778238409            0.000539325577           
       2.945346             0.00712331531            0.000547589023           
       2.947986             0.00626456454            0.000523614777           
       2.950626             0.00753471688            0.000571015342           
       2.953267             0.00746238482            0.000559086215           
       2.955907              0.0066266406            0.000546534077           
       2.958547             0.00730428368            0.000541695153           
       2.961188             0.00555089281            0.000492660913           
       2.963828             0.00803188608             0.00057969078           
       2.966469             0.00665080493            0.000517478372           
       2.969109             0.00688031542            0.000534129794           
       2.971749             0.00675251835            0.000525845004           
       2.974390              0.0076001587            0.000548213389           
       2.977030             0.00803206055            0.000576169997           
       2.979670             0.00770345247            0.000548852244           
       2.982311             0.00877152598            0.000607013766           
       2.984951             0.00851803289            0.000568920145           
       2.987592             0.00727780575            0.000536407051           
       2.990232              0.0084703688            0.000601830577           
       2.992872              0.0080420922            0.000552373023           
       2.995513              0.0083213266            0.000549704402           
       2.998153             0.00989999203            0.000609658221           
       3.000794              0.0104587461             0.00060695223           
       3.003434              0.0113389631            0.000632931352           
       3.006074              0.0465921683             0.00126501682           
       3.008715               0.121901729             0.00197520958           
       3.011355               0.184533766             0.00234352026           
       3.013995              0.0986715069              0.0017183304           
       3.016636              0.0628582659             0.00134301163           
       3.019276               0.128884034             0.00189035192           
       3.021917               0.485640833             0.00352835188           
       3.024557                1.63464187             0.00636437237           
       3.027197                1.15266194              0.0052104642           
       3.029838               0.510735179             0.00351755038           
       3.032478               0.257321202             0.00249931838           
       3.035118              0.0708831777             0.00132936173           
       3.037759              0.0960567212             0.00154552048           
       3.040399               0.133599872             0.00188015504           
       3.043040               0.528178517             0.00378418146           
       3.045680               0.394278763             0.00307614948           
       3.048320              0.0895436843             0.00149785712           
       3.050961               0.103634214             0.00163979751           
       3.053601              0.0845553242             0.00142656013           
       3.056242              0.0553474814              0.0012271244           
       3.058882              0.0469819031             0.00121278686           
       3.061522              0.0359421527             0.00104074181           
       3.064163              0.0410399625             0.00109809751           
       3.066803              0.0988747833             0.00179440204           
       3.069443              0.0986878184             0.00187562836           
       3.072084              0.0564876558             0.00138175716           
       3.074724              0.0421324863              0.0013326861           
       3.077365              0.0832571873             0.00193929455           
       3.080005               0.017118333            0.000884336647           
       3.082645             0.00911572444            0.000677935225           
       3.085286              0.0128394526            0.000810921562           
       3.087926             0.00973603801            0.000700707202           
       3.090566             0.00981815343            0.000689447013           
       3.093207              0.0108827791            0.000755337711           
       3.095847             0.00846303536            0.000638439148           
       3.098488             0.00894776447            0.000727910896           
       3.101128              0.0115124945            0.000830978346           
       3.103768              0.0094634684            0.000739233605           
       3.106409             0.00719060834            0.000685789384           
       3.109049             0.00877905743            0.000727185096           
       3.111690             0.00767455495            0.000668232225           
       3.114330             0.00732019789            0.000666506211           
       3.116970             0.00610501445            0.000613348829           
       3.119611              0.0123561357            0.000928804437           
       3.122251              0.0208693565             0.00126265034           
       3.124891              0.0365241299             0.00168595164           
       3.127532               0.024690648             0.00135609313           
       3.130172              0.0141287674             0.00104355575           
       3.132813             0.00877666692            0.000809708751           
       3.135453             0.00740023715            0.000737385614           
       3.138093              0.0071696085            0.000786434686           
       3.140734             0.00645806554            0.000688602794           
       3.143374             0.00977127726            0.000895759782           
       3.146014             0.00713040112            0.000823768731           
       3.148655             0.00566065362            0.000682298268           
       3.151295             0.00605819965            0.000752194114           
       3.153936             0.00496376368            0.000657699114           
       3.156576             0.00685110089            0.000762173871           
       3.159216             0.00711496154            0.000780597205           
       3.161857             0.00593272404            0.000709899218           
       3.164497             0.00824791995            0.000879479003           
       3.167138             0.00930001195            0.000964934706           
       3.169778             0.00560219867            0.000736569312           
       3.172418             0.00691446196            0.000809978452           
       3.175059             0.00662965072            0.000703135575           
       3.177699             0.00641710905            0.000732545506           
       3.180339             0.00710106209            0.000825633486           
       3.182980             0.00563620397            0.000760495857           
       3.185620             0.00640060845            0.000825351349           
       3.188261             0.00683405801            0.000868059256           
       3.190901             0.00521047732            0.000697107246           
       3.193541             0.00502266873            0.000719169331           
       3.196182              0.0057049923            0.000798764814           
       3.198822             0.00659225386            0.000858922336           
       3.201463             0.00594640075            0.000801708585           
       3.204103             0.00703982341             0.00086700172           
       3.206743             0.00491231226            0.000724171276           
       3.209384             0.00635223943            0.000889717622           
       3.212024             0.00573222452            0.000787974919           
       3.214664             0.00447875156            0.000792034624           
       3.217305             0.00619461167            0.000885434423           
       3.219945             0.00645013154            0.000929946454           
       3.222586             0.00534127691            0.000806034466           
       3.225226             0.00554728359            0.000911250082           
       3.227866             0.00560904536            0.000837497066           
       3.230507             0.00522480384            0.000837893604           
       3.233147             0.00492481043            0.000820052056           
       3.235787             0.00555722323            0.000891477545           
       3.238428             0.00631716566             0.00102568734           
       3.241068             0.00581406955            0.000920086515           
       3.243709             0.00576668488             0.00094671396           
       3.246349             0.00505407305            0.000807937047           
       3.248989             0.00592334285             0.00103278091           
       3.251630             0.00652169822             0.00104356403           
       3.254270              0.0064045517            0.000924248793           
       3.256911             0.00522419587            0.000910800319           
       3.259551               0.005703856              0.0010245844           
       3.262191             0.00612101753             0.00108415758           
       3.264832             0.00607303172             0.00112833327           
       3.267472             0.00551587234             0.00100877507           
       3.270112             0.00697670523             0.00125378995           
       3.272753             0.00679376391             0.00113247757           
       3.275393              0.0041148454            0.000899289703           
       3.278034             0.00605523136             0.00109152244           
       3.280674             0.00485883983              0.0010610086           
       3.283314             0.00668219117             0.00111281168           
       3.285955             0.00614855652             0.00110137724           
       3.288595              0.0076014313             0.00136242259           
       3.291235             0.00569028863             0.00121177168           
       3.293876             0.00636369145             0.00129988391           
       3.296516             0.00832693054             0.00142749258           
       3.299157             0.00670251302             0.00126461601           
       3.301797             0.00495566622             0.00124038505           
       3.304437              0.0063031488              0.0012119736           
       3.307078             0.00505229136             0.00119527369           
       3.309718             0.00510273048             0.00123988037           
       3.312359             0.00663460211             0.00141412911           
       3.314999             0.00581800521             0.00130382858           
       3.317639              0.0045437503              0.0011019702           
       3.320280             0.00634577888             0.00138459468           
       3.322920             0.00499650664             0.00124928691           
       3.325560              0.0043352428             0.00116447621           
       3.328201             0.00656987061             0.00129105325           
       3.330841             0.00449206233             0.00129927632           
       3.333482             0.00603561969             0.00142356358           
       3.336122             0.00401162215              0.0011611158           
       3.338762              0.0053419248             0.00154776359           
       3.341403             0.00612451898              0.0015835822           
       3.344043             0.00376660911             0.00119230794           
       3.346683             0.00547149467             0.00146709155           
       3.349324              0.0054810044             0.00165092644           
       3.351964             0.00439910343             0.00156402896           
       3.354605             0.00584606467              0.0020620003           
       3.357245             0.00408697439             0.00155530523           
       3.359885             0.00569725429             0.00146971474           
       3.362526             0.00235502467                0.00118167           
       3.365166             0.00370366839             0.00139770449           
       3.367807             0.00341692918             0.00171813903           
       3.370447             0.00473662957             0.00167802586           
       3.373087             0.00403674373             0.00165655853           
       3.375728             0.00686734566             0.00243851189           
       3.378368             0.00574485442             0.00331009026           
       3.381008             0.00310852584             0.00181533048           
       3.383649             0.00611114985             0.00204185259           
       3.386289               0.010498827             0.00316747977           
       3.388930             0.00947119888             0.00475871015           
       3.391570             0.00946031244             0.00336435645           
       3.394210             0.00575320979             0.00332027715           
       3.396851           -2.56184274e-05                         0           
       3.399491             0.00917263919             0.00469096588           
       3.402131             0.00474216142             0.00477199274           
       3.404772           -2.56666502e-05                         0           
       3.407412                       nan                       nan           
       3.410053           -2.57298673e-05                         0           
       3.412693                       nan                       nan           
       3.415333             0.00873467853             0.00918128766           
