################################################################################
# EDF_DataBlockID                     0.Image.Psd
# EDF_BinarySize                      2105344
# EDF_HeaderSize                      2560
# ByteOrder                           LowByteFirst
# DataType                            FloatValue
# Dim_1                               512
# Dim_2                               1028
# Image                               0
# HeaderID                            EH:000000:000000:000000
# Size                                2105344
# Center_1                            304.9000
# Center_2                            588.7000
# Comment                             Xenocs_Cell_Window - 20251028_20perc_iodine_1.23mg
# DDummy                              0.6
# Date                                2025-10-29T02:56:01
# Delta                               21.910000
# Dummy                               -1.5
# ExposureTime                        360
# Gamma                               15.360000
# Intensity1                          8.47848e-10
# PSize_1                             7.5e-05
# PSize_2                             7.5e-05
# Pressure                            0.0335598
# SampleDistance                      0.115750
# SampleEnvKind                       large
# SampleEnvPN                         ElectroChemical cell
# SampleEnvSN                         1141
# Thickness                           0
# Wavelength                          1.541891e-10
# Wavelength                          1.54189e-10
# aux                                 0
# aux_dial                            0.002375
# beamx                               588.434
# beamx_dial                          588.434
# beamz                               657.808
# beamz_dial                          657.808
# det0x                               0
# det0x_dial                          6.36945
# det0xvd                             0
# det0xvd_dial                        0
# det0y                               450.002
# det0y_dial                          481.635
# det0z                               0
# det0z_dial                          1.23302
# det0zvd                             0
# det0zvd_dial                        0
# mag                                 1.818
# mag_dial                            1.818
# om                                  0.2499
# om_dial                             -0.610199
# phi                                 -0.0120535
# phi_dial                            0
# ry                                  0.599993
# ry_dial                             0.599993
# s1bot                               0.8
# s1bot_dial                          -1.66094
# s1hl                                0.8
# s1hl_dial                           -0.608437
# s1hr                                0.8
# s1hr_dial                           0.970938
# s1top                               0.8
# s1top_dial                          -0.461562
# s2bot                               0.45
# s2bot_dial                          1.36109
# s2hl                                0.45
# s2hl_dial                           -0.83375
# s2hr                                0.45
# s2hr_dial                           -0.118594
# s2top                               0.45
# s2top_dial                          1.44734
# w2theta                             32
# w2theta_dial                        32
# waxsch                              19.2605
# waxsch_dial                         -32.7355
# waxsh                               137.085
# waxsh_dial                          -43.5338
# waxsth                              26.0607
# waxsth_dial                         -19.4086
# waxsz                               67.0407
# waxsz_dial                          -23.7954
# wind                                65.9854
# wind_dial                           66.0041
# wpsi                                124
# wpsi_dial                           124
# wstod                               115
# wstod_dial                          115
# x                                   0
# x_dial                              1.00969
# z                                   0
# z_dial                              13.3172
# CountCutoff                         6807993
# DetectorModel                       Dectris EIGER2 Si 500K, S/N E-01-0554
# ThresholdSetting                    4023.88989258
# Saturation                          0
# FlatField                           Corrected
# BackgroundReductionExtra            0.02
# BackgroundCorrectionConstant        0.0026712
# Detector                            0
# Monitor                             0
# Pil_Roi0                            0
# SumForIntensity1                    3.05225e+08
# TransmittedFlux                     847848
# det                                 0
# mon                                 0
# pilai0                              3.05225e+08
# pilai1                              769499
# pilct0                              5.29025e+08
# pilct1                              769499
# pilroi0                             0
# pilroi1                             0
# sec                                 1
# title                               20251028_20perc_iodine_1.23mg_1_00114.edf
# usaxs0                              0
# Operation                           Azimuthal average I(q)
# Error_model                         ErrorModel.poisson
# Geometrical_correction              True
# Transmission_correction             True
# Thickness_correction                False
# Binning mode                        Uniform
# Binning factor                      1.0
# Psi                                 0.0
# Omega                               0.2499
# MaskInvalidPixels                   True
# DetectorEdge                        3
# MaskFiles                           ['WAXS_corrected.edf']
################################################################################
    q(A⁻¹)                Intensity(a.u.)            Sigma_I(a.u.)            
       0.693100              0.0125314625             0.00749472923           
       0.695741             0.00563201831             0.00410010347           
       0.698381             -2.392697e-05                         0           
       0.701021              0.0178050657              0.0126240766           
       0.703662              0.0086452711             0.00507757796           
       0.706302              0.0103078083              0.0042924734           
       0.708942             0.00864537887             0.00507384875           
       0.711583             0.00220565917             0.00221922071           
       0.714223             0.00884582009             0.00513097934           
       0.716864             0.00381622623             0.00220505312           
       0.719504             0.00294336124             0.00208973703           
       0.722144             0.00253436615             0.00179577265           
       0.724785             0.00801471974             0.00254737127           
       0.727425             0.00446969347             0.00257351672           
       0.730065              0.0117397867             0.00295025425           
       0.732706             0.00459633773             0.00155018686           
       0.735346             0.00443094696             0.00198404022           
       0.737987             0.00575064215             0.00159719315           
       0.740627             0.00580718815             0.00239479697           
       0.743267             0.00611369311             0.00164581012           
       0.745908             0.00628745044             0.00181081433           
       0.748548              0.0105760488             0.00216477514           
       0.751189             0.00563754788             0.00212967199           
       0.753829             0.00476058748             0.00179896609           
       0.756469             0.00571497614             0.00158940019           
       0.759110              0.0102920949             0.00224775243           
       0.761750             0.00960214706             0.00191973563           
       0.764390             0.00666567695             0.00167411329           
       0.767031             0.00726386966              0.0015133727           
       0.769671              0.0108452698             0.00230672964           
       0.772312              0.0082384093             0.00153055715           
       0.774952             0.00826945147             0.00207074172           
       0.777592             0.00686888391             0.00137463647           
       0.780233             0.00838434429             0.00183232748           
       0.782873             0.00880042788             0.00179540764           
       0.785513             0.00714471218             0.00172944725           
       0.788154             0.00526516913             0.00124195249           
       0.790794             0.00920718936             0.00196345699           
       0.793435             0.00674664805             0.00150991361           
       0.796075             0.00435300209             0.00116833846           
       0.798715             0.00653523057             0.00169167698           
       0.801356             0.00837778477             0.00164849447           
       0.803996             0.00572253198             0.00138902392           
       0.806637             0.00681354843             0.00120618661           
       0.809277             0.00773717312             0.00139123445           
       0.811917             0.00673701099             0.00121361362           
       0.814558             0.00657696033              0.0012462618           
       0.817198             0.00744203806             0.00125946949           
       0.819838              0.0104517181             0.00151059404           
       0.822479             0.00695666922             0.00144718382           
       0.825119             0.00677167107             0.00121524732           
       0.827760              0.0067282868             0.00122704878           
       0.830400             0.00850595317             0.00129851293           
       0.833040             0.00738532616             0.00126766146           
       0.835681             0.00646170666              0.0013479915           
       0.838321             0.00811407001             0.00126784636           
       0.840961             0.00891144366             0.00144766234           
       0.843602              0.0102455129              0.0014234715           
       0.846242             0.00689703236             0.00116774569           
       0.848883             0.00683110853             0.00118929477           
       0.851523             0.00684771954             0.00117594868           
       0.854163             0.00662310931             0.00122988788           
       0.856804             0.00442430165            0.000903821903           
       0.859444             0.00920240596              0.0012771786           
       0.862085             0.00636157867             0.00110676502           
       0.864725               0.009091429             0.00135404501           
       0.867365             0.00659629912             0.00106950568           
       0.870006             0.00864537017             0.00116676288           
       0.872646             0.00466897321            0.000899139861           
       0.875286              0.0057604672             0.00096083413           
       0.877927             0.00896714754             0.00115678608           
       0.880567              0.0080254078             0.00113377721           
       0.883208               0.006114418             0.00098030427           
       0.885848             0.00468558602            0.000891022201           
       0.888488                0.00699816             0.00102134569           
       0.891129             0.00736082324             0.00107553911           
       0.893769             0.00761465627             0.00104691616           
       0.896410             0.00596836636            0.000864158991           
       0.899050             0.00680027581             0.00101441232           
       0.901690             0.00663778588             0.00109170831           
       0.904331             0.00805315263             0.00106606497           
       0.906971             0.00750790448              0.0010950513           
       0.909611             0.00740097764            0.000989723214           
       0.912252             0.00591007616            0.000913528108           
       0.914892             0.00858016653             0.00120284229           
       0.917533             0.00583313504             0.00093821269           
       0.920173              0.0101378962             0.00114757259           
       0.922813             0.00813057865             0.00107845691           
       0.925454             0.00824521414            0.000977942831           
       0.928094             0.00843018769             0.00105568246           
       0.930734             0.00595679464              0.0009553877           
       0.933375             0.00567759385            0.000923559713           
       0.936015               0.008421059             0.00102153748           
       0.938656             0.00670492179            0.000977849197           
       0.941296             0.00751014607            0.000937906165           
       0.943936             0.00843647541            0.000974836921           
       0.946577             0.00676058725            0.000866887885           
       0.949217              0.0084550429            0.000891503799           
       0.951858             0.00813494463            0.000915390667           
       0.954498             0.00745477339             0.00101428681           
       0.957138             0.00744807503            0.000960466131           
       0.959779             0.00818853598            0.000992772046           
       0.962419             0.00687276961            0.000903470275           
       0.965059             0.00707837554            0.000964322914           
       0.967700              0.0071551768            0.000993001675           
       0.970340             0.00678830813            0.000855884717           
       0.972981             0.00840868803            0.000867886102           
       0.975621              0.0077186177            0.000884585199           
       0.978261             0.00674947015            0.000785975002           
       0.980902             0.00847085105             0.00105349387           
       0.983542             0.00893875435            0.000958357438           
       0.986182             0.00764476508             0.00087014454           
       0.988823             0.00775761135            0.000851124989           
       0.991463             0.00722374797            0.000876259169           
       0.994104               0.007772112            0.000886655551           
       0.996744             0.00853308718            0.000947622296           
       0.999384             0.00843735586            0.000842723989           
       1.002025             0.00882791238            0.000962114554           
       1.004665             0.00710497424            0.000788799147           
       1.007306             0.00865775529            0.000866281747           
       1.009946             0.00974053461            0.000937105542           
       1.012586             0.00744327752            0.000797832847           
       1.015227             0.00898393627            0.000941659725           
       1.017867             0.00848930765            0.000879734127           
       1.020507             0.00711237011            0.000779979229           
       1.023148             0.00805575085            0.000895697425           
       1.025788             0.00719052069            0.000775926297           
       1.028429             0.00687931674            0.000795124557           
       1.031069             0.00790650629            0.000802162191           
       1.033709             0.00641686637            0.000768184689           
       1.036350             0.00844440981            0.000791464148           
       1.038990             0.00776535008            0.000772921584           
       1.041630              0.0072904022            0.000781122551           
       1.044271             0.00865047356            0.000800212628           
       1.046911             0.00671090639            0.000741374993           
       1.049552             0.00951561157            0.000927500606           
       1.052192             0.00814553612            0.000783586161           
       1.054832             0.00775663379            0.000771607457           
       1.057473             0.00753668503            0.000749780027           
       1.060113             0.00802153668            0.000754393942           
       1.062754             0.00865087449            0.000799866768           
       1.065394             0.00752106217             0.00078851221           
       1.068034              0.0077916901            0.000730231588           
       1.070675             0.00714306908            0.000729327633           
       1.073315             0.00866430187            0.000814756582           
       1.075955             0.00778996042            0.000729334924           
       1.078596             0.00802297284            0.000786645838           
       1.081236             0.00670804602            0.000688775971           
       1.083877             0.00882621053            0.000782985351           
       1.086517             0.00862583059            0.000830004193           
       1.089157             0.00713846151            0.000783460552           
       1.091798             0.00823344433            0.000737674499           
       1.094438             0.00957971636            0.000793133582           
       1.097078             0.00910209847            0.000741492737           
       1.099719             0.00934187436            0.000812533104           
       1.102359             0.00987342887            0.000782296491           
       1.105000             0.00819840357             0.00079711233           
       1.107640              0.0084952489            0.000775844511           
       1.110280             0.00924637697            0.000738531473           
       1.112921             0.00797165689            0.000736629686           
       1.115561             0.00985374504            0.000778376011           
       1.118202             0.00837760516            0.000718385828           
       1.120842             0.00896509829            0.000781053407           
       1.123482             0.00767907806            0.000719708706           
       1.126123              0.0087997527            0.000738978708           
       1.128763             0.00829954028            0.000722588773           
       1.131403             0.00863852062             0.00071035297           
       1.134044             0.00828543283            0.000715860694           
       1.136684              0.0099186647             0.00083507477           
       1.139325             0.00780377814            0.000682345942           
       1.141965             0.00893778918            0.000735070225           
       1.144605             0.00812491572            0.000668259675           
       1.147246             0.00941075165            0.000736036109           
       1.149886              0.0108115264            0.000786114861           
       1.152527             0.00916769569            0.000734416838           
       1.155167             0.00808841327              0.0006561366           
       1.157807             0.00825756879            0.000710813482           
       1.160448             0.00881773285            0.000717284851           
       1.163088             0.00976437858            0.000719974101           
       1.165728             0.00973836461            0.000738225671           
       1.168369             0.00859221976            0.000699830172           
       1.171009              0.0085696174            0.000678272317           
       1.173650             0.00795844635            0.000670788791           
       1.176290              0.0084706636             0.00067627703           
       1.178930             0.00933249757            0.000695714866           
       1.181571              0.0101335539            0.000739334833           
       1.184211              0.0106316059            0.000759970639           
       1.186851             0.00841882105            0.000661183841           
       1.189492             0.00953275147            0.000698834167           
       1.192132             0.00995355669            0.000706079833           
       1.194773             0.00913538955            0.000679393844           
       1.197413              0.0085808867             0.00063089029           
       1.200053             0.00857978295            0.000646878641           
       1.202694              0.0101405419            0.000668758981           
       1.205334             0.00972922738            0.000705945007           
       1.207975             0.00918630725            0.000654773271           
       1.210615              0.0100466652            0.000755394522           
       1.213255             0.00974219985            0.000666109779           
       1.215896             0.00986406949            0.000682407659           
       1.218536              0.0101361118            0.000665150844           
       1.221176             0.00991122078            0.000715088072           
       1.223817              0.0088092687            0.000632849666           
       1.226457             0.00973152631            0.000678552661           
       1.229098             0.00926444421            0.000662035997           
       1.231738              0.0102212998            0.000698806892           
       1.234378              0.0101425336            0.000654099173           
       1.237019             0.00931430987            0.000645936342           
       1.239659             0.00976917688            0.000655758076           
       1.242299             0.00891346169            0.000618421731           
       1.244940              0.0107398604            0.000660204478           
       1.247580              0.0100387028            0.000657809896           
       1.250221             0.00988009061            0.000648565753           
       1.252861             0.00982731114            0.000615786329           
       1.255501               0.009918793            0.000671731146           
       1.258142              0.0099891643            0.000633447116           
       1.260782              0.0106871385            0.000669380761           
       1.263423              0.0104549424            0.000636173535           
       1.266063              0.0103983979            0.000650293949           
       1.268703             0.00963309898            0.000620712761           
       1.271344              0.0110309278            0.000686733643           
       1.273984              0.0102719957            0.000640026779           
       1.276624              0.0105944939            0.000637785054           
       1.279265              0.0105474776            0.000646936188           
       1.281905              0.0104729328            0.000647507047           
       1.284546             0.00994201124            0.000609803722           
       1.287186             0.00993408695            0.000598043681           
       1.289826              0.0101504979            0.000637117409           
       1.292467              0.0114504541            0.000661781378           
       1.295107              0.0104162956            0.000624919616           
       1.297747              0.0091199573            0.000559549042           
       1.300388              0.0110346382            0.000670961493           
       1.303028              0.0103705641            0.000620966933           
       1.305669              0.0111036367            0.000657839068           
       1.308309             0.00959116167            0.000605375258           
       1.310949             0.00924408792            0.000593723752           
       1.313590              0.0101498103            0.000602683207           
       1.316230              0.0115999818            0.000687558594           
       1.318871               0.011038466            0.000656879063           
       1.321511              0.0111514407            0.000647994384           
       1.324151              0.0103373964            0.000605398576           
       1.326792               0.010370515            0.000610116384           
       1.329432              0.0104492135            0.000608105218           
       1.332072              0.0105314479             0.00060139518           
       1.334713              0.0107317228            0.000626573585           
       1.337353               0.011052177            0.000609802099           
       1.339994              0.0108072315             0.00063279559           
       1.342634              0.0102736464            0.000591641581           
       1.345274              0.0110447311            0.000634855476           
       1.347915              0.0112733195             0.00062367956           
       1.350555              0.0103321549            0.000607535113           
       1.353195              0.0113134335            0.000638853029           
       1.355836              0.0110384732            0.000621202061           
       1.358476              0.0101465361            0.000578394852           
       1.361117              0.0121616656            0.000634100005           
       1.363757              0.0107957069            0.000615671892           
       1.366397              0.0107947453            0.000597014326           
       1.369038              0.0106400902            0.000598624088           
       1.371678              0.0108420321             0.00059895078           
       1.374319              0.0120489345            0.000625971083           
       1.376959               0.010761611            0.000585637645           
       1.379599              0.0101933012            0.000610829292           
       1.382240              0.0111158277             0.00059950364           
       1.384880              0.0116044127            0.000648816126           
       1.387520             0.00984613104            0.000567601332           
       1.390161              0.0121045187            0.000597720479           
       1.392801              0.0109389875            0.000592025282           
       1.395442               0.011888814            0.000625622391           
       1.398082              0.0104972098            0.000550512937           
       1.400722              0.0110362253            0.000591269372           
       1.403363              0.0118214882            0.000644144668           
       1.406003              0.0109539435            0.000580291369           
       1.408644              0.0105152177            0.000595594921           
       1.411284              0.0109252936            0.000574867423           
       1.413924              0.0110651365            0.000576390074           
       1.416565              0.0111099543             0.00057528748           
       1.419205               0.011374465            0.000607218537           
       1.421845              0.0106394772             0.00058692768           
       1.424486               0.010038476            0.000548006355           
       1.427126              0.0105145718            0.000582615729           
       1.429767             0.00987013501            0.000531106326           
       1.432407              0.0104399645            0.000571634414           
       1.435047              0.0112285649            0.000556766804           
       1.437688              0.0127270747             0.00060161811           
       1.440328              0.0117588753            0.000590201452           
       1.442968              0.0112817306            0.000591055752           
       1.445609              0.0110540212            0.000566500752           
       1.448249              0.0121129788            0.000608029944           
       1.450890              0.0108091326            0.000570625267           
       1.453530              0.0112899332            0.000610121664           
       1.456170              0.0100519724             0.00055873058           
       1.458811              0.0103951521            0.000543313653           
       1.461451              0.0108874315            0.000557488205           
       1.464092              0.0112988087            0.000571635761           
       1.466732              0.0106700437            0.000550729109           
       1.469372              0.0110256906            0.000546730358           
       1.472013              0.0111525158            0.000593041259           
       1.474653              0.0112163853            0.000585562408           
       1.477293              0.0110931736            0.000594611063           
       1.479934              0.0111433252            0.000568664277           
       1.482574              0.0113212595             0.00055446834           
       1.485215              0.0103586505            0.000540250777           
       1.487855                0.01035361            0.000547244384           
       1.490495              0.0104708542            0.000548307323           
       1.493136             0.00968656925            0.000520144472           
       1.495776              0.0108873504            0.000548931423           
       1.498416              0.0111496219            0.000573678339           
       1.501057              0.0109737519             0.00055659295           
       1.503697              0.0101887453            0.000524334112           
       1.506338              0.0112164502            0.000560195893           
       1.508978               0.010222482            0.000529539374           
       1.511618              0.0104788571            0.000570984946           
       1.514259              0.0107327384            0.000557897196           
       1.516899              0.0105942275             0.00053969038           
       1.519540             0.00987475028            0.000529444627           
       1.522180              0.0110893654            0.000565990612           
       1.524820              0.0100513346            0.000535826624           
       1.527461              0.0108657456            0.000559866879           
       1.530101             0.00995988849            0.000530660757           
       1.532741              0.0103183734            0.000536991779           
       1.535382              0.0102764505            0.000544527117           
       1.538022               0.010068705            0.000507761844           
       1.540663              0.0106833997            0.000562552868           
       1.543303              0.0102583937            0.000511844244           
       1.545943              0.0107958589             0.00055576003           
       1.548584              0.0099238433            0.000542407105           
       1.551224              0.0104170546            0.000513817864           
       1.553864             0.00972698075            0.000524652884           
       1.556505              0.0104215519            0.000524611734           
       1.559145              0.0097199514            0.000512851455           
       1.561786              0.0103938241            0.000530739698           
       1.564426             0.00989273084            0.000501682664           
       1.567066             0.00916026678            0.000505832544           
       1.569707             0.00876868494            0.000486012822           
       1.572347              0.0103747373            0.000546149324           
       1.574988              0.0103158504            0.000518365174           
       1.577628             0.00981828836            0.000527330411           
       1.580268             0.00973461277            0.000508745181           
       1.582909             0.00969682578            0.000538202036           
       1.585549              0.0109567419            0.000555489928           
       1.588189               0.010019979            0.000519619297           
       1.590830             0.00960219195            0.000508032653           
       1.593470             0.00961013358            0.000528367017           
       1.596111             0.00968483257            0.000517851304           
       1.598751              0.0101109488            0.000512700481           
       1.601391             0.00985668332            0.000517381309           
       1.604032             0.00986147865            0.000528325721           
       1.606672             0.00857309239            0.000478613263           
       1.609312             0.00951153068            0.000526251115           
       1.611953             0.00958781343            0.000517030432           
       1.614593             0.00934113032            0.000500599001           
       1.617234             0.00894309937            0.000507635456           
       1.619874             0.00908951788             0.00050975251           
       1.622514             0.00989394006            0.000524575967           
       1.625155             0.00914236939            0.000507237296           
       1.627795              0.0095472039            0.000505645762           
       1.630436             0.00944930884            0.000500419945           
       1.633076             0.00820661062            0.000472471286           
       1.635716             0.00809344531             0.00046190201           
       1.638357             0.00908262338            0.000490605049           
       1.640997             0.00927403519             0.00051076493           
       1.643637             0.00814467996            0.000465786459           
       1.646278             0.00854124657            0.000491978435           
       1.648918             0.00889579954            0.000503455449           
       1.651559             0.00882315453            0.000505287144           
       1.654199              0.0089920862            0.000496118442           
       1.656839             0.00889122463            0.000493500393           
       1.659480             0.00900143932             0.00051519603           
       1.662120             0.00847529658            0.000470835204           
       1.664761             0.00934172416             0.00051346712           
       1.667401             0.00910528796            0.000484514271           
       1.670041             0.00802457909            0.000461788267           
       1.672682             0.00913996597              0.0004908122           
       1.675322             0.00953622856            0.000498115029           
       1.677962             0.00826529645            0.000458620107           
       1.680603              0.0090728406            0.000481980973           
       1.683243             0.00838908371            0.000483537706           
       1.685884             0.00799219572            0.000475446289           
       1.688524             0.00871048502            0.000486757223           
       1.691164             0.00940695764            0.000505957913           
       1.693805             0.00941079681             0.00051162043           
       1.696445             0.00821355503            0.000480742155           
       1.699085             0.00830707052            0.000467270948           
       1.701726             0.00916815598            0.000472888611           
       1.704366             0.00823698443            0.000472199169           
       1.707007             0.00869678895            0.000474384117           
       1.709647             0.00904883825            0.000489355106           
       1.712287             0.00877509524            0.000486090887           
       1.714928             0.00889835314            0.000493439462           
       1.717568             0.00910400867            0.000470162647           
       1.720209             0.00916237982            0.000494038973           
       1.722849             0.00846580083            0.000472446436           
       1.725489             0.00845762712            0.000472614825           
       1.728130             0.00874141866            0.000510614091           
       1.730770             0.00816245392            0.000468611489           
       1.733410             0.00865425687            0.000474937586           
       1.736051             0.00805088008            0.000461270567           
       1.738691              0.0083946322            0.000461467089           
       1.741332             0.00835419444            0.000473815342           
       1.743972             0.00902206861            0.000508477075           
       1.746612             0.00815979035            0.000464348836           
       1.749253             0.00804073173            0.000470051751           
       1.751893             0.00814940142            0.000469743941           
       1.754533             0.00888876494            0.000490132243           
       1.757174             0.00919810809            0.000493918973           
       1.759814             0.00821800826            0.000459786564           
       1.762455             0.00907061134            0.000491918894           
       1.765095             0.00826718394            0.000449256323           
       1.767735              0.0090740254            0.000485188906           
       1.770376              0.0078426926            0.000452258643           
       1.773016             0.00796833949             0.00045281352           
       1.775657             0.00864527276            0.000464868933           
       1.778297             0.00918255585            0.000474971023           
       1.780937             0.00796411713            0.000466887486           
       1.783578             0.00884875188            0.000479829728           
       1.786218              0.0084645581            0.000489763339           
       1.788858             0.00843574902            0.000464364742           
       1.791499             0.00830405548            0.000455551424           
       1.794139              0.0089508423            0.000469122602           
       1.796780             0.00964107332              0.0004845274           
       1.799420             0.00897225895            0.000464830747           
       1.802060             0.00966200802            0.000486263285           
       1.804701             0.00962585085            0.000465766426           
       1.807341             0.00945517367            0.000485060823           
       1.809981             0.00956701625            0.000489547962           
       1.812622             0.00920975277            0.000471673015           
       1.815262             0.00956689743            0.000490943371           
       1.817903             0.00937413806            0.000478771708           
       1.820543             0.00942751926            0.000487614515           
       1.823183             0.00962389004            0.000492395889           
       1.825824             0.00988853374            0.000476839106           
       1.828464             0.00986775118            0.000496602708           
       1.831105              0.0094497598            0.000472534961           
       1.833745             0.00773371227            0.000436611452           
       1.836385             0.00893536077            0.000482700438           
       1.839026             0.00841326878            0.000466906291           
       1.841666             0.00884432045            0.000477020303           
       1.844306             0.00879342704             0.00046266762           
       1.846947             0.00825684735            0.000452259266           
       1.849587             0.00821171706            0.000498037175           
       1.852228             0.00903164023            0.000472297398           
       1.854868             0.00861982552            0.000487405221           
       1.857508             0.00923893735            0.000499656348           
       1.860149             0.00812297548            0.000477021173           
       1.862789             0.00861128712            0.000474073304           
       1.865429             0.00823976681             0.00048406733           
       1.868070             0.00874645183            0.000492081415           
       1.870710             0.00942464889            0.000499026832           
       1.873351             0.00817065154            0.000470387323           
       1.875991              0.0091155267            0.000504950387           
       1.878631              0.0080216325             0.00046461243           
       1.881272             0.00899814232            0.000488783104           
       1.883912             0.00894651519            0.000507219662           
       1.886553             0.00860051408            0.000491754757           
       1.889193             0.00919032989            0.000507468648           
       1.891833             0.00832460093            0.000501589211           
       1.894474             0.00929700639            0.000525459448           
       1.897114             0.00890176905            0.000497550509           
       1.899754             0.00864154889            0.000492275409           
       1.902395             0.00854433283            0.000479928283           
       1.905035              0.0087645971            0.000514834845           
       1.907676             0.00956467588            0.000506897092           
       1.910316             0.00890950998            0.000502218156           
       1.912956             0.00880756899            0.000488351277           
       1.915597             0.00928227444             0.00050414093           
       1.918237             0.00884859776            0.000508346685           
       1.920878             0.00930066174            0.000519036855           
       1.923518             0.00963159038            0.000528414229           
       1.926158             0.00866754442            0.000494767359           
       1.928799             0.00843644386            0.000482476664           
       1.931439             0.00940005588            0.000522644151           
       1.934079             0.00959503523            0.000550465338           
       1.936720             0.00979045887            0.000515189798           
       1.939360             0.00900978691             0.00052726707           
       1.942001             0.00898094927            0.000482493267           
       1.944641               0.009027932            0.000493282535           
       1.947281             0.00864838615            0.000478351857           
       1.949922             0.00879412946            0.000498241028           
       1.952562             0.00864394764            0.000509452095           
       1.955202             0.00844493432            0.000502939464           
       1.957843             0.00894006704            0.000504053748           
       1.960483             0.00816441691            0.000503607892           
       1.963124             0.00900370865            0.000518010137           
       1.965764             0.00831534265            0.000469453099           
       1.968404              0.0086054045            0.000473058543           
       1.971045             0.00870156839            0.000484995426           
       1.973685              0.0080901866            0.000490526782           
       1.976326             0.00820762336            0.000487283765           
       1.978966             0.00835819467            0.000496048511           
       1.981606             0.00885504746            0.000521227942           
       1.984247             0.00830115549            0.000501345146           
       1.986887             0.00853167981            0.000502170345           
       1.989527             0.00826740793            0.000489008063           
       1.992168             0.00828111715            0.000507807817           
       1.994808             0.00888710716            0.000523804815           
       1.997449             0.00869616023            0.000507506126           
       2.000089             0.00811266244            0.000488240687           
       2.002729             0.00840664491            0.000497306243           
       2.005370              0.0083474073            0.000490219029           
       2.008010             0.00833934858            0.000511366806           
       2.010650             0.00804615587            0.000506045181           
       2.013291             0.00867564314            0.000504157042           
       2.015931             0.00804900669            0.000482175632           
       2.018572             0.00835158459            0.000525336704           
       2.021212             0.00895460308            0.000534198515           
       2.023852             0.00824085394            0.000485025551           
       2.026493              0.0084649035            0.000513537223           
       2.029133             0.00863734132            0.000508302293           
       2.031774             0.00761796026            0.000500984888           
       2.034414             0.00767251095            0.000462623226           
       2.037054             0.00771462572            0.000475649287           
       2.039695             0.00800739394            0.000480930734           
       2.042335             0.00892604926            0.000527683937           
       2.044975             0.00766786459            0.000483150522           
       2.047616             0.00707869352            0.000463064654           
       2.050256             0.00888803622            0.000523791725           
       2.052897             0.00725747286            0.000482038802           
       2.055537             0.00765596847            0.000478491394           
       2.058177             0.00702536257            0.000448859819           
       2.060818             0.00779077143            0.000495168185           
       2.063458             0.00778819875            0.000515929229           
       2.066098             0.00799661711            0.000493163256           
       2.068739             0.00739846196            0.000481733693           
       2.071379             0.00788657764             0.00051034275           
       2.074020             0.00748203858            0.000486278569           
       2.076660             0.00812093232            0.000510710522           
       2.079300             0.00782057749            0.000513457008           
       2.081941             0.00797334613            0.000474697964           
       2.084581             0.00808407975            0.000504515611           
       2.087222             0.00779132781            0.000477665909           
       2.089862             0.00797863243            0.000526467376           
       2.092502             0.00866186154            0.000531736794           
       2.095143             0.00789663899            0.000524282307           
       2.097783             0.00803067878             0.00051188341           
       2.100423              0.0077847261            0.000485634803           
       2.103064             0.00792647908            0.000508478563           
       2.105704             0.00758883812            0.000495066586           
       2.108345             0.00727313145            0.000465628139           
       2.110985             0.00696988929            0.000486846573           
       2.113625             0.00723651877            0.000500400152           
       2.116266              0.0080173553            0.000534178575           
       2.118906             0.00738583334            0.000477815746           
       2.121546             0.00880575463             0.00051176643           
       2.124187             0.00753030439            0.000496771084           
       2.126827             0.00706710444             0.00048662117           
       2.129468             0.00784962596            0.000514165159           
       2.132108             0.00749720731            0.000488885094           
       2.134748             0.00762351726            0.000491073484           
       2.137389             0.00743572545            0.000505962334           
       2.140029             0.00818600896            0.000475272082           
       2.142670             0.00744474938            0.000484390707           
       2.145310              0.0078579524            0.000484373278           
       2.147950             0.00825002593            0.000510838369           
       2.150591             0.00761051839            0.000485681585           
       2.153231             0.00762382863            0.000500370665           
       2.155871             0.00726160135            0.000471768026           
       2.158512             0.00734064632            0.000494928419           
       2.161152             0.00756071012            0.000486551676           
       2.163793             0.00814027941            0.000502582974           
       2.166433             0.00821411755            0.000518435181           
       2.169073             0.00704351187            0.000469386406           
       2.171714             0.00795925547            0.000495237304           
       2.174354             0.00760524792            0.000505838308           
       2.176995             0.00801592903            0.000517131149           
       2.179635             0.00795741115            0.000544462047           
       2.182275             0.00705670794            0.000484091853           
       2.184916              0.0074814135            0.000481434558           
       2.187556             0.00850766427            0.000508248112           
       2.190196             0.00746361283            0.000497457343           
       2.192837             0.00754651429            0.000497490881           
       2.195477             0.00727287993            0.000465620112           
       2.198118             0.00796846825            0.000499866375           
       2.200758             0.00842439366            0.000527299664           
       2.203398             0.00762190159            0.000504765103           
       2.206039             0.00750585194            0.000474066669           
       2.208679             0.00715262857            0.000473547647           
       2.211319             0.00792443882            0.000501316561           
       2.213960             0.00750196852            0.000494305675           
       2.216600             0.00863087555            0.000548474622           
       2.219241             0.00761663577            0.000492431499           
       2.221881             0.00800083341            0.000505735994           
       2.224521             0.00743587294            0.000493527851           
       2.227162             0.00795952707            0.000500386398           
       2.229802             0.00618753839            0.000454995927           
       2.232443             0.00803234673            0.000510228948           
       2.235083              0.0078286566            0.000518576331           
       2.237723             0.00758848978            0.000489956399           
       2.240364             0.00774393491            0.000507142617           
       2.243004              0.0070915987            0.000481438333           
       2.245644             0.00811785018            0.000520252931           
       2.248285             0.00731555945            0.000483982057           
       2.250925             0.00716897582            0.000482019082           
       2.253566             0.00706873165            0.000511699775           
       2.256206             0.00708385668            0.000502004513           
       2.258846             0.00773488306            0.000499006767           
       2.261487             0.00724682722            0.000506960755           
       2.264127             0.00755727014            0.000499991873           
       2.266767             0.00795285618            0.000526576382           
       2.269408             0.00764319072            0.000518336718           
       2.272048             0.00621423772            0.000464588475           
       2.274689              0.0071361743            0.000504419955           
       2.277329             0.00796200829            0.000501673196           
       2.279969             0.00828365104              0.0005446817           
       2.282610             0.00734584828            0.000498658005           
       2.285250             0.00692980382            0.000463570605           
       2.287891             0.00789887225            0.000530632583           
       2.290531             0.00681190858            0.000499395895           
       2.293171             0.00730506172            0.000503757798           
       2.295812             0.00690427726            0.000487775199           
       2.298452             0.00761759489            0.000535785397           
       2.301092              0.0075230496            0.000494711552           
       2.303733             0.00650576127            0.000478611735           
       2.306373             0.00818185219               0.000545188           
       2.309014             0.00777507679            0.000521095095           
       2.311654             0.00715365542             0.00052160393           
       2.314294             0.00765571834            0.000497133042           
       2.316935             0.00761425577            0.000497833302           
       2.319575              0.0066370462            0.000486993307           
       2.322215             0.00678816961            0.000513274855           
       2.324856             0.00689584403            0.000475630951           
       2.327496              0.0070473726            0.000511271458           
       2.330137              0.0064121117            0.000466677066           
       2.332777             0.00724825521            0.000511606708           
       2.335417             0.00744544094            0.000503040992           
       2.338058             0.00720849207            0.000509757597           
       2.340698             0.00777378173            0.000525207986           
       2.343339             0.00711391292            0.000513479181           
       2.345979             0.00749619934            0.000498674063           
       2.348619              0.0081319949            0.000538377029           
       2.351260               0.005903366            0.000456037044           
       2.353900             0.00690841227            0.000491769344           
       2.356540             0.00793281326            0.000526222017           
       2.359181             0.00753460801            0.000505654711           
       2.361821             0.00798640992            0.000502880355           
       2.364462             0.00630819913            0.000467435078           
       2.367102             0.00761053287            0.000527625251           
       2.369742             0.00734385175            0.000545545016           
       2.372383             0.00632554808            0.000458463742           
       2.375023             0.00706322829            0.000509271982           
       2.377663               0.008023006            0.000518968876           
       2.380304             0.00698137639            0.000492181077           
       2.382944             0.00709399076            0.000472552699           
       2.385585             0.00668888094            0.000489383756           
       2.388225             0.00638647311            0.000475946153           
       2.390865             0.00809991788            0.000530497498           
       2.393506             0.00773044492            0.000508479592           
       2.396146             0.00618196975            0.000491653212           
       2.398787             0.00763899048            0.000503669136           
       2.401427             0.00763957729            0.000486175506           
       2.404067             0.00701626613            0.000476312716           
       2.406708             0.00656467088            0.000455204191           
       2.409348              0.0063608817            0.000475279639           
       2.411988             0.00747423859            0.000504779908           
       2.414629             0.00674926903             0.00049461377           
       2.417269             0.00734430999            0.000521980727           
       2.419910             0.00750158859            0.000528764368           
       2.422550             0.00761124992            0.000509573377           
       2.425190             0.00664042127            0.000501718588           
       2.427831             0.00817261004            0.000553470598           
       2.430471             0.00666989073            0.000476350445           
       2.433112             0.00709729885            0.000478482899           
       2.435752             0.00758548738            0.000523510535           
       2.438392             0.00662028658            0.000472053633           
       2.441033             0.00642774695            0.000492953368           
       2.443673             0.00684638226            0.000509144168           
       2.446313             0.00682498393            0.000508796088           
       2.448954             0.00628106871            0.000464740405           
       2.451594              0.0069450938            0.000525455055           
       2.454235              0.0069988539            0.000494915454           
       2.456875             0.00776934682            0.000545619995           
       2.459515             0.00834302924            0.000580042181           
       2.462156             0.00650369316             0.00048351926           
       2.464796             0.00721366234            0.000502657406           
       2.467436              0.0077505283            0.000538802621           
       2.470077             0.00867379842            0.000540248896           
       2.472717             0.00760116315            0.000507933037           
       2.475358             0.00813825498            0.000531052002           
       2.477998             0.00675753641            0.000475753069           
       2.480638              0.0080374337             0.00052807469           
       2.483279             0.00815819087            0.000556052911           
       2.485919             0.00787632015            0.000526545167           
       2.488560             0.00748419927            0.000511836717           
       2.491200              0.0076892041            0.000534226269           
       2.493840             0.00792689347             0.00057395187           
       2.496481             0.00775631087            0.000558455681           
       2.499121             0.00656769331            0.000499837076           
       2.501761              0.0067131973            0.000512039117           
       2.504402             0.00727796623            0.000525353497           
       2.507042             0.00709735754            0.000514950821           
       2.509683             0.00687342269            0.000499016785           
       2.512323             0.00614214408            0.000495428141           
       2.514963             0.00751487668            0.000541231051           
       2.517604              0.0070168234            0.000542680885           
       2.520244             0.00733706735            0.000520244656           
       2.522884             0.00723403035            0.000523966316           
       2.525525              0.0130403266             0.00071147395           
       2.528165             0.00811620178            0.000552545723           
       2.530806             0.00747705121            0.000539587179           
       2.533446             0.00621867096            0.000481587436           
       2.536086             0.00769251384             0.00053083054           
       2.538727             0.00853162664            0.000536307478           
       2.541367             0.00692873528            0.000488069861           
       2.544008              0.0072480292            0.000515540341           
       2.546648             0.00687097035            0.000510561281           
       2.549288             0.00706613957            0.000528311554           
       2.551929               0.007766749            0.000545054774           
       2.554569              0.0070964331            0.000501943182           
       2.557209              0.0077708218            0.000530076118           
       2.559850             0.00697347503            0.000503757778           
       2.562490             0.00750920373            0.000540290246           
       2.565131             0.00802578914            0.000579145792           
       2.567771              0.0078741959            0.000553084911           
       2.570411              0.0072978756            0.000526698785           
       2.573052             0.00661831488            0.000507893883           
       2.575692             0.00704283624            0.000520757101           
       2.578332             0.00612685162            0.000487721952           
       2.580973             0.00762296162              0.0005388446           
       2.583613             0.00615903153            0.000472815623           
       2.586254             0.00608317451             0.00046924187           
       2.588894             0.00695494688            0.000521032805           
       2.591534             0.00748485741            0.000559537252           
       2.594175             0.00733004106            0.000543271294           
       2.596815             0.00717033037            0.000540488334           
       2.599456             0.00711612225            0.000510601475           
       2.602096             0.00690349369            0.000506742627           
       2.604736             0.00790977048            0.000555280966           
       2.607377             0.00772052094            0.000534140563           
       2.610017             0.00617483288            0.000469329203           
       2.612657                0.00685265            0.000525888066           
       2.615298             0.00692636159            0.000516186211           
       2.617938             0.00624128415            0.000524168399           
       2.620579             0.00754843651            0.000553387076           
       2.623219              0.0072033051            0.000539817422           
       2.625859             0.00787902521             0.00054891969           
       2.628500             0.00705134513            0.000515884585           
       2.631140             0.00703971364            0.000523401267           
       2.633780             0.00726877195            0.000531385977           
       2.636421             0.00648165747            0.000514130691           
       2.639061             0.00638145478            0.000480239238           
       2.641702             0.00630487663            0.000488400006           
       2.644342             0.00751256655             0.00053539969           
       2.646982             0.00661212924            0.000494780976           
       2.649623             0.00616661549            0.000500737831           
       2.652263             0.00745192193            0.000544930322           
       2.654904             0.00714990901            0.000534310586           
       2.657544              0.0081750521            0.000538135775           
       2.660184             0.00789712955            0.000559740094           
       2.662825             0.00680299402            0.000531572239           
       2.665465             0.00703142032            0.000522677997           
       2.668105             0.00634157482            0.000523199904           
       2.670746             0.00714844816            0.000513152808           
       2.673386             0.00788651987            0.000555476007           
       2.676027             0.00996794404            0.000614467255           
       2.678667             0.00976445986            0.000593415147           
       2.681307              0.0117326003             0.00063913022           
       2.683948              0.0116324007            0.000653866563           
       2.686588               0.010232906            0.000603102867           
       2.689229              0.0120343378            0.000639098915           
       2.691869             0.00945465092            0.000598706345           
       2.694509             0.00934817461             0.00059565267           
       2.697150             0.00808438997            0.000544941063           
       2.699790             0.00742467256             0.00054748659           
       2.702430             0.00730826711            0.000519212715           
       2.705071             0.00779186164            0.000553974657           
       2.707711             0.00650343316            0.000491212823           
       2.710352             0.00711991806            0.000543071235           
       2.712992             0.00567249925            0.000493700203           
       2.715632              0.0066703191            0.000496711833           
       2.718273             0.00678932843            0.000519346873           
       2.720913             0.00745904412            0.000542810487           
       2.723553             0.00692466824            0.000526514456           
       2.726194             0.00729739927            0.000564999579           
       2.728834             0.00828200823            0.000602192869           
       2.731475             0.00849311539            0.000562809906           
       2.734115             0.00696589452             0.00052552122           
       2.736755             0.00765722571            0.000555517182           
       2.739396             0.00803316398            0.000565693951           
       2.742036             0.00811202781            0.000594933624           
       2.744677             0.00730710717            0.000547862629           
       2.747317             0.00682594438            0.000525741644           
       2.749957             0.00705851275            0.000538374854           
       2.752598             0.00666978705            0.000529019842           
       2.755238             0.00759027172            0.000574532645           
       2.757878             0.00722149616            0.000555502225           
       2.760519             0.00738632219            0.000555848991           
       2.763159             0.00777810151            0.000564699835           
       2.765800             0.00680561672            0.000503385142           
       2.768440             0.00761658953            0.000536456605           
       2.771080             0.00774690335            0.000545542318           
       2.773721             0.00707321863            0.000534729333           
       2.776361             0.00698821425             0.00053883915           
       2.779001             0.00757094398             0.00058082279           
       2.781642             0.00679873462            0.000546349171           
       2.784282             0.00805707924            0.000604544805           
       2.786923             0.00739323699             0.00058420346           
       2.789563             0.00674957517            0.000537606218           
       2.792203              0.0070935417            0.000526490864           
       2.794844             0.00786856982            0.000607730817           
       2.797484             0.00726134876            0.000550974809           
       2.800125             0.00701252855            0.000569337564           
       2.802765             0.00722306011            0.000567880277           
       2.805405             0.00660348108            0.000544816279           
       2.808046             0.00650388932            0.000550197404           
       2.810686              0.0064341374            0.000502849108           
       2.813326             0.00640263817            0.000521041326           
       2.815967             0.00672231166            0.000549070318           
       2.818607              0.0073850522            0.000549184897           
       2.821248             0.00644709608             0.00050247285           
       2.823888             0.00804778528            0.000582742479           
       2.826528             0.00687969582            0.000521795794           
       2.829169             0.00684416876            0.000545138811           
       2.831809             0.00638837037            0.000533837805           
       2.834449              0.0064503157            0.000539809776           
       2.837090              0.0076744198            0.000568694272           
       2.839730             0.00768048556             0.00056614126           
       2.842371             0.00678517159            0.000532889581           
       2.845011             0.00731772187            0.000557818345           
       2.847651             0.00673525949             0.00053581524           
       2.850292             0.00616489654            0.000517657175           
       2.852932              0.0071730337            0.000570550179           
       2.855573              0.0068748258            0.000541823226           
       2.858213              0.0063598335            0.000547254196           
       2.860853             0.00699325542            0.000533821598           
       2.863494             0.00628034033            0.000523768791           
       2.866134             0.00744353204            0.000592666339           
       2.868774              0.0069730587            0.000563761402           
       2.871415             0.00680300661            0.000565518411           
       2.874055             0.00743741429            0.000565208506           
       2.876696             0.00784591058            0.000596225261           
       2.879336             0.00655160545            0.000525113244           
       2.881976             0.00732956506            0.000572873076           
       2.884617             0.00667335153            0.000538599238           
       2.887257             0.00812798497            0.000597476807           
       2.889897             0.00743864033            0.000559815497           
       2.892538             0.00591260688            0.000546765957           
       2.895178             0.00730269952             0.00054897151           
       2.897819             0.00673560588            0.000537820413           
       2.900459             0.00723010552            0.000546373479           
       2.903099             0.00727883468            0.000542600033           
       2.905740             0.00714291618            0.000551416723           
       2.908380             0.00684029775            0.000545740806           
       2.911021             0.00756420938            0.000583223261           
       2.913661             0.00750443423             0.00058074023           
       2.916301             0.00693406144            0.000558766989           
       2.918942             0.00606265947            0.000499763605           
       2.921582             0.00731529301            0.000574381159           
       2.924222             0.00654963365            0.000526538821           
       2.926863             0.00773081269            0.000595856759           
       2.929503              0.0076187859            0.000598531776           
       2.932144             0.00718844301            0.000558091374           
       2.934784             0.00582852541             0.00049429592           
       2.937424             0.00663193542            0.000532676952           
       2.940065             0.00689439243            0.000518080354           
       2.942705             0.00703631389            0.000522728915           
       2.945346             0.00779110442            0.000583743956           
       2.947986             0.00714552943            0.000570023672           
       2.950626             0.00601673617            0.000520120567           
       2.953267             0.00757601725            0.000574208578           
       2.955907             0.00757421067            0.000595591461           
       2.958547             0.00796815278            0.000576705635           
       2.961188             0.00640746284            0.000539534189           
       2.963828             0.00800915583            0.000590051923           
       2.966469             0.00686244521            0.000535801318           
       2.969109             0.00632963033            0.000522205015           
       2.971749             0.00612518649            0.000510497663           
       2.974390             0.00678462045            0.000527971307           
       2.977030             0.00691251927            0.000544834457           
       2.979670             0.00869835672            0.000594484564           
       2.982311             0.00855212069            0.000610952025           
       2.984951             0.00802028832            0.000562711617           
       2.987592             0.00686714108            0.000531118548           
       2.990232              0.0075176167             0.00057792624           
       2.992872             0.00950221366             0.00061202557           
       2.995513             0.00890509919            0.000579644269           
       2.998153              0.0134459529             0.00072422588           
       3.000794              0.0108334212            0.000629660935           
       3.003434              0.0106852885            0.000626285416           
       3.006074               0.023845619            0.000922472384           
       3.008715              0.0863314248             0.00169434537           
       3.011355               0.250741334             0.00278453699           
       3.013995               0.170904424             0.00230513667           
       3.016636              0.0945785927             0.00167920699           
       3.019276                0.13967229             0.00200589162           
       3.021917               0.509656331             0.00368436154           
       3.024557                1.25169545             0.00567679019           
       3.027197                1.09759903             0.00518270552           
       3.029838               0.638497071             0.00400895452           
       3.032478               0.259363198              0.0025576859           
       3.035118               0.069964661             0.00134623285           
       3.037759                0.07269536             0.00137048241           
       3.040399              0.0972266195              0.0016349048           
       3.043040               0.374780351             0.00324922083           
       3.045680               0.385287146             0.00309961132           
       3.048320               0.120580903             0.00177174579           
       3.050961               0.138115535             0.00192960823           
       3.053601               0.112867775             0.00168001756           
       3.056242               0.105584314             0.00172762149           
       3.058882               0.114027555             0.00192589818           
       3.061522              0.0910572265             0.00168852465           
       3.064163                0.11152964             0.00184519307           
       3.066803               0.171861015             0.00241143136           
       3.069443              0.0982476111             0.00190759094           
       3.072084              0.0448964756             0.00125565493           
       3.074724              0.0406019403             0.00133352743           
       3.077365              0.0312674097             0.00121140147           
       3.080005              0.0115259548            0.000739664165           
       3.082645              0.0142256331            0.000863252098           
       3.085286              0.0139157086            0.000860532926           
       3.087926              0.0117924996            0.000786063484           
       3.090566              0.0102619816            0.000718473637           
       3.093207              0.0131732104            0.000847083672           
       3.095847             0.00876429566             0.00066225337           
       3.098488             0.00786170794            0.000695486391           
       3.101128             0.00896959653            0.000747654029           
       3.103768             0.00942427109            0.000751951194           
       3.106409             0.00950227031            0.000803583232           
       3.109049             0.00887204051            0.000745147103           
       3.111690              0.0083939795            0.000712350941           
       3.114330             0.00829906766            0.000723380301           
       3.116970             0.00839280866            0.000733039013           
       3.119611              0.0121053756            0.000937090029           
       3.122251              0.0165395168             0.00114577466           
       3.124891              0.0342041282             0.00166304374           
       3.127532              0.0296908335             0.00151580628           
       3.130172              0.0175200432             0.00118451438           
       3.132813             0.00981405607            0.000872765413           
       3.135453             0.00815601656            0.000789078347           
       3.138093             0.00625599856            0.000748811481           
       3.140734              0.0077909076            0.000770940424           
       3.143374             0.00826898314            0.000839945638           
       3.146014             0.00699749487            0.000831819029           
       3.148655              0.0073405624            0.000791981215           
       3.151295             0.00688224229            0.000817207519           
       3.153936             0.00641048624            0.000761862206           
       3.156576             0.00544022137             0.00069229532           
       3.159216             0.00677166113             0.00077624275           
       3.161857             0.00669155703            0.000768497486           
       3.164497             0.00651451704             0.00079671612           
       3.167138              0.0069544846            0.000850546151           
       3.169778             0.00710446219            0.000845491423           
       3.172418             0.00689897362            0.000824699529           
       3.175059             0.00650299649            0.000709838813           
       3.177699             0.00736993065            0.000800213427           
       3.180339             0.00567351513            0.000752247906           
       3.182980             0.00679984377            0.000851455988           
       3.185620             0.00562185556            0.000788455726           
       3.188261             0.00525702393            0.000776049197           
       3.190901             0.00599833718            0.000762404611           
       3.193541             0.00716424918             0.00087550467           
       3.196182             0.00767160137            0.000944155752           
       3.198822             0.00555907717            0.000803984213           
       3.201463              0.0063812737            0.000846549521           
       3.204103             0.00655849549            0.000853002735           
       3.206743              0.0065375402            0.000851558979           
       3.209384              0.0068493586            0.000941722507           
       3.212024             0.00550974684              0.0007874552           
       3.214664             0.00550882679             0.00089537399           
       3.217305             0.00562739379            0.000860225371           
       3.219945             0.00558702218            0.000882212261           
       3.222586             0.00568302018            0.000847480862           
       3.225226             0.00513710806            0.000893852753           
       3.227866             0.00686742371            0.000944593548           
       3.230507             0.00530748664            0.000860810529           
       3.233147             0.00597823251            0.000920963247           
       3.235787             0.00576466818            0.000925503104           
       3.238428             0.00619808699             0.00103559974           
       3.241068             0.00676246395             0.00101146363           
       3.243709             0.00645787843             0.00102119772           
       3.246349             0.00617355902            0.000910193653           
       3.248989             0.00713166561             0.00115512634           
       3.251630             0.00520887765            0.000950648714           
       3.254270              0.0059443225            0.000907621847           
       3.256911              0.0051194234            0.000919037448           
       3.259551             0.00497280651            0.000975154607           
       3.262191             0.00335908344              0.0008186537           
       3.264832             0.00631707945             0.00117301084           
       3.267472             0.00516176181            0.000994707639           
       3.270112             0.00627930567             0.00121245226           
       3.272753             0.00530722977             0.00102027575           
       3.275393              0.0052998282             0.00104031052           
       3.278034             0.00549996624             0.00106036784           
       3.280674             0.00795159173             0.00138353096           
       3.283314             0.00714873677             0.00117323798           
       3.285955             0.00614357086              0.0011221972           
       3.288595             0.00712924184             0.00134491568           
       3.291235             0.00856914126             0.00151576382           
       3.293876             0.00771385478             0.00145879738           
       3.296516             0.00379812321            0.000982709488           
       3.299157             0.00693640972             0.00131134344           
       3.301797             0.00449986998             0.00120479933           
       3.304437              0.0043617533             0.00102767115           
       3.307078             0.00554872973             0.00127681856           
       3.309718             0.00656872934             0.00143393144           
       3.312359              0.0053238795             0.00129123404           
       3.314999             0.00697671229             0.00145535213           
       3.317639             0.00585073761             0.00127460955           
       3.320280             0.00501697402             0.00125490356           
       3.322920             0.00779872275             0.00159092583           
       3.325560             0.00452775846             0.00121303901           
       3.328201             0.00498386625             0.00114619411           
       3.330841             0.00782866844             0.00174836386           
       3.333482             0.00594652442             0.00144031265           
       3.336122             0.00695773936             0.00155868673           
       3.338762             0.00370044082             0.00131308158           
       3.341403             0.00555452168             0.00153722411           
       3.344043             0.00504320324              0.0014062924           
       3.346683             0.00448761155             0.00135431937           
       3.349324             0.00775903477             0.00200221509           
       3.351964             0.00690980252             0.00199804266           
       3.354605             0.00605610721             0.00213925684           
       3.357245             0.00425766779             0.00161811653           
       3.359885             0.00632102583             0.00157798643           
       3.362526             0.00368433189             0.00150656227           
       3.365166             0.00488258802             0.00163581275           
       3.367807             0.00630356381             0.00237871618           
       3.370447             0.00493134597             0.00174524302           
       3.373087             0.00344669384             0.00156027728           
       3.375728             0.00443820115              0.0019982193           
       3.378368             0.00596706346             0.00343866514           
       3.381008             0.00436889241             0.00219368047           
       3.383649             0.00278370042             0.00140469941           
       3.386289             0.00493717735             0.00221407363           
       3.388930             0.00248675085             0.00248549073           
       3.391570             0.00497236079             0.00248622148           
       3.394210             0.00400583867             0.00282406828           
       3.396851             0.00244223786             0.00246658589           
       3.399491             0.00973215718             0.00492525716           
       3.402131            -2.6654964e-05                         0           
       3.404772              0.0195072238              0.0139552736           
       3.407412                       nan                       nan           
       3.410053            -2.6733512e-05                         0           
       3.412693                       nan                       nan           
       3.415333           -2.67845992e-05                         0           
