################################################################################
# EDF_DataBlockID                     0.Image.Psd
# EDF_BinarySize                      4366944
# EDF_HeaderSize                      2560
# ByteOrder                           LowByteFirst
# DataType                            FloatValue
# Dim_1                               1028
# Dim_2                               1062
# Image                               0
# HeaderID                            EH:000000:000000:000000
# Size                                4366944
# Center_1                            607.5200
# Center_2                            651.5500
# Comment                             Xenocs_Cell_Window - 20251028_20perc_iodine_1.23mg
# DDummy                              0.6
# Date                                2025-10-30T23:07:28
# Delta                               0
# Dummy                               -1.5
# ExposureTime                        360
# Gamma                               0
# Intensity1                          8.5623e-10
# PSize_1                             7.5e-05
# PSize_2                             7.5e-05
# Pressure                            0.0327759
# SampleDistance                      0.450002
# SampleEnvKind                       large
# SampleEnvPN                         ElectroChemical cell
# SampleEnvSN                         1141
# Thickness                           0
# Wavelength                          1.541891e-10
# Wavelength                          1.54189e-10
# aux                                 0
# aux_dial                            0.002375
# beamx                               588.434
# beamx_dial                          588.434
# beamz                               657.808
# beamz_dial                          657.808
# det0x                               0
# det0x_dial                          6.36945
# det0xvd                             0
# det0xvd_dial                        0
# det0y                               450.002
# det0y_dial                          481.635
# det0z                               0
# det0z_dial                          1.23302
# det0zvd                             0
# det0zvd_dial                        0
# mag                                 1.818
# mag_dial                            1.818
# om                                  0.2499
# om_dial                             -0.610199
# phi                                 -0.0120535
# phi_dial                            0
# ry                                  0.599993
# ry_dial                             0.599993
# s1bot                               0.8
# s1bot_dial                          -1.66094
# s1hl                                0.8
# s1hl_dial                           -0.608437
# s1hr                                0.8
# s1hr_dial                           0.970938
# s1top                               0.8
# s1top_dial                          -0.461562
# s2bot                               0.45
# s2bot_dial                          1.36109
# s2hl                                0.45
# s2hl_dial                           -0.83375
# s2hr                                0.45
# s2hr_dial                           -0.118594
# s2top                               0.45
# s2top_dial                          1.44734
# w2theta                             32
# w2theta_dial                        32
# waxsch                              19.2605
# waxsch_dial                         -32.7355
# waxsh                               137.085
# waxsh_dial                          -43.5338
# waxsth                              26.0607
# waxsth_dial                         -19.4086
# waxsz                               67.0407
# waxsz_dial                          -23.7954
# wind                                65.9854
# wind_dial                           66.0041
# wpsi                                124
# wpsi_dial                           124
# wstod                               115
# wstod_dial                          115
# x                                   0
# x_dial                              1.00969
# z                                   0
# z_dial                              13.3172
# CountCutoff                         15302352
# DetectorModel                       Dectris EIGER2 Si 1M, S/N E-02-0362
# ThresholdSetting                    4023.88989258
# Saturation                          0
# FlatField                           Corrected
# BackgroundReductionExtra            0.02
# BackgroundCorrectionConstant        0.0026712
# Detector                            0
# Monitor                             0
# Pil_Roi0                            0
# SumForIntensity1                    3.08243e+08
# TransmittedFlux                     856230
# det                                 0
# mon                                 0
# pilai0                              3.08243e+08
# pilai1                              773805
# pilct0                              5.32933e+08
# pilct1                              773805
# pilroi0                             0
# pilroi1                             0
# sec                                 1
# title                               20251028_20perc_iodine_1.23mg_0_00516.edf
# usaxs0                              0
# Operation                           Azimuthal average I(q)
# Error_model                         ErrorModel.poisson
# Geometrical_correction              True
# Transmission_correction             True
# Thickness_correction                False
# Binning mode                        Uniform
# Binning factor                      1.0
# Psi                                 0.0
# Omega                               0.2499
# MaskInvalidPixels                   True
# DetectorEdge                        3
# MaskFiles                           ['20251028_20perc_iodine_1.23mg_0_00012_mask.edf']
################################################################################
    q(A⁻¹)                Intensity(a.u.)            Sigma_I(a.u.)            
       0.000340                373422.455                120.571955           
       0.001019                360138.325                72.5097499           
       0.001698                350204.338                50.5600547           
       0.002377                331084.851                43.9705069           
       0.003056                307674.189                35.8239445           
       0.003735                253318.848                28.6674774           
       0.004415                204379.573                25.7498423           
       0.005094                152484.656                19.2619237           
       0.005773                 100376.01                14.4686597           
       0.006452                58253.7951                10.5609921           
       0.007131                32265.7805                7.61416195           
       0.007810                16350.7202                5.37903496           
       0.008490                8266.20198                3.39016996           
       0.009169                4058.69942                 2.3477539           
       0.009848                 1259.4509                1.26446064           
       0.010527                 488.22615               0.787273214           
       0.011206                121.038566               0.374119505           
       0.011885                55.4004982                0.23516537           
       0.012564                25.4851397                0.16375396           
       0.013244                16.9341552               0.124792948           
       0.013923                12.7151274                0.10987991           
       0.014602                9.62342161              0.0886558953           
       0.015281                7.59561664              0.0801776377           
       0.015960                6.17730014              0.0717872005           
       0.016639                5.00067637              0.0609925318           
       0.017319                4.21798727              0.0551451974           
       0.017998                3.45985547              0.0477810188           
       0.018677                2.93466479              0.0455775343           
       0.019356                 2.4863659              0.0414527361           
       0.020035                2.13906407              0.0360724663           
       0.020714                1.86745736              0.0340613236           
       0.021394                1.57573882              0.0296038465           
       0.022073                1.45164215              0.0295627732           
       0.022752                1.26651583              0.0264152195           
       0.023431                1.15657624               0.024502666           
       0.024110                1.06887793              0.0245582248           
       0.024789               0.889870638              0.0208102143           
       0.025469                0.82118786              0.0206009119           
       0.026148                 0.7272238              0.0182152091           
       0.026827               0.679590876              0.0178903464           
       0.027506               0.610077596              0.0171951333           
       0.028185               0.569059816              0.0158371956           
       0.028864               0.492460784              0.0146501292           
       0.029544               0.474842978              0.0139500705           
       0.030223               0.467190659               0.014035627           
       0.030902               0.410455557              0.0132762078           
       0.031581               0.391233696              0.0123214303           
       0.032260               0.336058069               0.011614159           
       0.032939               0.319599787              0.0109209153           
       0.033619               0.289495683              0.0105466154           
       0.034298                0.27634222              0.0100276892           
       0.034977               0.231669096             0.00900101561           
       0.035656               0.228293031             0.00917166817           
       0.036335               0.222982173             0.00879129186           
       0.037014               0.207350435             0.00850283239           
       0.037693               0.200283217             0.00803900961           
       0.038373               0.182153072             0.00774175906           
       0.039052                0.16335804             0.00736267325           
       0.039731               0.168875594             0.00731152381           
       0.040410               0.155030975             0.00695844417           
       0.041089               0.154916574             0.00684691746           
       0.041768               0.135075003             0.00642682858           
       0.042448               0.143700046             0.00657740542           
       0.043127               0.129426784             0.00609478002           
       0.043806               0.139785036             0.00638120181           
       0.044485               0.119045234             0.00576784219           
       0.045164               0.124959419             0.00602584774           
       0.045843                0.11259649             0.00548617438           
       0.046523               0.106307488             0.00534916762           
       0.047202                 0.1114976             0.00551647004           
       0.047881               0.104664325             0.00524168571           
       0.048560               0.103428775             0.00525814898           
       0.049239               0.094565122             0.00482759194           
       0.049918              0.0963145858             0.00496728604           
       0.050598               0.095211793             0.00486466956           
       0.051277              0.0884245332             0.00467319681           
       0.051956              0.0850950642             0.00455558397           
       0.052635              0.0817108633             0.00436934094           
       0.053314              0.0761938106             0.00434261451           
       0.053993              0.0833353338             0.00441700771           
       0.054673               0.067101936             0.00387523086           
       0.055352              0.0799404273             0.00429186489           
       0.056031              0.0831754657              0.0042858608           
       0.056710              0.0659910158             0.00391108184           
       0.057389              0.0678308121             0.00382371173           
       0.058068              0.0666181597             0.00382844037           
       0.058748              0.0714985521             0.00401567103           
       0.059427              0.0662212901             0.00379920186           
       0.060106              0.0610090494             0.00368113538           
       0.060785              0.0676519173             0.00376022047           
       0.061464              0.0606285757              0.0036454897           
       0.062143              0.0609247112             0.00361725993           
       0.062822              0.0555987991             0.00341498812           
       0.063502              0.0531604732             0.00333329921           
       0.064181              0.0540299657             0.00332496278           
       0.064860              0.0453021984             0.00309096412           
       0.065539              0.0506515699             0.00323640712           
       0.066218              0.0539386756             0.00326826158           
       0.066897              0.0519934285              0.0032335578           
       0.067577              0.0506739245             0.00322293178           
       0.068256              0.0540578795              0.0034105755           
       0.068935              0.0494177402             0.00320818877           
       0.069614              0.0466036179             0.00314651806           
       0.070293              0.0487576404             0.00324809015           
       0.070972              0.0433769406             0.00304119771           
       0.071652              0.0467214258             0.00316205268           
       0.072331               0.040056545             0.00287566205           
       0.073010              0.0391260702             0.00290700477           
       0.073689              0.0384525238             0.00286603814           
       0.074368               0.042594763             0.00301097454           
       0.075047               0.039783031             0.00287862211           
       0.075727              0.0444453034             0.00302383406           
       0.076406               0.045573248             0.00312305676           
       0.077085              0.0381871032             0.00280536949           
       0.077764              0.0374401861             0.00276806484           
       0.078443              0.0412432796             0.00292323984           
       0.079122              0.0382224628             0.00278711506           
       0.079802              0.0359212751             0.00273056966           
       0.080481              0.0451793529             0.00295900079           
       0.081160               0.039625721             0.00282803779           
       0.081839              0.0424289599             0.00287951056           
       0.082518              0.0415623402             0.00285235178           
       0.083197              0.0368089835             0.00264258532           
       0.083876              0.0330867485              0.0024637807           
       0.084556              0.0347074936             0.00259358175           
       0.085235              0.0333969067             0.00249498865           
       0.085914              0.0351957487             0.00258618172           
       0.086593              0.0341624088             0.00253153534           
       0.087272              0.0304878352             0.00235770996           
       0.087951              0.0358911384             0.00261590403           
       0.088631              0.0304050256             0.00232568449           
       0.089310              0.0325928926             0.00245897643           
       0.089989              0.0347456723             0.00250920467           
       0.090668              0.0348091813             0.00253921923           
       0.091347              0.0337071282             0.00251269014           
       0.092026              0.0316279155             0.00232647159           
       0.092706              0.0272485375             0.00223778503           
       0.093385              0.0315325486              0.0023703114           
       0.094064              0.0283099548             0.00227206544           
       0.094743              0.0306481512             0.00232800645           
       0.095422              0.0350744444             0.00246267657           
       0.096101              0.0265346006             0.00218610902           
       0.096781              0.0278289047              0.0022067354           
       0.097460               0.030524515             0.00224809703           
       0.098139              0.0278400369             0.00213044807           
       0.098818              0.0272722933             0.00208264575           
       0.099497              0.0316511379             0.00224822616           
       0.100176              0.0310241756             0.00216742965           
       0.100856              0.0289602391             0.00209275107           
       0.101535              0.0312369393             0.00216926361           
       0.102214              0.0285704601             0.00207462401           
       0.102893              0.0303649904             0.00211441723           
       0.103572               0.029057304             0.00203783085           
       0.104251              0.0251103543             0.00190137738           
       0.104931              0.0229227367             0.00180012718           
       0.105610              0.0244521961             0.00186714271           
       0.106289              0.0266219723             0.00191580154           
       0.106968              0.0266860839              0.0019237995           
       0.107647              0.0247645822              0.0018543575           
       0.108326              0.0296441725             0.00200169766           
       0.109005              0.0275472863             0.00191746363           
       0.109685              0.0249368779             0.00180388881           
       0.110364              0.0265119242             0.00188111021           
       0.111043              0.0242479734              0.0017918678           
       0.111722                0.02455317             0.00178107023           
       0.112401              0.0230178414             0.00172928105           
       0.113080              0.0242592895             0.00175495827           
       0.113760              0.0266687635             0.00187078196           
       0.114439              0.0244960146             0.00176736666           
       0.115118              0.0252906822             0.00178226434           
       0.115797              0.0251095716             0.00179232318           
       0.116476              0.0264619763             0.00181241876           
       0.117155              0.0259026385             0.00180762407           
       0.117835              0.0219177577             0.00162972202           
       0.118514              0.0229737097             0.00168967448           
       0.119193              0.0241346493             0.00173185333           
       0.119872              0.0230211327             0.00167027612           
       0.120551              0.0222610997             0.00163153232           
       0.121230              0.0234317726             0.00165703761           
       0.121910              0.0215283587             0.00160366053           
       0.122589              0.0220238015             0.00162367989           
       0.123268              0.0220652999             0.00159372315           
       0.123947              0.0197027434             0.00151572709           
       0.124626              0.0243257413             0.00166359622           
       0.125305              0.0197528452             0.00150645344           
       0.125985              0.0229118609             0.00160985969           
       0.126664              0.0208584458             0.00152139563           
       0.127343              0.0203128406             0.00151876859           
       0.128022              0.0238880552             0.00163437909           
       0.128701              0.0233130029             0.00160617651           
       0.129380              0.0205700044             0.00148983328           
       0.130059              0.0228154646             0.00157268792           
       0.130739              0.0208714863             0.00151477445           
       0.131418              0.0245427824             0.00163800627           
       0.132097              0.0227617583             0.00155722296           
       0.132776              0.0182576177             0.00138836868           
       0.133455              0.0224976628             0.00155314684           
       0.134134              0.0203373809             0.00147199414           
       0.134814              0.0214784375             0.00149713806           
       0.135493              0.0185040118             0.00139523537           
       0.136172              0.0197552534             0.00143075367           
       0.136851              0.0208495241              0.0014783938           
       0.137530              0.0196550516             0.00140131732           
       0.138209              0.0200146052             0.00143067851           
       0.138889              0.0180375217             0.00136416576           
       0.139568              0.0194546836             0.00141612979           
       0.140247              0.0219755427             0.00150311174           
       0.140926              0.0189522284             0.00135597872           
       0.141605              0.0187531583             0.00138310671           
       0.142284              0.0211546023             0.00144465471           
       0.142964              0.0205221515             0.00142833798           
       0.143643              0.0189050772             0.00136917763           
       0.144322                0.02046214             0.00139463937           
       0.145001               0.018839492             0.00136566798           
       0.145680              0.0210091245             0.00140804416           
       0.146359              0.0224982229             0.00146242009           
       0.147039              0.0204470658             0.00140564091           
       0.147718              0.0204013269             0.00138089901           
       0.148397              0.0189656314             0.00135211341           
       0.149076              0.0183845735             0.00128994237           
       0.149755                0.01721496             0.00126750904           
       0.150434              0.0166746286             0.00124796775           
       0.151114              0.0191454205             0.00132983862           
       0.151793              0.0200727448             0.00136167633           
       0.152472              0.0183842961             0.00128012984           
       0.153151              0.0192881311             0.00132389677           
       0.153830              0.0191150731             0.00130834193           
       0.154509              0.0163913814             0.00120649425           
       0.155188              0.0177913943             0.00125649834           
       0.155868              0.0190275017             0.00129016806           
       0.156547              0.0165191465              0.0012098457           
       0.157226              0.0205900266              0.0013177272           
       0.157905              0.0218665441             0.00136936677           
       0.158584              0.0170138371              0.0012057052           
       0.159263              0.0177375337             0.00123561067           
       0.159943              0.0178561839             0.00124066104           
       0.160622              0.0154261374             0.00113090005           
       0.161301              0.0166243808             0.00118970329           
       0.161980               0.016889573             0.00117876841           
       0.162659              0.0199259594             0.00129454138           
       0.163338              0.0177377328             0.00121143777           
       0.164018              0.0162102706             0.00115202462           
       0.164697              0.0169848063             0.00119436734           
       0.165376              0.0160523688             0.00113575116           
       0.166055              0.0207532733             0.00129990528           
       0.166734              0.0180677711             0.00120745481           
       0.167413              0.0161645902             0.00114289125           
       0.168093              0.0177846753             0.00121013648           
       0.168772              0.0183141387             0.00119210445           
       0.169451              0.0169773692             0.00116889077           
       0.170130              0.0185668797             0.00120633778           
       0.170809              0.0178094819             0.00119557628           
       0.171488              0.0177375324             0.00118228185           
       0.172168              0.0169990872             0.00114629104           
       0.172847              0.0149908142             0.00109059234           
       0.173526               0.017467438             0.00115478079           
       0.174205              0.0190136598             0.00121035667           
       0.174884              0.0165204632             0.00112233496           
       0.175563              0.0152257272             0.00108205847           
       0.176243              0.0174041073             0.00116845574           
       0.176922              0.0181332119             0.00116159835           
       0.177601              0.0169533564             0.00113551593           
       0.178280              0.0159689788             0.00108975484           
       0.178959              0.0199290715             0.00122719327           
       0.179638              0.0176992861             0.00115317407           
       0.180317               0.016855745              0.0011171605           
       0.180997              0.0149312902             0.00105716103           
       0.181676              0.0162365334             0.00109062866           
       0.182355              0.0169722718             0.00112176213           
       0.183034              0.0153255945             0.00104884866           
       0.183713              0.0149898159             0.00104992773           
       0.184392              0.0172446585             0.00112578942           
       0.185072              0.0158980752             0.00106862229           
       0.185751              0.0181680979             0.00114554775           
       0.186430              0.0165615331             0.00108606597           
       0.187109              0.0186816091             0.00116633412           
       0.187788               0.015248033              0.0010511162           
       0.188467              0.0154503878             0.00104554653           
       0.189147              0.0179429869             0.00113814341           
       0.189826              0.0175304022             0.00110508809           
       0.190505              0.0148545948             0.00103400405           
       0.191184              0.0158918487             0.00105408183           
       0.191863              0.0149184179             0.00102344017           
       0.192542              0.0172191484             0.00110989839           
       0.193222              0.0167488509             0.00107010543           
       0.193901              0.0174950352             0.00110834229           
       0.194580              0.0174431926             0.00108733999           
       0.195259               0.014023434            0.000986140807           
       0.195938              0.0181470679             0.00112447682           
       0.196617              0.0157263289             0.00103218156           
       0.197297              0.0161494236             0.00105024495           
       0.197976              0.0164380546             0.00104331294           
       0.198655              0.0171243993             0.00107650254           
       0.199334              0.0150253197            0.000999475947           
       0.200013              0.0180668333             0.00109536948           
       0.200692              0.0154025856             0.00101746828           
       0.201371              0.0156519794             0.00101412117           
       0.202051              0.0162749288              0.0010373211           
       0.202730              0.0168425632             0.00104471605           
       0.203409              0.0153096373             0.00100272589           
       0.204088              0.0160555374             0.00102572648           
       0.204767              0.0149076529            0.000983184826           
       0.205446              0.0164573704             0.00103504344           
       0.206126              0.0153370357            0.000985617111           
       0.206805              0.0163622045             0.00103668789           
       0.207484              0.0172361608             0.00104488573           
       0.208163              0.0158985285             0.00100955248           
       0.208842              0.0156763762            0.000999757826           
       0.209521               0.015403821             0.00098279256           
       0.210201              0.0149441317            0.000978819283           
       0.210880              0.0143556796            0.000940528909           
       0.211559              0.0148483599            0.000970674404           
       0.212238               0.015144825            0.000975328492           
       0.212917              0.0156307388            0.000987169983           
       0.213596              0.0148223625            0.000966988411           
       0.214276              0.0144536412            0.000934991633           
       0.214955              0.0164695317             0.00101905569           
       0.215634              0.0161437234             0.00100169471           
       0.216313              0.0176881381             0.00104631313           
       0.216992              0.0153122262            0.000973264776           
       0.217671              0.0153031123            0.000966384585           
       0.218351              0.0167978248             0.00102238263           
       0.219030              0.0153535798            0.000962015043           
       0.219709              0.0164489712             0.00100195223           
       0.220388              0.0158179679            0.000981283976           
       0.221067              0.0159550572            0.000986308376           
       0.221746              0.0162261103            0.000993632206           
       0.222426              0.0153152932            0.000950914861           
       0.223105              0.0150241537            0.000954664236           
       0.223784              0.0172615363             0.00101313196           
       0.224463              0.0139973335            0.000919589112           
       0.225142              0.0138308376            0.000899640174           
       0.225821              0.0161374997            0.000975682609           
       0.226500              0.0148022328            0.000940387211           
       0.227180              0.0142902395            0.000909745507           
       0.227859               0.015504521            0.000951860486           
       0.228538              0.0131833915              0.0008689098           
       0.229217              0.0153677826            0.000945563835           
       0.229896              0.0151983153            0.000939883106           
       0.230575              0.0160023528            0.000949050492           
       0.231255              0.0154561464            0.000946677297           
       0.231934              0.0161319332            0.000960544063           
       0.232613              0.0152367348              0.0009369564           
       0.233292              0.0146964693             0.00091130435           
       0.233971              0.0145157275            0.000905260599           
       0.234650              0.0139402173            0.000897568338           
       0.235330              0.0140966343            0.000894708193           
       0.236009              0.0147664772            0.000913744986           
       0.236688              0.0137143447            0.000877439301           
       0.237367              0.0142469519            0.000895613952           
       0.238046               0.015695078            0.000946649922           
       0.238725              0.0156625283            0.000931078195           
       0.239405              0.0137358609            0.000877339933           
       0.240084              0.0136259649            0.000868259069           
       0.240763              0.0138237394            0.000882911512           
       0.241442              0.0142575745            0.000884024507           
       0.242121              0.0143201163            0.000887633641           
       0.242800              0.0145036762            0.000897533598           
       0.243480              0.0131617165             0.00085100021           
       0.244159              0.0154171823            0.000921480173           
       0.244838              0.0147539311            0.000886608226           
       0.245517              0.0139283946            0.000873838252           
       0.246196              0.0162872857             0.00094539704           
       0.246875              0.0141873062            0.000870048141           
       0.247554              0.0151863199            0.000909308262           
       0.248234              0.0144483155            0.000873489676           
       0.248913              0.0151302376            0.000903891812           
       0.249592              0.0137195086            0.000852542987           
       0.250271              0.0134320729            0.000841115485           
       0.250950              0.0144438841             0.00087756234           
       0.251629              0.0143019232            0.000865817153           
       0.252309                0.01530896             0.00089759897           
       0.252988              0.0127917494            0.000806358886           
       0.253667              0.0143983614            0.000865495385           
       0.254346              0.0151324805            0.000887102702           
       0.255025               0.013549845            0.000837594117           
       0.255704              0.0147539923            0.000870016634           
       0.256384              0.0136791326            0.000834827985           
       0.257063              0.0138446357            0.000844651506           
       0.257742              0.0140025092            0.000843568017           
       0.258421              0.0127493924            0.000803387657           
       0.259100              0.0135403572            0.000829377317           
       0.259779              0.0125635139            0.000798223205           
       0.260459              0.0134375479             0.00082714343           
       0.261138              0.0134025487            0.000809922288           
       0.261817              0.0129085921            0.000810902025           
       0.262496              0.0125093257            0.000790434146           
       0.263175              0.0136267751            0.000826755507           
       0.263854              0.0133923913            0.000815806604           
       0.264534              0.0120370836            0.000766820376           
       0.265213              0.0107598223            0.000736420997           
       0.265892              0.0127516322            0.000791419003           
       0.266571              0.0122509253            0.000773961369           
       0.267250               0.013265652             0.00080673356           
       0.267929              0.0115172499            0.000750921732           
       0.268609              0.0136295015            0.000821356444           
       0.269288              0.0123057517            0.000767486179           
       0.269967              0.0127860156            0.000790748334           
       0.270646              0.0121745544            0.000768273351           
       0.271325              0.0125066376             0.00077998142           
       0.272004              0.0130206475             0.00078791495           
       0.272683              0.0126309606            0.000776993753           
       0.273363              0.0138097302            0.000817622843           
       0.274042              0.0114031183            0.000738588136           
       0.274721               0.012419495            0.000770344386           
       0.275400              0.0113015119            0.000729988785           
       0.276079              0.0101977048            0.000697361842           
       0.276758              0.0122292096            0.000773307975           
       0.277438              0.0127565603            0.000780939672           
       0.278117              0.0117475519             0.00076304562           
       0.278796              0.0125462569            0.000780554349           
       0.279475              0.0101496304            0.000713652631           
       0.280154              0.0122417767            0.000772487755           
       0.280833              0.0108049258            0.000730152113           
       0.281513              0.0132826877            0.000822254079           
       0.282192              0.0121914949            0.000774316293           
       0.282871              0.0118957712            0.000770212252           
       0.283550              0.0107967912            0.000737704827           
       0.284229              0.0118604668            0.000784546028           
       0.284908              0.0103867243            0.000741931247           
       0.285588              0.0101401057             0.00072448595           
       0.286267               0.012116392            0.000804626099           
       0.286946              0.0105916709            0.000747405398           
       0.287625              0.0102588573            0.000748093434           
       0.288304              0.0112495507            0.000772897384           
       0.288983              0.0122424683            0.000816495812           
       0.289663              0.0109965898            0.000778364335           
       0.290342             0.00932541308            0.000712967884           
       0.291021              0.0108566819            0.000773424561           
       0.291700             0.00916655648            0.000701393421           
       0.292379              0.0107254353             0.00077606401           
       0.293058             0.00837457026            0.000683168399           
       0.293738             0.00910136222            0.000706215675           
       0.294417              0.0102105977            0.000756708337           
       0.295096              0.0108571803            0.000771721667           
       0.295775             0.00951334274            0.000733417261           
       0.296454              0.0109089652            0.000775215309           
       0.297133             0.00952140591            0.000727664022           
       0.297812             0.00989304748            0.000745449396           
       0.298492             0.00925019075            0.000722215414           
       0.299171             0.00972673292            0.000739183873           
       0.299850               0.010026651            0.000745368686           
       0.300529              0.0102162512            0.000760858204           
       0.301208              0.0106518645            0.000778800601           
       0.301887              0.0114248623            0.000805605756           
       0.302567              0.0105325721            0.000769633084           
       0.303246             0.00839129591            0.000691444354           
       0.303925             0.00961045864            0.000749472179           
       0.304604             0.00940125519            0.000725263782           
       0.305283             0.00928542273             0.00073147201           
       0.305962             0.00945272322            0.000733573692           
       0.306642             0.00890368637            0.000721620497           
       0.307321             0.00879814727            0.000715040335           
       0.308000             0.00885948464             0.00070902346           
       0.308679             0.00918996304            0.000737764542           
       0.309358             0.00976757711            0.000750307827           
       0.310037             0.00881554755            0.000714393107           
       0.310717             0.00944953353            0.000738923967           
       0.311396             0.00827788324            0.000696237083           
       0.312075             0.00903649263            0.000736665248           
       0.312754             0.00849551128            0.000699984807           
       0.313433              0.0102303404             0.00077481792           
       0.314112             0.00894120775            0.000724190805           
       0.314792             0.00995033846            0.000769360578           
       0.315471             0.00895356789            0.000720783494           
       0.316150             0.00873681343            0.000718594956           
       0.316829             0.00973981937            0.000763732987           
       0.317508             0.00724529386             0.00065131824           
       0.318187             0.00875110533             0.00072525092           
       0.318866             0.00920805096            0.000733923017           
       0.319546             0.00895317829            0.000734542467           
       0.320225             0.00823171077            0.000704339158           
       0.320904              0.0080875606            0.000687350112           
       0.321583             0.00742087259            0.000672918333           
       0.322262             0.00916170289            0.000736360427           
       0.322941             0.00896310331            0.000737666785           
       0.323621             0.00835164566             0.00070771523           
       0.324300             0.00753931252            0.000672943559           
       0.324979             0.00720200028            0.000658906481           
       0.325658             0.00820942323            0.000704759119           
       0.326337             0.00943903587             0.00075668426           
       0.327016             0.00877387288            0.000724904149           
       0.327696             0.00837615953            0.000716161294           
       0.328375             0.00803304086            0.000695421439           
       0.329054              0.0082017171            0.000706495831           
       0.329733             0.00759746175            0.000682455929           
       0.330412             0.00775458507            0.000683827497           
       0.331091             0.00785294015            0.000700633165           
       0.331771             0.00784658291            0.000681998061           
       0.332450             0.00773641378            0.000690341225           
       0.333129             0.00769195117            0.000686578386           
       0.333808              0.0064419598            0.000629150438           
       0.334487             0.00624371953            0.000622331026           
       0.335166             0.00797944922            0.000693239374           
       0.335846             0.00634736001            0.000629156936           
       0.336525              0.0073243384            0.000669171604           
       0.337204             0.00723135074            0.000666653385           
       0.337883             0.00700772633            0.000657134452           
       0.338562              0.0068433162            0.000652983721           
       0.339241             0.00686963159            0.000655463951           
       0.339921             0.00662608466            0.000632944663           
       0.340600             0.00645537377            0.000636602107           
       0.341279              0.0070490784            0.000658109113           
       0.341958             0.00556137908            0.000592798792           
       0.342637             0.00587261238            0.000600554784           
       0.343316             0.00714203238            0.000664206985           
       0.343995             0.00637196212            0.000637650548           
       0.344675             0.00673975297            0.000643743027           
       0.345354              0.0074605426            0.000681759277           
       0.346033             0.00685926458            0.000652005169           
       0.346712             0.00664433283            0.000645803356           
       0.347391             0.00781017589            0.000704507766           
       0.348070             0.00621165172            0.000619365617           
       0.348750             0.00705142598            0.000669441214           
       0.349429             0.00881524019            0.000738835714           
       0.350108             0.00576910425            0.000604894825           
       0.350787             0.00768447188            0.000686263864           
       0.351466              0.0060370374            0.000619474568           
       0.352145             0.00663092653            0.000649768864           
       0.352825             0.00566947558            0.000598096985           
       0.353504             0.00617134745            0.000623854983           
       0.354183             0.00528567644            0.000570704552           
       0.354862               0.006071903            0.000625892633           
       0.355541             0.00559621848            0.000593006506           
       0.356220             0.00643721202            0.000637207089           
       0.356900             0.00603896622            0.000623043885           
       0.357579             0.00724967381            0.000674277049           
       0.358258             0.00600315312            0.000622067682           
       0.358937             0.00544683168            0.000581403016           
       0.359616             0.00478654233            0.000552635677           
       0.360295             0.00549910849            0.000592837623           
       0.360975              0.0050691702             0.00056675674           
       0.361654             0.00556083041             0.00059666606           
       0.362333             0.00436761576            0.000526101817           
       0.363012             0.00558730486            0.000602699597           
       0.363691             0.00648824951            0.000636662987           
       0.364370             0.00536833209             0.00058630019           
       0.365050             0.00492493538            0.000558560798           
       0.365729             0.00547877409            0.000594748383           
       0.366408             0.00499196144            0.000568967861           
       0.367087             0.00451488836            0.000532419087           
       0.367766             0.00582165919            0.000617176557           
       0.368445             0.00573991315             0.00060194763           
       0.369124             0.00570952928            0.000605068522           
       0.369804             0.00498815978            0.000564649714           
       0.370483             0.00517022771            0.000577377475           
       0.371162             0.00666138601            0.000659170765           
       0.371841             0.00641642299             0.00063565751           
       0.372520             0.00447112257            0.000541257774           
       0.373199             0.00491627641            0.000560782027           
       0.373879             0.00426455858            0.000528338545           
       0.374558             0.00443923774            0.000531184493           
       0.375237             0.00503746234            0.000566772065           
       0.375916             0.00590302297            0.000625289322           
       0.376595             0.00541018033            0.000586918121           
       0.377274             0.00545805795            0.000598945633           
       0.377954             0.00458424259            0.000540288388           
       0.378633             0.00489849413            0.000565557852           
       0.379312             0.00529791499            0.000588015239           
       0.379991             0.00375086627            0.000492207489           
       0.380670             0.00523658856            0.000591855444           
       0.381349             0.00462323738            0.000548129999           
       0.382029             0.00524062396            0.000591943832           
       0.382708             0.00435919382            0.000528084183           
       0.383387             0.00423764611            0.000532469399           
       0.384066             0.00432809121             0.00053318422           
       0.384745             0.00489338138            0.000569164123           
       0.385424             0.00587347693            0.000625681286           
       0.386104             0.00483101624            0.000561175463           
       0.386783             0.00423198587             0.00053659314           
       0.387462             0.00460508612            0.000545822374           
       0.388141             0.00562045618            0.000612632236           
       0.388820             0.00599280515            0.000628027063           
       0.389499             0.00392733858            0.000511270182           
       0.390178             0.00471279919            0.000562298312           
       0.390858             0.00363546836             0.00048986795           
       0.391537             0.00372384199            0.000500848855           
       0.392216             0.00400783373            0.000513083419           
       0.392895              0.0040320352            0.000516363957           
       0.393574             0.00388646601            0.000505700462           
       0.394253             0.00373050998            0.000497679106           
       0.394933             0.00429438893            0.000540070725           
       0.395612             0.00339776386            0.000466438681           
       0.396291              0.0049471731            0.000574287523           
       0.396970             0.00348375073            0.000477649583           
       0.397649             0.00394912811            0.000510119062           
       0.398328             0.00373471989            0.000493897466           
       0.399008             0.00428940036            0.000528154763           
       0.399687             0.00393169697            0.000507619865           
       0.400366             0.00338502766            0.000469208022           
       0.401045             0.00505887463            0.000572518302           
       0.401724             0.00468567576            0.000551915829           
       0.402403             0.00476923366            0.000561154996           
       0.403083             0.00379735854            0.000493504799           
       0.403762             0.00330918198            0.000462963994           
       0.404441             0.00400812684            0.000512760877           
       0.405120             0.00325971494            0.000460900801           
       0.405799             0.00336512992            0.000466259561           
       0.406478             0.00446792934            0.000537267893           
       0.407158             0.00339795606            0.000467660601           
       0.407837             0.00385779164            0.000502698648           
       0.408516             0.00416433066            0.000517745455           
       0.409195             0.00367478424            0.000491879241           
       0.409874             0.00337968348            0.000478279068           
       0.410553             0.00306163499            0.000460114575           
       0.411233              0.0034296577            0.000484460637           
       0.411912             0.00255574235            0.000424132968           
       0.412591             0.00302368727            0.000464383465           
       0.413270             0.00391161246            0.000525675894           
       0.413949             0.00234753136            0.000411683555           
       0.414628             0.00276340566            0.000445861207           
       0.415307             0.00284619045            0.000457523661           
       0.415987              0.0027171403            0.000443347187           
       0.416666             0.00339699332            0.000492736142           
       0.417345             0.00269386925            0.000446116035           
       0.418024             0.00292390054            0.000464784822           
       0.418703             0.00276935886            0.000451504077           
       0.419382             0.00259458934            0.000434883503           
       0.420062             0.00334051448            0.000494834981           
       0.420741             0.00316585207            0.000484286651           
       0.421420             0.00326682741            0.000493814948           
       0.422099             0.00266237664            0.000445807295           
       0.422778             0.00239053603             0.00042472279           
       0.423457             0.00188595591            0.000379554192           
       0.424137               0.002256059            0.000408363945           
       0.424816             0.00244830754            0.000434298214           
       0.425495             0.00275154204            0.000459972738           
       0.426174             0.00260734571            0.000447914752           
       0.426853             0.00308694319            0.000484411354           
       0.427532             0.00261519214            0.000449633018           
       0.428212             0.00210880084             0.00040642613           
       0.428891              0.0028811111            0.000473974432           
       0.429570             0.00303140758             0.00048651241           
       0.430249             0.00246224903            0.000436191334           
       0.430928             0.00185592131            0.000386977179           
       0.431607              0.0027909517            0.000466395844           
       0.432287             0.00299980962            0.000487073534           
       0.432966             0.00216364299            0.000417295641           
       0.433645             0.00290075088            0.000483681586           
       0.434324             0.00245837586            0.000442591086           
       0.435003             0.00190820584            0.000390600015           
       0.435682             0.00203838323            0.000407014567           
       0.436361             0.00202073154            0.000404706066           
       0.437041             0.00194109977            0.000396122366           
       0.437720             0.00154885262            0.000355549621           
       0.438399             0.00191204959            0.000397104796           
       0.439078             0.00221898282            0.000440197015           
       0.439757             0.00157567913            0.000368655134           
       0.440436              0.0029051216            0.000511855539           
       0.441116             0.00283824024            0.000514202238           
       0.441795             0.00321147885            0.000547626985           
       0.442474             0.00314579019              0.0005435087           
       0.443153             0.00153918184            0.000389047055           
       0.443832             0.00282569341            0.000528020893           
       0.444511             0.00183603326              0.0004237089           
       0.445191             0.00225525186            0.000481018578           
       0.445870             0.00276214738            0.000532352881           
       0.446549             0.00240070659            0.000501535204           
       0.447228             0.00216325204            0.000473395859           
       0.447907             0.00190266353            0.000449295555           
       0.448586              0.0020110522            0.000473029963           
       0.449266              0.0014210228             0.00039397102           
       0.449945              0.0019462408            0.000459184272           
       0.450624             0.00352472549            0.000627760432           
       0.451303             0.00220858096            0.000503363159           
       0.451982             0.00216404659            0.000495182137           
       0.452661             0.00320886218            0.000614219637           
       0.453341             0.00439768912            0.000721572085           
       0.454020             0.00253101136            0.000548246446           
       0.454699             0.00209221218            0.000503014093           
       0.455378             0.00185686157            0.000474132858           
       0.456057             0.00167921776            0.000458901672           
       0.456736             0.00155375197            0.000440048542           
       0.457416             0.00140455725            0.000418400114           
       0.458095             0.00134578865            0.000415480436           
       0.458774             0.00217592039             0.00053528562           
       0.459453             0.00272890279            0.000602480456           
       0.460132             0.00145548968            0.000430498542           
       0.460811             0.00241772569            0.000575544657           
       0.461490             0.00115738045            0.000394161311           
       0.462170             0.00217156581            0.000548336835           
       0.462849             0.00234060595            0.000572971176           
       0.463528             0.00275773317            0.000620492404           
       0.464207             0.00198741908            0.000536606735           
       0.464886             0.00153082814            0.000467282674           
       0.465565             0.00157810197            0.000479654759           
       0.466245             0.00127927968            0.000433201102           
       0.466924             0.00044066568            0.000260256129           
       0.467603            0.000568237916            0.000289268143           
       0.468282             0.00137947842            0.000461393239           
       0.468961             0.00185568995            0.000538654327           
       0.469640             0.00015470046            0.000156146533           
       0.470320             0.00110022928            0.000416704518           
       0.470999             0.00111931523             0.00042426759           
       0.471678             0.00130461163            0.000462443634           
       0.472357             0.00098785893            0.000403530517           
       0.473036            0.000678752528            0.000336602507           
       0.473715             0.00119224618            0.000449602572           
       0.474395             0.00193338047            0.000580452502           
       0.475074            0.000716194188            0.000353293844           
       0.475753            0.000192967934            0.000181802384           
       0.476432             0.00114315035            0.000458604782           
       0.477111            0.000217997205            0.000197846555           
       0.477790             0.00130635634            0.000486909341           
       0.478470            5.05194288e-05            9.70179514e-05           
       0.479149            0.000444647431            0.000290803565           
       0.479828             0.00175367713             0.00057615997           
       0.480507            0.000800027289            0.000392290703           
       0.481186           -0.000318592059                         0           
       0.481865            0.000265466206            0.000228207533           
       0.482545            7.91466337e-05             0.00012607042           
       0.483224            8.30842447e-05            0.000130051021           
       0.483903             0.00114065304            0.000489461768           
       0.484582            0.000113542964            0.000156937863           
       0.485261           -0.000115733042                         0           
       0.485940            0.000331030853            0.000271714276           
       0.486619            0.000309498516            0.000259838602           
       0.487299            0.000348507703            0.000280123404           
       0.487978           -0.000318783024                         0           
       0.488657            0.000156107607            0.000193227614           
       0.489336             0.00013761237            0.000178239492           
       0.490015           -9.28290663e-05                         0           
       0.490694           -0.000318860162                         0           
       0.491374           -9.58692502e-05                         0           
       0.492053           -0.000318898803                         0           
       0.492732           -0.000318918088                         0           
       0.493411             -6.636483e-05                         0           
       0.494090           -6.24437563e-05                         0           
       0.494769            -4.9661616e-05                         0           
       0.495449           -5.18781428e-05                         0           
       0.496128            0.000495505437            0.000364667494           
       0.496807           -4.06288636e-05                         0           
       0.497486           -0.000319054718                         0           
       0.498165           -0.000319074579                         0           
       0.498844            -0.00031909414                         0           
       0.499524           -0.000319113793                         0           
       0.500203           -0.000319133758                         0           
       0.500882            -0.00031915333                         0           
       0.501561           -2.47316898e-05                         0           
       0.502240            -0.00031919286                         0           
       0.502919           -2.13460123e-06                         0           
       0.503599           -0.000319232555                         0           
       0.504278           -0.000319252721                         0           
       0.504957            -0.00031927265                         0           
       0.505636           -0.000319292452                         0           
       0.506315            -0.00031931258                         0           
       0.506994           -0.000319332348                         0           
       0.507673            0.000373363947            0.000359698233           
       0.508353           -0.000319372219                         0           
       0.509032           -0.000319392277                         0           
       0.509711            2.15177711e-05            8.58634956e-05           
       0.510390            3.54004177e-05            0.000112920201           
       0.511069             0.00149034301            0.000734913877           
       0.511748           -0.000319473269                         0           
       0.512428           -0.000319493645                         0           
       0.513107           -0.000319513708                         0           
       0.513786            0.000886270786            0.000596458593           
       0.514465           -0.000319554302                         0           
       0.515144            9.25368092e-05            0.000196746614           
       0.515823           -0.000319595025                         0           
       0.516503            0.000106188734            0.000211143389           
       0.517182            -0.00031963594                         0           
       0.517861           -0.000319656347                         0           
       0.518540           -0.000319676869                         0           
       0.519219           -0.000319697272                         0           
       0.519898           -0.000319717882                         0           
       0.520578           -0.000319738615                         0           
       0.521257           -0.000319759081                         0           
       0.521936           -0.000319779595                         0           
       0.522615           -0.000319800355                         0           
       0.523294           -0.000319821193                         0           
       0.523973           -0.000319841742                         0           
       0.524653           -0.000319862144                         0           
       0.525332           -0.000319882842                         0           
       0.526011           -0.000319903912                         0           
       0.526690           -0.000319924943                         0           
       0.527369             -0.0003199458                         0           
       0.528048            0.000183968739            0.000304927853           
       0.528728           -0.000319987785                         0           
       0.529407           -0.000320008668                         0           
       0.530086           -0.000320029444                         0           
       0.530765           -0.000320050249                         0           
       0.531444           -0.000320071279                         0           
       0.532123            -0.00032009268                         0           
       0.532802           -0.000320113908                         0           
       0.533482           -0.000320135062                         0           
       0.534161            -0.00032015625                         0           
       0.534840           -0.000320177257                         0           
       0.535519           -0.000320198653                         0           
       0.536198           -0.000320219828                         0           
       0.536877            -0.00032024071                         0           
       0.537557           -0.000320261952                         0           
       0.538236             0.00032621043            0.000459808561           
       0.538915           -0.000320304811                         0           
       0.539594           -0.000320326208                         0           
       0.540273           -0.000320347939                         0           
       0.540952           -0.000320369428                         0           
       0.541632           -0.000320390524                         0           
       0.542311           -0.000320411813                         0           
       0.542990           -0.000320433342                         0           
       0.543669           -0.000320455049                         0           
       0.544348           -0.000320476732                         0           
       0.545027           -0.000320498367                         0           
       0.545707             0.00042784856            0.000561210307           
       0.546386            -0.00032054183                         0           
       0.547065           -0.000320563331                         0           
       0.547744           -0.000320584929                         0           
       0.548423           -0.000320606766                         0           
       0.549102           -0.000320628624                         0           
       0.549782           -0.000320650373                         0           
       0.550461           -0.000320672379                         0           
       0.551140           -0.000320694518                         0           
       0.551819           -0.000320716396                         0           
       0.552498            -0.00032073846                         0           
       0.553177           -0.000320760146                         0           
       0.553856           -0.000320781909                         0           
       0.554536           -0.000320803744                         0           
       0.555215           -0.000320825912                         0           
       0.555894           -0.000320848028                         0           
       0.556573           -0.000320870275                         0           
       0.557252           -0.000320892504                         0           
       0.557931           -0.000320914632                         0           
       0.558611           -0.000320937277                         0           
       0.559290           -0.000320959346                         0           
       0.559969            0.000811605048            0.000959192566           
       0.560648            -0.00032100297                         0           
       0.561327           -0.000321025559                         0           
       0.562006            0.000628541365            0.000771253017           
       0.562686           -0.000321070542                         0           
       0.563365           -0.000321093122                         0           
       0.564044           -0.000321115589                         0           
       0.564723           -0.000321138006                         0           
       0.565402           -0.000321160005                         0           
       0.566081            -0.00032118215                         0           
       0.566761           -0.000321204534                         0           
       0.567440           -0.000321227373                         0           
       0.568119           -0.000321250031                         0           
       0.568798           -0.000321273007                         0           
       0.569477           -0.000321295837                         0           
       0.570156           -0.000321318776                         0           
       0.570836            -0.00032134163                         0           
       0.571515           -0.000321364001                         0           
       0.572194            -0.00032138702                         0           
       0.572873           -0.000321409512                         0           
       0.573552             0.00143197178             0.00159185693           
       0.574231           -0.000321454685                         0           
       0.574911           -0.000321478074                         0           
       0.575590           -0.000321501012                         0           
       0.576269            -0.00032152388                         0           
       0.576948           -0.000321547188                         0           
       0.577627           -0.000321569785                         0           
       0.578306             -0.0003215927                         0           
       0.578985           -0.000321615812                         0           
       0.579665            -0.00032163879                         0           
       0.580344           -0.000321662116                         0           
       0.581023           -0.000321685417                         0           
       0.581702           -0.000321708502                         0           
       0.582381           -0.000321731378                         0           
       0.583060             0.00219716438             0.00242512661           
       0.583740           -0.000321778124                         0           
       0.584419           -0.000321801389                         0           
       0.585098           -0.000321824626                         0           
       0.585777           -0.000321848044                         0           
       0.586456           -0.000321871844                         0           
       0.587135            -0.00032189501                         0           
       0.587815           -0.000321917926                         0           
       0.588494           -0.000321941557                         0           
       0.589173            -0.00032196573                         0           
       0.589852           -0.000321988619                         0           
       0.590531            -0.00032201237                         0           
       0.591210           -0.000322035574                         0           
       0.591890           -0.000322059225                         0           
       0.592569           -0.000322082086                         0           
       0.593248           -0.000322107079                         0           
       0.593927           -0.000322130842                         0           
       0.594606           -0.000322155093                         0           
       0.595285             -0.0003221779                         0           
       0.595965           -0.000322199182                         0           
       0.596644           -0.000322221082                         0           
