################################################################################
# EDF_DataBlockID                     0.Image.Psd
# EDF_BinarySize                      4366944
# EDF_HeaderSize                      2560
# ByteOrder                           LowByteFirst
# DataType                            FloatValue
# Dim_1                               1028
# Dim_2                               1062
# Image                               0
# HeaderID                            EH:000000:000000:000000
# Size                                4366944
# Center_1                            607.5200
# Center_2                            651.5500
# Comment                             Xenocs_Cell_Window - 20251028_20perc_iodine_1.23mg
# DDummy                              0.6
# Date                                2025-10-31T20:01:27
# Delta                               0
# Dummy                               -1.5
# ExposureTime                        360
# Gamma                               0
# Intensity1                          8.64137e-10
# PSize_1                             7.5e-05
# PSize_2                             7.5e-05
# Pressure                            0.0327387
# SampleDistance                      0.450002
# SampleEnvKind                       large
# SampleEnvPN                         ElectroChemical cell
# SampleEnvSN                         1141
# Thickness                           0
# Wavelength                          1.541891e-10
# Wavelength                          1.54189e-10
# aux                                 0
# aux_dial                            0.002375
# beamx                               588.434
# beamx_dial                          588.434
# beamz                               657.808
# beamz_dial                          657.808
# det0x                               0
# det0x_dial                          6.36945
# det0xvd                             0
# det0xvd_dial                        0
# det0y                               450.002
# det0y_dial                          481.635
# det0z                               0
# det0z_dial                          1.23302
# det0zvd                             0
# det0zvd_dial                        0
# mag                                 1.818
# mag_dial                            1.818
# om                                  0.2499
# om_dial                             -0.610199
# phi                                 -0.0120535
# phi_dial                            0
# ry                                  0.599993
# ry_dial                             0.599993
# s1bot                               0.8
# s1bot_dial                          -1.66094
# s1hl                                0.8
# s1hl_dial                           -0.608437
# s1hr                                0.8
# s1hr_dial                           0.970938
# s1top                               0.8
# s1top_dial                          -0.461562
# s2bot                               0.45
# s2bot_dial                          1.36109
# s2hl                                0.45
# s2hl_dial                           -0.83375
# s2hr                                0.45
# s2hr_dial                           -0.118594
# s2top                               0.45
# s2top_dial                          1.44734
# w2theta                             32
# w2theta_dial                        32
# waxsch                              19.2605
# waxsch_dial                         -32.7355
# waxsh                               137.085
# waxsh_dial                          -43.5338
# waxsth                              26.0607
# waxsth_dial                         -19.4086
# waxsz                               67.0407
# waxsz_dial                          -23.7954
# wind                                65.9854
# wind_dial                           66.0041
# wpsi                                124
# wpsi_dial                           124
# wstod                               115
# wstod_dial                          115
# x                                   0
# x_dial                              1.00969
# z                                   0
# z_dial                              13.3172
# CountCutoff                         15302352
# DetectorModel                       Dectris EIGER2 Si 1M, S/N E-02-0362
# ThresholdSetting                    4023.88989258
# Saturation                          0
# FlatField                           Corrected
# BackgroundReductionExtra            0.02
# BackgroundCorrectionConstant        0.0026712
# Detector                            0
# Monitor                             0
# Pil_Roi0                            0
# SumForIntensity1                    3.11089e+08
# TransmittedFlux                     864137
# det                                 0
# mon                                 0
# pilai0                              3.11089e+08
# pilai1                              781425
# pilct0                              5.37862e+08
# pilct1                              781425
# pilroi0                             0
# pilroi1                             0
# sec                                 1
# title                               20251028_20perc_iodine_1.23mg_0_00706.edf
# usaxs0                              0
# Operation                           Azimuthal average I(q)
# Error_model                         ErrorModel.poisson
# Geometrical_correction              True
# Transmission_correction             True
# Thickness_correction                False
# Binning mode                        Uniform
# Binning factor                      1.0
# Psi                                 0.0
# Omega                               0.2499
# MaskInvalidPixels                   True
# DetectorEdge                        3
# MaskFiles                           ['20251028_20perc_iodine_1.23mg_0_00012_mask.edf']
################################################################################
    q(A⁻¹)                Intensity(a.u.)            Sigma_I(a.u.)            
       0.000340                372529.851                119.875532           
       0.001019                359336.911                72.0968967           
       0.001698                349538.715                50.2803552           
       0.002377                330949.612                43.7599358           
       0.003056                307925.399                35.6742251           
       0.003735                253577.192                28.5505672           
       0.004415                204688.376                25.6511204           
       0.005094                152608.815                19.1814005           
       0.005773                100553.327                14.4150277           
       0.006452                58449.2471                10.5301846           
       0.007131                32243.8591                7.57667134           
       0.007810                16237.7185                5.33583446           
       0.008490                8168.62688                3.35464767           
       0.009169                3959.62085                2.30828722           
       0.009848                1216.94384                 1.2372398           
       0.010527                471.705519               0.770290169           
       0.011206                117.930419               0.367591371           
       0.011885                54.1559135               0.231442652           
       0.012564                24.9915459               0.161416818           
       0.013244                 16.902956               0.124106214           
       0.013923                 12.378428               0.107918178           
       0.014602                 9.3868154              0.0871577322           
       0.015281                7.37368102              0.0786353511           
       0.015960                6.03685864              0.0706410407           
       0.016639                5.02717392              0.0608734844           
       0.017319                4.13215346              0.0543309381           
       0.017998                3.57119519              0.0483211366           
       0.018677                2.98353241              0.0457447097           
       0.019356                2.45129019               0.040970566           
       0.020035                2.11340458              0.0356910382           
       0.020714                1.79505737              0.0332413965           
       0.021394                1.57668127              0.0294769063           
       0.022073                1.38101889              0.0287024597           
       0.022752                1.29028547              0.0265396832           
       0.023431                1.07955823              0.0235642251           
       0.024110                1.02572374               0.023947051           
       0.024789               0.892378995              0.0207439618           
       0.025469               0.783719666              0.0200331608           
       0.026148               0.701034696              0.0178022049           
       0.026827               0.669231976              0.0176720626           
       0.027506               0.585325146              0.0167654617           
       0.028185               0.558970942              0.0156242024           
       0.028864               0.496989413              0.0146498479           
       0.029544               0.451515005               0.013540709           
       0.030223               0.423855726              0.0133075372           
       0.030902               0.413867428              0.0132701403           
       0.031581               0.356718617              0.0117114267           
       0.032260               0.351424556              0.0118222619           
       0.032939               0.301874466              0.0105650829           
       0.033619               0.286759506              0.0104485228           
       0.034298               0.262351839             0.00972575267           
       0.034977               0.257784963             0.00945127005           
       0.035656               0.236292062              0.0092881772           
       0.036335               0.235161746             0.00898679603           
       0.037014               0.189871947             0.00809926231           
       0.037693               0.202679295             0.00804987025           
       0.038373               0.170286065             0.00745100536           
       0.039052               0.167444241              0.0074200067           
       0.039731               0.158772911             0.00705694246           
       0.040410               0.147410655             0.00675415878           
       0.041089               0.155757639             0.00683399645           
       0.041768               0.134318422             0.00637941615           
       0.042448               0.130147416               0.006230858           
       0.043127               0.129430689             0.00606692333           
       0.043806               0.120325355             0.00589324687           
       0.044485               0.122392098             0.00582154114           
       0.045164               0.117144343             0.00580762059           
       0.045843               0.119028048             0.00561481895           
       0.046523               0.103359804               0.005250299           
       0.047202               0.103268656             0.00528465556           
       0.047881               0.101330569             0.00513388099           
       0.048560               0.107792333             0.00534330606           
       0.049239              0.0951737952             0.00482089501           
       0.049918              0.0825050449             0.00457632976           
       0.050598               0.093777716             0.00480575602           
       0.051277              0.0782886048             0.00437704368           
       0.051956              0.0734465075             0.00421290208           
       0.052635              0.0779895754             0.00424911252           
       0.053314              0.0787081383             0.00439344478           
       0.053993              0.0801990837             0.00431322576           
       0.054673              0.0724604974             0.00400852531           
       0.055352              0.0730165498             0.00408298122           
       0.056031              0.0721443849             0.00397324759           
       0.056710               0.068355903             0.00396229156           
       0.057389              0.0702019867             0.00387213291           
       0.058068              0.0766746608             0.00408841924           
       0.058748               0.067521204             0.00388448557           
       0.059427              0.0666706039             0.00379458831           
       0.060106              0.0641705632             0.00375799766           
       0.060785              0.0608263452             0.00354913922           
       0.061464              0.0626307837             0.00368820486           
       0.062143                0.05525624             0.00342907956           
       0.062822              0.0580384588             0.00347310847           
       0.063502              0.0549189573             0.00337244551           
       0.064181              0.0550648544              0.0033412626           
       0.064860              0.0553225407             0.00340008132           
       0.065539              0.0518622593             0.00325984033           
       0.066218              0.0562526484             0.00332232471           
       0.066897                0.04681939              0.0030543809           
       0.067577              0.0424517979             0.00293637019           
       0.068256              0.0465406114             0.00315005493           
       0.068935              0.0521502004             0.00328057812           
       0.069614              0.0459471301             0.00310995086           
       0.070293              0.0474259896             0.00318873813           
       0.070972              0.0381392195             0.00283860534           
       0.071652              0.0435399758              0.0030384988           
       0.072331              0.0398832072             0.00285627527           
       0.073010              0.0449583474             0.00310185662           
       0.073689              0.0379155649              0.0028329064           
       0.074368              0.0422380912             0.00298459249           
       0.075047              0.0403544349             0.00288592657           
       0.075727              0.0394148718             0.00283451654           
       0.076406               0.037354091             0.00281447822           
       0.077085              0.0374449713             0.00276523715           
       0.077764              0.0393272891             0.00282395768           
       0.078443              0.0367431007             0.00274650044           
       0.079122              0.0413287741             0.00288486667           
       0.079802              0.0358245134             0.00271438507           
       0.080481              0.0318935646             0.00247474542           
       0.081160              0.0364645612             0.00270044935           
       0.081839              0.0385530982             0.00273225384           
       0.082518              0.0384504964             0.00273091375           
       0.083197              0.0319718788             0.00245154633           
       0.083876              0.0336709031             0.00247403765           
       0.084556              0.0347955919             0.00258496311           
       0.085235              0.0310792711              0.0023958233           
       0.085914               0.032850884             0.00248708932           
       0.086593              0.0275373836             0.00226242926           
       0.087272              0.0342908347             0.00248897212           
       0.087951              0.0318032562             0.00245113879           
       0.088631               0.029112076             0.00226526293           
       0.089310              0.0272145808             0.00223664808           
       0.089989              0.0317659219             0.00238819827           
       0.090668               0.031189616             0.00239255664           
       0.091347              0.0291442043             0.00232572349           
       0.092026               0.029620362             0.00224110172           
       0.092706              0.0319419161             0.00241174378           
       0.093385              0.0296493763              0.0022879028           
       0.094064              0.0289657684             0.00228769274           
       0.094743              0.0294906167             0.00227314891           
       0.095422              0.0306412406             0.00229123203           
       0.096101              0.0316061732             0.00237495517           
       0.096781              0.0270517411             0.00216572713           
       0.097460              0.0257682856              0.0020560674           
       0.098139              0.0299642028             0.00220009448           
       0.098818               0.029368752              0.0021513013           
       0.099497               0.027483881             0.00208539478           
       0.100176               0.028286019               0.002060083           
       0.100856              0.0300440272             0.00212177581           
       0.101535              0.0278386362             0.00203847782           
       0.102214              0.0233706109             0.00186775426           
       0.102893              0.0282034647             0.00202842646           
       0.103572              0.0233174216             0.00181712439           
       0.104251              0.0238652165             0.00184513655           
       0.104931              0.0241091222             0.00183765751           
       0.105610              0.0270390348             0.00195442086           
       0.106289              0.0236179177              0.0017962018           
       0.106968              0.0247610092             0.00184461389           
       0.107647              0.0223347374             0.00175296122           
       0.108326              0.0258934345             0.00186220533           
       0.109005              0.0244915714             0.00179969939           
       0.109685              0.0233280629             0.00173672871           
       0.110364              0.0259425359             0.00185226767           
       0.111043              0.0257561111             0.00183828273           
       0.111722              0.0236888507             0.00174141858           
       0.112401               0.025102384             0.00179760675           
       0.113080              0.0246531562              0.0017610348           
       0.113760              0.0240960731             0.00177010403           
       0.114439              0.0209725255             0.00162782693           
       0.115118              0.0220597476               0.001656899           
       0.115797               0.020667958             0.00161863667           
       0.116476              0.0255765943             0.00177366946           
       0.117155              0.0216509841             0.00164504905           
       0.117835               0.023785074              0.0016899414           
       0.118514              0.0209446608             0.00160593538           
       0.119193              0.0231459039             0.00168822997           
       0.119872              0.0218554037             0.00161997482           
       0.120551              0.0194481903             0.00151797945           
       0.121230              0.0201719933             0.00153041115           
       0.121910              0.0188149498             0.00149232162           
       0.122589              0.0248926129             0.00171827801           
       0.123268              0.0208748113             0.00154302571           
       0.123947              0.0222941239             0.00160493255           
       0.124626              0.0212127994              0.0015463856           
       0.125305              0.0213001347             0.00155716983           
       0.125985              0.0213672734             0.00154752016           
       0.126664              0.0195479121               0.001466072           
       0.127343              0.0202308279              0.0015087491           
       0.128022              0.0221470197              0.0015664768           
       0.128701              0.0204866981              0.0014987668           
       0.129380              0.0199747445             0.00146138624           
       0.130059                  0.020154             0.00147133796           
       0.130739              0.0192539142             0.00144822059           
       0.131418              0.0210900162             0.00151145784           
       0.132097              0.0192998627             0.00142734489           
       0.132776              0.0191083958              0.0014138352           
       0.133455              0.0206742813             0.00148205031           
       0.134134              0.0240510905             0.00159341858           
       0.134814              0.0192038645             0.00140915493           
       0.135493              0.0212337715             0.00148775706           
       0.136172              0.0185320718             0.00137939762           
       0.136851              0.0200214476             0.00144209449           
       0.137530              0.0216104183             0.00146263144           
       0.138209              0.0219441834             0.00149118722           
       0.138889              0.0195048933             0.00141206413           
       0.139568              0.0182816866             0.00136647919           
       0.140247              0.0207656096             0.00145444641           
       0.140926              0.0186830824              0.0013401423           
       0.141605              0.0204100638             0.00143629807           
       0.142284              0.0185392785             0.00134620736           
       0.142964              0.0197616971             0.00139519715           
       0.143643              0.0181318913             0.00133473805           
       0.144322              0.0194323086             0.00135285893           
       0.145001              0.0178236946             0.00132224922           
       0.145680              0.0204819887             0.00138389226           
       0.146359                0.01897186             0.00133677068           
       0.147039              0.0208296277             0.00141222393           
       0.147718              0.0163195742             0.00122939387           
       0.148397              0.0198277588             0.00137616402           
       0.149076              0.0192122846             0.00131261376           
       0.149755               0.019849194             0.00135479447           
       0.150434              0.0208842105             0.00139023503           
       0.151114              0.0185250068             0.00130211575           
       0.151793              0.0184399318              0.0012991344           
       0.152472              0.0184880859             0.00127785157           
       0.153151              0.0179671762             0.00127189975           
       0.153830              0.0174239789             0.00124340001           
       0.154509              0.0170215749             0.00122383049           
       0.155188              0.0211338918             0.00136317178           
       0.155868              0.0191647684             0.00128887591           
       0.156547              0.0170841829             0.00122472112           
       0.157226              0.0180569611             0.00122835333           
       0.157905              0.0200875353             0.00130646253           
       0.158584              0.0193171474             0.00127883765           
       0.159263               0.017142906             0.00120915277           
       0.159943              0.0163337511             0.00118115177           
       0.160622              0.0171892813             0.00118830631           
       0.161301              0.0209338754             0.00132890722           
       0.161980              0.0179304639             0.00120897922           
       0.162659              0.0181841835             0.00123099741           
       0.163338              0.0199296298             0.00127821994           
       0.164018              0.0185023237             0.00122513426           
       0.164697              0.0175016187             0.00120684264           
       0.165376              0.0164566046              0.0011446894           
       0.166055              0.0169410934              0.0011690768           
       0.166734              0.0164067837             0.00114533951           
       0.167413              0.0180908949             0.00120352885           
       0.168093              0.0195589578             0.00126324666           
       0.168772              0.0172139001             0.00115044171           
       0.169451              0.0155450072             0.00111336641           
       0.170130              0.0180766794              0.0011848482           
       0.170809              0.0161985919             0.00113499565           
       0.171488              0.0166964331              0.0011418004           
       0.172168              0.0165978325             0.00112748742           
       0.172847              0.0171304798             0.00116048228           
       0.173526              0.0168522683             0.00112906267           
       0.174205               0.017070179             0.00114157241           
       0.174884              0.0177203492             0.00115704817           
       0.175563              0.0173561014             0.00114998379           
       0.176243               0.017393961             0.00116275859           
       0.176922              0.0182504418             0.00116000331           
       0.177601              0.0156679998             0.00108661597           
       0.178280              0.0149267219             0.00104876063           
       0.178959              0.0176526845             0.00114968465           
       0.179638              0.0169354474             0.00112284356           
       0.180317              0.0169281652               0.001114424           
       0.180997              0.0152428855             0.00106323678           
       0.181676              0.0168948245             0.00110741656           
       0.182355              0.0172538724             0.00112584343           
       0.183034              0.0183753565             0.00114320988           
       0.183713              0.0172554681             0.00112131737           
       0.184392              0.0165819919             0.00109888471           
       0.185072              0.0176042539             0.00111934686           
       0.185751              0.0169219254             0.00110049297           
       0.186430              0.0158392351             0.00105724822           
       0.187109              0.0191531904             0.00117554788           
       0.187788              0.0179754404               0.001136024           
       0.188467              0.0158765939             0.00105500924           
       0.189147              0.0170682679             0.00110496435           
       0.189826              0.0151492434             0.00102258719           
       0.190505              0.0176374089             0.00112153581           
       0.191184              0.0145808603             0.00100503829           
       0.191863              0.0171424917             0.00109204861           
       0.192542              0.0161271961              0.0010692044           
       0.193222              0.0158176828              0.0010351646           
       0.193901              0.0185852277             0.00113711492           
       0.194580              0.0163469204             0.00104779004           
       0.195259              0.0173407756              0.0010915658           
       0.195938              0.0145921043             0.00100371441           
       0.196617              0.0167333104             0.00105983259           
       0.197297              0.0157349415             0.00103192605           
       0.197976              0.0147857888            0.000984953111           
       0.198655              0.0155690692             0.00102174526           
       0.199334              0.0154124116             0.00100762679           
       0.200013              0.0160508669             0.00102771521           
       0.200692              0.0161935953             0.00103848356           
       0.201371              0.0149862544            0.000987769665           
       0.202051              0.0161776828             0.00102947485           
       0.202730              0.0153527528            0.000992867337           
       0.203409              0.0160072848             0.00102061638           
       0.204088              0.0161763326             0.00102485659           
       0.204767              0.0151569014             0.00098682391           
       0.205446               0.016387923             0.00102812101           
       0.206126              0.0162442063             0.00100969612           
       0.206805              0.0160107308             0.00102079049           
       0.207484              0.0149804315            0.000969649124           
       0.208163              0.0164901755             0.00102345085           
       0.208842              0.0155372428            0.000990747239           
       0.209521              0.0148363105            0.000960095658           
       0.210201               0.014556487            0.000961610908           
       0.210880              0.0167945887             0.00101262554           
       0.211559              0.0159704908             0.00100206844           
       0.212238              0.0156657162            0.000987410698           
       0.212917              0.0148211411            0.000956856758           
       0.213596              0.0147371457            0.000959783239           
       0.214276              0.0156799908            0.000969384142           
       0.214955               0.015991291            0.000999546444           
       0.215634               0.014657674            0.000950101437           
       0.216313               0.015754389             0.00098293617           
       0.216992              0.0139690332            0.000925334876           
       0.217671              0.0148538463            0.000947727524           
       0.218351              0.0155290413            0.000978505298           
       0.219030              0.0143048432            0.000924320338           
       0.219709              0.0166495888             0.00100342132           
       0.220388              0.0149390629            0.000949259518           
       0.221067              0.0144802553            0.000935309977           
       0.221746              0.0154842835            0.000966201984           
       0.222426               0.015470381            0.000951334838           
       0.223105              0.0163384938            0.000990981559           
       0.223784              0.0148882253            0.000936594664           
       0.224463              0.0147008106            0.000938092636           
       0.225142              0.0144063524            0.000913956521           
       0.225821              0.0151703957            0.000941657166           
       0.226500              0.0125230381            0.000860997457           
       0.227180              0.0159827593            0.000957701052           
       0.227859              0.0154937503            0.000947166475           
       0.228538              0.0152744797            0.000930996941           
       0.229217              0.0140370013            0.000899552136           
       0.229896              0.0137227978            0.000888999198           
       0.230575              0.0153526756            0.000925322993           
       0.231255              0.0155967999            0.000946614213           
       0.231934              0.0149238046            0.000919639851           
       0.232613              0.0133249916             0.00087218943           
       0.233292              0.0154023501            0.000928654897           
       0.233971              0.0136165371            0.000872753245           
       0.234650               0.013265784            0.000871571727           
       0.235330               0.014938035             0.00091679947           
       0.236009              0.0150416985            0.000917992042           
       0.236688              0.0161576147            0.000948030034           
       0.237367              0.0145336431            0.000900432242           
       0.238046              0.0159603018             0.00095023743           
       0.238725               0.014081313            0.000878781121           
       0.239405               0.014221867            0.000888632476           
       0.240084              0.0152415255            0.000914079214           
       0.240763              0.0158738547            0.000941780145           
       0.241442              0.0135219975            0.000856970407           
       0.242121              0.0143407896             0.00088420086           
       0.242800              0.0138169205            0.000872009503           
       0.243480              0.0151601986            0.000909137906           
       0.244159              0.0150519309            0.000906324082           
       0.244838              0.0140816682            0.000862201659           
       0.245517              0.0139565175             0.00087070888           
       0.246196              0.0155401843            0.000919225119           
       0.246875               0.014953034            0.000889123097           
       0.247554              0.0154728756            0.000913638311           
       0.248234               0.013542035            0.000841773119           
       0.248913              0.0140716193            0.000867699878           
       0.249592              0.0134959707            0.000841691598           
       0.250271               0.013148148             0.00082836229           
       0.250950              0.0153131369            0.000899439556           
       0.251629              0.0145805331            0.000870201014           
       0.252309              0.0126147218            0.000811058648           
       0.252988              0.0129232101            0.000806775177           
       0.253667              0.0130279549            0.000819502467           
       0.254346              0.0137041858            0.000840329054           
       0.255025              0.0144008414            0.000859536469           
       0.255704              0.0151794444            0.000878424901           
       0.256384              0.0143583206            0.000851380034           
       0.257063              0.0124947557            0.000798738466           
       0.257742              0.0126722913            0.000798819516           
       0.258421              0.0128761065            0.000803667879           
       0.259100              0.0119646017            0.000776050772           
       0.259779              0.0139660726             0.00083774116           
       0.260459              0.0137473444            0.000832787383           
       0.261138              0.0137472252            0.000816509224           
       0.261817              0.0121448309            0.000782940218           
       0.262496              0.0138442581            0.000827727733           
       0.263175              0.0127383044            0.000795683373           
       0.263854              0.0135620611            0.000817193533           
       0.264534              0.0129354289            0.000791274813           
       0.265213              0.0113185153            0.000751834525           
       0.265892               0.013947445            0.000823900627           
       0.266571              0.0132484757            0.000801164533           
       0.267250               0.011930371            0.000761547011           
       0.267929              0.0130206123            0.000794767135           
       0.268609              0.0128733126            0.000794585727           
       0.269288               0.013240898            0.000792463245           
       0.269967              0.0121469548            0.000767199478           
       0.270646              0.0133130611            0.000799709241           
       0.271325              0.0117341502            0.000752044804           
       0.272004              0.0119122974            0.000750178708           
       0.272683              0.0121877508            0.000759740082           
       0.273363              0.0127766926            0.000782840999           
       0.274042              0.0119640801            0.000753067817           
       0.274721               0.011138139            0.000726178171           
       0.275400              0.0117642688            0.000741368798           
       0.276079              0.0116149585            0.000740831966           
       0.276758              0.0118610378            0.000758086144           
       0.277438              0.0124594201            0.000768251695           
       0.278117              0.0123352765            0.000778314608           
       0.278796              0.0106902181            0.000717204925           
       0.279475              0.0125413541            0.000789655912           
       0.280154              0.0112631647            0.000737570459           
       0.280833               0.012336711            0.000776615521           
       0.281513              0.0113291409             0.00075590195           
       0.282192               0.010912236            0.000729206802           
       0.282871               0.010424775            0.000717713947           
       0.283550              0.0112304366            0.000748923596           
       0.284229              0.0108653944            0.000747470751           
       0.284908              0.0136136892            0.000845505031           
       0.285588             0.00956543506            0.000700430438           
       0.286267              0.0107843638            0.000755629044           
       0.286946              0.0118482225            0.000786872758           
       0.287625              0.0104498031             0.00075156115           
       0.288304              0.0100319397            0.000726525104           
       0.288983              0.0110539248            0.000772292183           
       0.289663              0.0116831477            0.000798615566           
       0.290342              0.0109445784            0.000768846014           
       0.291021              0.0110722771            0.000777484599           
       0.291700              0.0104191284            0.000744351715           
       0.292379              0.0107580159            0.000773677719           
       0.293058             0.00922295857            0.000713650464           
       0.293738             0.00998404849            0.000736277304           
       0.294417              0.0101755934            0.000751946132           
       0.295096              0.0104887639            0.000755037015           
       0.295775              0.0109820345            0.000784386079           
       0.296454             0.00954355619            0.000721754666           
       0.297133             0.00996940105            0.000741171679           
       0.297812               0.010904159            0.000779028108           
       0.298492              0.0105820563            0.000768918592           
       0.299171              0.0100426398             0.00074764744           
       0.299850             0.00977934455            0.000732743523           
       0.300529              0.0121291076            0.000825232434           
       0.301208             0.00894197498            0.000710287393           
       0.301887             0.00878595983            0.000703227101           
       0.302567             0.00869103638            0.000695915022           
       0.303246             0.00899579544            0.000712633808           
       0.303925              0.0102172144             0.00076922543           
       0.304604             0.00943548702            0.000723251179           
       0.305283              0.0093854683            0.000732029808           
       0.305962             0.00898104495            0.000711758449           
       0.306642             0.00974912073              0.0007516412           
       0.307321             0.00992132726            0.000755829319           
       0.308000             0.00839278292            0.000686931276           
       0.308679             0.00989273118            0.000761943766           
       0.309358             0.00840716888            0.000692906855           
       0.310037             0.00988194318            0.000752900708           
       0.310717             0.00946490206            0.000736133445           
       0.311396             0.00825088705            0.000691913403           
       0.312075             0.00829450618            0.000702537354           
       0.312754             0.00750363538            0.000654837639           
       0.313433              0.0082749768            0.000693652453           
       0.314112             0.00844871059            0.000700735387           
       0.314792             0.00879292853            0.000719915781           
       0.315471             0.00893182123            0.000716606426           
       0.316150             0.00919621232            0.000733864785           
       0.316829             0.00868381014            0.000717835905           
       0.317508             0.00820130993            0.000689780274           
       0.318187             0.00914151668            0.000737853057           
       0.318866             0.00877240122             0.00071306614           
       0.319546             0.00942093364             0.00075003095           
       0.320225             0.00886778832            0.000727693275           
       0.320904             0.00819014786            0.000688523907           
       0.321583             0.00807694758            0.000698815331           
       0.322262             0.00671624913            0.000627580813           
       0.322941              0.0092816927             0.00074722009           
       0.323621             0.00757519647            0.000670924084           
       0.324300             0.00914542486            0.000737765989           
       0.324979             0.00772033132            0.000679077125           
       0.325658             0.00932315445             0.00074760077           
       0.326337             0.00737081332            0.000665598765           
       0.327016             0.00894885912            0.000728740106           
       0.327696             0.00721246066            0.000661506359           
       0.328375             0.00767527506            0.000676642046           
       0.329054             0.00956267424            0.000759365411           
       0.329733             0.00763188736            0.000680863802           
       0.330412             0.00785887135            0.000685253539           
       0.331091              0.0078564584            0.000697576553           
       0.331771              0.0080167407            0.000686192068           
       0.332450             0.00755983309             0.00067928807           
       0.333129             0.00744856121            0.000672530498           
       0.333808             0.00825139394            0.000708782651           
       0.334487             0.00662715162            0.000638215185           
       0.335166             0.00719326943            0.000655184851           
       0.335846             0.00839438481            0.000720212707           
       0.336525             0.00760980395            0.000678959636           
       0.337204             0.00699130731            0.000652489445           
       0.337883              0.0063315259            0.000621761439           
       0.338562             0.00739293556            0.000675587228           
       0.339241             0.00692092355             0.00065488951           
       0.339921             0.00691949971            0.000643840837           
       0.340600             0.00757884991            0.000686614464           
       0.341279             0.00661912495            0.000634798575           
       0.341958             0.00631645968             0.00062886416           
       0.342637             0.00571487238            0.000589717682           
       0.343316             0.00622016661            0.000617017468           
       0.343995             0.00744911295            0.000686281582           
       0.344675             0.00698829705            0.000652499445           
       0.345354             0.00689939301            0.000652612233           
       0.346033             0.00772715051             0.00068885191           
       0.346712             0.00564433011            0.000592495055           
       0.347391              0.0074232062            0.000683683438           
       0.348070              0.0053778827            0.000573658095           
       0.348750             0.00598467098             0.00061390056           
       0.349429             0.00722846063            0.000665974553           
       0.350108             0.00584120723            0.000605872029           
       0.350787             0.00597185816            0.000602202813           
       0.351466             0.00609659752             0.00061966823           
       0.352145             0.00529207931            0.000577815091           
       0.352825             0.00643226489            0.000634141315           
       0.353504             0.00561963055            0.000592586088           
       0.354183             0.00627489036            0.000618967776           
       0.354862             0.00569557023            0.000603406457           
       0.355541             0.00714989964            0.000667215337           
       0.356220             0.00611302144            0.000618106871           
       0.356900             0.00584943346            0.000610376999           
       0.357579              0.0056544622            0.000592759764           
       0.358258             0.00592107551            0.000614967477           
       0.358937             0.00497520881            0.000553114291           
       0.359616             0.00662807673            0.000647329874           
       0.360295             0.00651757272            0.000642445773           
       0.360975              0.0056441179            0.000595292232           
       0.361654             0.00501452899            0.000564001815           
       0.362333             0.00483610618            0.000551060679           
       0.363012             0.00476187617             0.00055385067           
       0.363691             0.00592556973            0.000605640358           
       0.364370             0.00702684341            0.000667704657           
       0.365050             0.00470242616            0.000543294234           
       0.365729             0.00531322946            0.000583008356           
       0.366408             0.00610710635            0.000626431786           
       0.367087             0.00391781883            0.000493692128           
       0.367766             0.00636255691            0.000642252483           
       0.368445             0.00593513929             0.00060929193           
       0.369124             0.00526900975            0.000578592538           
       0.369804             0.00500594639            0.000563061653           
       0.370483             0.00478548802            0.000552932399           
       0.371162             0.00574747674            0.000609478189           
       0.371841             0.00423200977              0.0005138708           
       0.372520             0.00455504915            0.000543808902           
       0.373199             0.00449674035              0.0005338617           
       0.373879             0.00461032507            0.000546820701           
       0.374558             0.00459397211            0.000537884814           
       0.375237             0.00454582631            0.000535935925           
       0.375916             0.00433543601            0.000533413602           
       0.376595             0.00516401251            0.000570780609           
       0.377274             0.00404387881            0.000513181884           
       0.377954               0.005366771            0.000581905269           
       0.378633             0.00407836885            0.000513680301           
       0.379312             0.00420907003            0.000521714712           
       0.379991             0.00557606609            0.000597379484           
       0.380670             0.00411833233            0.000522463596           
       0.381349             0.00574191583            0.000608054919           
       0.382029             0.00418566478            0.000526593073           
       0.382708             0.00373890516            0.000486828747           
       0.383387             0.00445082804            0.000543196095           
       0.384066             0.00423492353            0.000524995755           
       0.384745             0.00467650803            0.000553857124           
       0.385424             0.00561886256            0.000609163196           
       0.386104             0.00420177268            0.000520954293           
       0.386783             0.00400134037            0.000519373371           
       0.387462             0.00378145531             0.00049234084           
       0.388141             0.00424314016            0.000529860654           
       0.388820             0.00392286757            0.000505788585           
       0.389499             0.00429962989            0.000532501394           
       0.390178              0.0038013575            0.000502690397           
       0.390858             0.00432466669            0.000531837654           
       0.391537             0.00381291844            0.000504479752           
       0.392216             0.00434746935            0.000531931019           
       0.392895             0.00400153998            0.000512048693           
       0.393574             0.00424242566              0.0005259288           
       0.394253             0.00442237454            0.000539382666           
       0.394933             0.00392708495            0.000514089836           
       0.395612             0.00355599896            0.000474988061           
       0.396291             0.00437017974            0.000537284605           
       0.396970             0.00332049825            0.000464185334           
       0.397649             0.00405768441            0.000514711646           
       0.398328             0.00370106908            0.000489412769           
       0.399008             0.00456482091            0.000542348821           
       0.399687             0.00370637452            0.000490599567           
       0.400366             0.00361320429            0.000482541307           
       0.401045             0.00405281087            0.000510087293           
       0.401724             0.00361348204            0.000482451436           
       0.402403             0.00419001468             0.00052356454           
       0.403083             0.00445035134            0.000531804058           
       0.403762             0.00353597155            0.000476370864           
       0.404441             0.00429092966            0.000528109246           
       0.405120             0.00348926676            0.000474666583           
       0.405799             0.00492554177            0.000561510336           
       0.406478             0.00384114689             0.00049587489           
       0.407158             0.00465450009            0.000544831671           
       0.407837             0.00336950422            0.000467654648           
       0.408516             0.00328550861            0.000457771675           
       0.409195             0.00401271815            0.000511641566           
       0.409874             0.00308330211            0.000454731794           
       0.410553             0.00315646166            0.000465043376           
       0.411233             0.00252150067            0.000413491486           
       0.411912              0.0027359997            0.000436822942           
       0.412591             0.00355979506             0.00050156212           
       0.413270             0.00275949535            0.000439500026           
       0.413949              0.0031088374            0.000471585824           
       0.414628             0.00367106686            0.000511537448           
       0.415307             0.00272833194            0.000445896541           
       0.415987             0.00333279583            0.000488760612           
       0.416666             0.00364626414            0.000508153657           
       0.417345             0.00377111042            0.000525409742           
       0.418024             0.00195299211            0.000378115781           
       0.418703             0.00251819487            0.000428568893           
       0.419382             0.00306605085            0.000470578645           
       0.420062             0.00337316777             0.00049496741           
       0.420741             0.00341538161            0.000500703615           
       0.421420             0.00241675593            0.000422786832           
       0.422099              0.0027104147            0.000447748579           
       0.422778             0.00259005564             0.00044006455           
       0.423457             0.00284860529             0.00046433143           
       0.424137             0.00311722003            0.000477815037           
       0.424816             0.00311549477            0.000487666015           
       0.425495             0.00295414993            0.000474421325           
       0.426174             0.00369984986             0.00053111923           
       0.426853             0.00292189352            0.000469122332           
       0.427532             0.00174864235            0.000365982914           
       0.428212             0.00270886183            0.000458523064           
       0.428891             0.00269838922            0.000456594976           
       0.429570             0.00238238285            0.000429320328           
       0.430249              0.0016668533             0.00035724294           
       0.430928             0.00175457382            0.000374537508           
       0.431607             0.00153283367            0.000344056642           
       0.432287             0.00116463629            0.000302097245           
       0.432966             0.00326988444            0.000510647452           
       0.433645             0.00232129916            0.000430698951           
       0.434324              0.0019706958            0.000394450251           
       0.435003             0.00222121193            0.000419487056           
       0.435682             0.00265719197            0.000462575278           
       0.436361             0.00160696314            0.000359246281           
       0.437041             0.00327768123            0.000512380641           
       0.437720              0.0021027921            0.000412379684           
       0.438399             0.00165300462            0.000367533143           
       0.439078             0.00322826406            0.000528516522           
       0.439757             0.00215909623            0.000429562454           
       0.440436             0.00297713021            0.000515784259           
       0.441116             0.00290421757            0.000517759267           
       0.441795             0.00217927922            0.000449047896           
       0.442474             0.00276337964            0.000507067552           
       0.443153             0.00231388329             0.00047482307           
       0.443832             0.00192692123            0.000434034737           
       0.444511             0.00133128867            0.000359142955           
       0.445191              0.0023278023            0.000486453453           
       0.445870             0.00334376411            0.000583039422           
       0.446549             0.00236264336            0.000495261861           
       0.447228             0.00245414245             0.00050190867           
       0.447907             0.00156932574            0.000406173508           
       0.448586             0.00221782891            0.000494475661           
       0.449266             0.00185160357            0.000447653183           
       0.449945             0.00183351659            0.000443644457           
       0.450624             0.00158653199             0.00041923702           
       0.451303             0.00240726558            0.000523107188           
       0.451982             0.00238020118            0.000516942714           
       0.452661             0.00152383572            0.000421328813           
       0.453341             0.00225819209            0.000514697219           
       0.454020             0.00250851896             0.00054330211           
       0.454699             0.00387556022            0.000681472686           
       0.455378             0.00196539792            0.000485556147           
       0.456057             0.00227720314            0.000531950152           
       0.456736             0.00190338417            0.000484815935           
       0.457416             0.00301268344            0.000609961946           
       0.458095             0.00184107947            0.000483729236           
       0.458774             0.00151094866            0.000444010101           
       0.459453             0.00138169606            0.000426735831           
       0.460132              0.0014470378            0.000427278439           
       0.460811             0.00212400598            0.000536978999           
       0.461490             0.00101688945            0.000367770351           
       0.462170             0.00297147216            0.000638484967           
       0.462849             0.00190198807            0.000514134132           
       0.463528             0.00162358327            0.000473916197           
       0.464207             0.00197170256            0.000532029865           
       0.464886             0.00136742573            0.000439614748           
       0.465565             0.00227948591            0.000573830466           
       0.466245             0.00157057791             0.00047779375           
       0.466924             0.00181209367            0.000525340149           
       0.467603             0.00143843252            0.000458125188           
       0.468282            0.000295444247            0.000212547235           
       0.468961             0.00107516465            0.000408130314           
       0.469640            0.000932266223            0.000381557888           
       0.470320            0.000932050269            0.000381777384           
       0.470999             0.00111548276            0.000421598447           
       0.471678             0.00164259617             0.00051652043           
       0.472357             0.00197067227            0.000567335606           
       0.473036             0.00148192919            0.000495084422           
       0.473715              0.0016988902            0.000534235066           
       0.474395             0.00156681404            0.000520140501           
       0.475074             0.00038036413            0.000256285698           
       0.475753            0.000704241776            0.000345717856           
       0.476432            0.000773942131            0.000375616849           
       0.477111            0.000573676224            0.000319477571           
       0.477790              0.0012821442             0.00048016404           
       0.478470             0.00133534819            0.000496505502           
       0.479149             0.00266893524            0.000709193538           
       0.479828              0.0033436915            0.000791927243           
       0.480507            0.000813442111             0.00039375208           
       0.481186           -0.000118795015                         0           
       0.481865            0.000265212952            0.000227052684           
       0.482545            -0.00011566193                         0           
       0.483224            0.000280834635            0.000238003685           
       0.483903            0.000719433824            0.000386937961           
       0.484582             0.00096785321            0.000456096024           
       0.485261            0.000705040601            0.000379414274           
       0.485940            -0.00010491149                         0           
       0.486619           -9.94606448e-05                         0           
       0.487299            0.000118459309            0.000162566749           
       0.487978            0.000511893476            0.000334494874           
       0.488657            0.000373960382              0.0002976966           
       0.489336            0.000372002136            0.000291710348           
       0.490015           -0.000315923395                         0           
       0.490694           -7.27519297e-05                         0           
       0.491374           -0.000315961582                         0           
       0.492053           -0.000315980825                         0           
       0.492732           -6.81788172e-05                         0           
       0.493411           -0.000316019289                         0           
       0.494090           -0.000316038773                         0           
       0.494769           -5.85879648e-05                         0           
       0.495449           -0.000316077256                         0           
       0.496128           -0.000316096691                         0           
       0.496807           -0.000316115914                         0           
       0.497486           -0.000316135313                         0           
       0.498165           -0.000316154992                         0           
       0.498844            -3.4708375e-05                         0           
       0.499524           -0.000316193848                         0           
       0.500203            -0.00031621363                         0           
       0.500882           -0.000316233023                         0           
       0.501561           -1.78411857e-05                         0           
       0.502240           -2.29211578e-05                         0           
       0.502919           -0.000316291817                         0           
       0.503599           -0.000316311523                         0           
       0.504278            1.23191682e-06            1.96454873e-05           
       0.504957           -0.000316351252                         0           
       0.505636           -0.000316370872                         0           
       0.506315           -0.000316390816                         0           
       0.506994            2.08951121e-05            8.37350274e-05           
       0.507673            2.39309835e-05            9.06475995e-05           
       0.508353           -0.000316449909                         0           
       0.509032           -0.000316469784                         0           
       0.509711           -0.000316489666                         0           
       0.510390            4.05158025e-05            0.000120249587           
       0.511069           -0.000316529988                         0           
       0.511748           -0.000316550035                         0           
       0.512428            6.05858989e-05            0.000151217752           
       0.513107            0.000436987195             0.00040548476           
       0.513786           -0.000316610045                         0           
       0.514465           -0.000316630326                         0           
       0.515144           -0.000316650593                         0           
       0.515823           -0.000316670677                         0           
       0.516503           -0.000316690948                         0           
       0.517182           -0.000316711217                         0           
       0.517861           -0.000316731437                         0           
       0.518540           -0.000316751771                         0           
       0.519219           -0.000316771988                         0           
       0.519898           -0.000316792409                         0           
       0.520578           -0.000316812952                         0           
       0.521257            0.000169147986            0.000287337581           
       0.521936            0.000592614484            0.000518969651           
       0.522615           -0.000316874128                         0           
       0.523294           -0.000316894775                         0           
       0.523973           -0.000316915136                         0           
       0.524653            0.000200375069            0.000320810064           
       0.525332             0.00062909443            0.000543180089           
       0.526011            0.000189852505            0.000311619524           
       0.526690           -0.000316997575                         0           
       0.527369           -0.000317018241                         0           
       0.528048           -0.000317039054                         0           
       0.528728            0.000217248227            0.000337040897           
       0.529407            0.000756780528            0.000637559056           
       0.530086            0.000215470566            0.000334944023           
       0.530765           -0.000317121735                         0           
       0.531444            0.000172909563             0.00029811071           
       0.532123           -0.000317163778                         0           
       0.532802           -0.000317184811                         0           
       0.533482           -0.000317205772                         0           
       0.534161           -0.000317226766                         0           
       0.534840            0.000266286321            0.000393736154           
       0.535519           -0.000317268781                         0           
       0.536198           -0.000317289762                         0           
       0.536877           -0.000317310454                         0           
       0.537557           -0.000317331501                         0           
       0.538236           -0.000317352738                         0           
       0.538915           -0.000317373968                         0           
       0.539594           -0.000317395168                         0           
       0.540273           -0.000317416701                         0           
       0.540952           -0.000317437993                         0           
       0.541632            0.000368526087            0.000501706855           
       0.542311           -0.000317479991                         0           
       0.542990           -0.000317501322                         0           
       0.543669           -0.000317522831                         0           
       0.544348           -0.000317544315                         0           
       0.545027           -0.000317565753                         0           
       0.545707           -0.000317587255                         0           
       0.546386            0.000383775707            0.000521167308           
       0.547065           -0.000317630122                         0           
       0.547744           -0.000317651523                         0           
       0.548423           -0.000317673159                         0           
       0.549102           -0.000317694818                         0           
       0.549782           -0.000317716367                         0           
       0.550461           -0.000317738172                         0           
       0.551140           -0.000317760109                         0           
       0.551819           -0.000317781786                         0           
       0.552498           -0.000317803649                         0           
       0.553177           -0.000317825136                         0           
       0.553856             -0.0003178467                         0           
       0.554536           -0.000317868336                         0           
       0.555215           -0.000317890301                         0           
       0.555894           -0.000317912214                         0           
       0.556573            0.000632802037            0.000776237073           
       0.557252           -0.000317956283                         0           
       0.557931           -0.000317978208                         0           
       0.558611           -0.000318000646                         0           
       0.559290           -0.000318022514                         0           
       0.559969           -0.000318043843                         0           
       0.560648           -0.000318065739                         0           
       0.561327           -0.000318088121                         0           
       0.562006             -0.0003181104                         0           
       0.562686           -0.000318132692                         0           
       0.563365           -0.000318155066                         0           
       0.564044           -0.000318177327                         0           
       0.564723           -0.000318199538                         0           
       0.565402           -0.000318221336                         0           
       0.566081           -0.000318243279                         0           
       0.566761           -0.000318265458                         0           
       0.567440           -0.000318288088                         0           
       0.568119           -0.000318310538                         0           
       0.568798           -0.000318333305                         0           
       0.569477           -0.000318355925                         0           
       0.570156           -0.000318378655                         0           
       0.570836             -0.0003184013                         0           
       0.571515           -0.000318423465                         0           
       0.572194           -0.000318446274                         0           
       0.572873            -0.00031846856                         0           
       0.573552           -0.000318490716                         0           
       0.574231            -0.00031851332                         0           
       0.574911           -0.000318536495                         0           
       0.575590           -0.000318559223                         0           
       0.576269           -0.000318581882                         0           
       0.576948           -0.000318604977                         0           
       0.577627           -0.000318627367                         0           
       0.578306           -0.000318650073                         0           
       0.578985           -0.000318672973                         0           
       0.579665           -0.000318695741                         0           
       0.580344           -0.000318718853                         0           
       0.581023             0.00215402015             0.00231403892           
       0.581702           -0.000318764815                         0           
       0.582381           -0.000318787481                         0           
       0.583060           -0.000318810824                         0           
       0.583740           -0.000318833799                         0           
       0.584419           -0.000318856851                         0           
       0.585098           -0.000318879876                         0           
       0.585777            -0.00031890308                         0           
       0.586456           -0.000318926662                         0           
       0.587135           -0.000318949616                         0           
       0.587815           -0.000318972323                         0           
       0.588494           -0.000318995737                         0           
       0.589173           -0.000319019689                         0           
       0.589852           -0.000319042368                         0           
       0.590531           -0.000319065902                         0           
       0.591210           -0.000319088893                         0           
       0.591890           -0.000319112329                         0           
       0.592569            -0.00031913498                         0           
       0.593248           -0.000319159745                         0           
       0.593927            -0.00031918329                         0           
       0.594606           -0.000319207319                         0           
       0.595285           -0.000319229917                         0           
       0.595965           -0.000319251005                         0           
       0.596644           -0.000319272704                         0           
