################################################################################
# EDF_DataBlockID                     0.Image.Psd
# EDF_BinarySize                      4366944
# EDF_HeaderSize                      2560
# ByteOrder                           LowByteFirst
# DataType                            FloatValue
# Dim_1                               1028
# Dim_2                               1062
# Image                               0
# HeaderID                            EH:000000:000000:000000
# Size                                4366944
# Center_1                            607.5200
# Center_2                            651.5500
# Comment                             Xenocs_Cell_Window - 20251028_20perc_iodine_1.23mg
# DDummy                              0.6
# Date                                2025-11-01T18:55:37
# Delta                               0
# Dummy                               -1.5
# ExposureTime                        360
# Gamma                               0
# Intensity1                          8.68714e-10
# PSize_1                             7.5e-05
# PSize_2                             7.5e-05
# Pressure                            0.0326576
# SampleDistance                      0.450002
# SampleEnvKind                       large
# SampleEnvPN                         ElectroChemical cell
# SampleEnvSN                         1141
# Thickness                           0
# Wavelength                          1.541891e-10
# Wavelength                          1.54189e-10
# aux                                 0
# aux_dial                            0.002375
# beamx                               588.434
# beamx_dial                          588.434
# beamz                               657.808
# beamz_dial                          657.808
# det0x                               0
# det0x_dial                          6.36945
# det0xvd                             0
# det0xvd_dial                        0
# det0y                               450.002
# det0y_dial                          481.635
# det0z                               0
# det0z_dial                          1.23302
# det0zvd                             0
# det0zvd_dial                        0
# mag                                 1.818
# mag_dial                            1.818
# om                                  0.2499
# om_dial                             -0.610199
# phi                                 -0.0120535
# phi_dial                            0
# ry                                  0.599993
# ry_dial                             0.599993
# s1bot                               0.8
# s1bot_dial                          -1.66094
# s1hl                                0.8
# s1hl_dial                           -0.608437
# s1hr                                0.8
# s1hr_dial                           0.970938
# s1top                               0.8
# s1top_dial                          -0.461562
# s2bot                               0.45
# s2bot_dial                          1.36109
# s2hl                                0.45
# s2hl_dial                           -0.83375
# s2hr                                0.45
# s2hr_dial                           -0.118594
# s2top                               0.45
# s2top_dial                          1.44734
# w2theta                             32
# w2theta_dial                        32
# waxsch                              19.2605
# waxsch_dial                         -32.7355
# waxsh                               137.085
# waxsh_dial                          -43.5338
# waxsth                              26.0607
# waxsth_dial                         -19.4086
# waxsz                               67.0407
# waxsz_dial                          -23.7954
# wind                                65.9854
# wind_dial                           66.0041
# wpsi                                124
# wpsi_dial                           124
# wstod                               115
# wstod_dial                          115
# x                                   0
# x_dial                              1.00969
# z                                   0
# z_dial                              13.3172
# CountCutoff                         15302352
# DetectorModel                       Dectris EIGER2 Si 1M, S/N E-02-0362
# ThresholdSetting                    4023.88989258
# Saturation                          0
# FlatField                           Corrected
# BackgroundReductionExtra            0.02
# BackgroundCorrectionConstant        0.0026712
# Detector                            0
# Monitor                             0
# Pil_Roi0                            0
# SumForIntensity1                    3.12737e+08
# TransmittedFlux                     868714
# det                                 0
# mon                                 0
# pilai0                              3.12737e+08
# pilai1                              787146
# pilct0                              5.40717e+08
# pilct1                              787146
# pilroi0                             0
# pilroi1                             0
# sec                                 1
# title                               20251028_20perc_iodine_1.23mg_0_00914.edf
# usaxs0                              0
# Operation                           Azimuthal average I(q)
# Error_model                         ErrorModel.poisson
# Geometrical_correction              True
# Transmission_correction             True
# Thickness_correction                False
# Binning mode                        Uniform
# Binning factor                      1.0
# Psi                                 0.0
# Omega                               0.2499
# MaskInvalidPixels                   True
# DetectorEdge                        3
# MaskFiles                           ['20251028_20perc_iodine_1.23mg_0_00012_mask.edf']
################################################################################
    q(A⁻¹)                Intensity(a.u.)            Sigma_I(a.u.)            
       0.000340                372834.831                 119.60825           
       0.001019                360145.141                71.9875389           
       0.001698                350289.648                50.2015626           
       0.002377                330983.509                43.6467395           
       0.003056                307707.636                35.5675391           
       0.003735                253292.993                28.4592942           
       0.004415                 204481.03                 25.570496           
       0.005094                152406.019                19.1180879           
       0.005773                100411.611                14.3668685           
       0.006452                58362.6708                10.4946267           
       0.007131                32298.2273                7.56305355           
       0.007810                16315.9145                5.33455803           
       0.008490                8257.90443                3.36403264           
       0.009169                4027.01847                2.32170879           
       0.009848                 1251.9384                1.25159259           
       0.010527                487.258181               0.780820733           
       0.011206                121.586451               0.372261281           
       0.011885                55.2378524                0.23312655           
       0.012564                25.1679087               0.161558078           
       0.013244                16.7750899               0.123309778           
       0.013923                12.2962575               0.107275667           
       0.014602                9.22738574              0.0861864537           
       0.015281                7.42743867              0.0787132935           
       0.015960                6.04931136              0.0705273303           
       0.016639                4.88349868              0.0598390422           
       0.017319                4.09784651              0.0539622087           
       0.017998                3.31131186              0.0464069771           
       0.018677                2.96492872              0.0454815769           
       0.019356                2.42778186               0.040666081           
       0.020035                2.21528984              0.0364448382           
       0.020714                1.81681118              0.0333539967           
       0.021394                1.59341787              0.0295547764           
       0.022073                1.38285943              0.0286458171           
       0.022752                1.28150471              0.0263794554           
       0.023431                1.09684835              0.0236895226           
       0.024110               0.975332471              0.0232898165           
       0.024789                0.87905206              0.0205341733           
       0.025469               0.782422735              0.0199637777           
       0.026148               0.735296469              0.0181839476           
       0.026827               0.663488669              0.0175496535           
       0.027506               0.607571492              0.0170360345           
       0.028185               0.552144899              0.0154875479           
       0.028864               0.516488353              0.0148950753           
       0.029544               0.459749693              0.0136275858           
       0.030223               0.433895334              0.0134287022           
       0.030902               0.409848489               0.013170718           
       0.031581               0.356107097              0.0116705177           
       0.032260               0.367027873              0.0120499969           
       0.032939               0.318093423              0.0108165797           
       0.033619               0.311174139              0.0108555197           
       0.034298               0.272863854             0.00989252279           
       0.034977               0.246551088             0.00921865866           
       0.035656               0.257544343             0.00967129929           
       0.036335               0.220554099             0.00868024539           
       0.037014               0.204636489             0.00838608945           
       0.037693               0.185955065             0.00769026109           
       0.038373                0.17199823             0.00746861719           
       0.039052               0.177425029             0.00761779924           
       0.039731               0.161034015              0.0070882671           
       0.040410               0.157799312             0.00696967087           
       0.041089               0.149750021                0.00668323           
       0.041768               0.150360622             0.00673182922           
       0.042448               0.132055454             0.00625980983           
       0.043127               0.116001314             0.00572841164           
       0.043806               0.117657425             0.00581217415           
       0.044485               0.115067161             0.00562975987           
       0.045164                0.12767008             0.00604693125           
       0.045843               0.113842039             0.00547665424           
       0.046523               0.101337944             0.00518498056           
       0.047202               0.107965675             0.00538924796           
       0.047881               0.103176066             0.00516675572           
       0.048560              0.0981862383             0.00508621034           
       0.049239              0.0932708937             0.00475986833           
       0.049918              0.0919502237             0.00481843877           
       0.050598              0.0915928217             0.00473691403           
       0.051277              0.0736715939             0.00423481582           
       0.051956              0.0886813959             0.00461705386           
       0.052635              0.0835431435             0.00438619818           
       0.053314              0.0750623098             0.00427916669           
       0.053993              0.0788798246              0.0042663192           
       0.054673              0.0716508138             0.00397555191           
       0.055352              0.0839808726             0.00436726767           
       0.056031              0.0713735805              0.0039415405           
       0.056710              0.0693627963             0.00398083891           
       0.057389              0.0670996761              0.0037756233           
       0.058068              0.0682017167             0.00384574102           
       0.058748              0.0709421164             0.00397116913           
       0.059427              0.0682260616             0.00382847232           
       0.060106                 0.0609842             0.00365384513           
       0.060785              0.0685175541             0.00375691173           
       0.061464              0.0627713154             0.00368260058           
       0.062143              0.0581649118             0.00350889461           
       0.062822              0.0606668834             0.00354151548           
       0.063502              0.0512118756             0.00324804495           
       0.064181              0.0542523959             0.00330777312           
       0.064860              0.0542746146             0.00335884149           
       0.065539              0.0539765805             0.00331685272           
       0.066218              0.0539865587             0.00324613294           
       0.066897              0.0524899118             0.00322553034           
       0.067577              0.0490916666             0.00314933994           
       0.068256              0.0502428682             0.00326431595           
       0.068935              0.0498858229             0.00320010223           
       0.069614              0.0546517978             0.00338282436           
       0.070293              0.0424991311             0.00301060355           
       0.070972              0.0429396449               0.003004009           
       0.071652              0.0511094425             0.00328335952           
       0.072331              0.0464313864               0.003073716           
       0.073010              0.0390086226             0.00288170651           
       0.073689              0.0440415737             0.00304514351           
       0.074368              0.0405266098             0.00291578789           
       0.075047              0.0425235068             0.00295465697           
       0.075727              0.0407988397             0.00287624404           
       0.076406              0.0365554609             0.00277688458           
       0.077085              0.0375924414              0.0027633684           
       0.077764              0.0387625159              0.0027962117           
       0.078443              0.0420885686             0.00293174869           
       0.079122              0.0404594772             0.00284683639           
       0.079802              0.0333604834              0.0026124643           
       0.080481              0.0433795457             0.00287855404           
       0.081160              0.0352550263             0.00264828031           
       0.081839              0.0371583634             0.00267530057           
       0.082518              0.0354700428             0.00261601817           
       0.083197              0.0359377853             0.00259229589           
       0.083876              0.0338933201             0.00247564786           
       0.084556              0.0326948345             0.00249910611           
       0.085235              0.0360727721             0.00257431698           
       0.085914              0.0300189185             0.00237120043           
       0.086593              0.0358873142              0.0025759477           
       0.087272              0.0330895887             0.00243853829           
       0.087951              0.0337022944             0.00251660314           
       0.088631              0.0338463221             0.00243607503           
       0.089310              0.0329247839             0.00245364196           
       0.089989              0.0326765261             0.00241579722           
       0.090668              0.0306108907             0.00236400335           
       0.091347              0.0309688261             0.00239109725           
       0.092026              0.0294875671               0.002230174           
       0.092706              0.0349887043             0.00251748856           
       0.093385              0.0331811005              0.0024139489           
       0.094064              0.0289637916             0.00228158033           
       0.094743              0.0273885694             0.00218485954           
       0.095422              0.0339222902             0.00240442576           
       0.096101               0.028259405             0.00223977223           
       0.096781              0.0296354284             0.00226081288           
       0.097460              0.0323517704             0.00229771681           
       0.098139              0.0305438724             0.00221541406           
       0.098818              0.0296680008              0.0021565301           
       0.099497              0.0319202402              0.0022414818           
       0.100176              0.0310694241             0.00215336821           
       0.100856              0.0267483641             0.00199674187           
       0.101535              0.0288706805             0.00207044364           
       0.102214              0.0287045937             0.00206449243           
       0.102893              0.0273304121             0.00199151699           
       0.103572              0.0294939331               0.002038279           
       0.104251              0.0265655621             0.00194159309           
       0.104931              0.0244204986             0.00184460775           
       0.105610              0.0266867611             0.00193652595           
       0.106289              0.0244817225             0.00182393014           
       0.106968              0.0283302521             0.00196788363           
       0.107647              0.0250731846             0.00185242026           
       0.108326              0.0277378546             0.00192230395           
       0.109005              0.0257988331             0.00184223303           
       0.109685               0.024845971             0.00178761307           
       0.110364              0.0269904044             0.00188432201           
       0.111043               0.025590018             0.00182751246           
       0.111722              0.0245811774             0.00176923454           
       0.112401              0.0253859635             0.00180296345           
       0.113080              0.0263982606              0.0018174908           
       0.113760              0.0255000765             0.00181613984           
       0.114439              0.0262941734             0.00181788126           
       0.115118              0.0292088655             0.00190154234           
       0.115797              0.0237004622             0.00172874878           
       0.116476              0.0255987688             0.00176975749           
       0.117155              0.0236494582              0.0017147607           
       0.117835              0.0243329542             0.00170478534           
       0.118514               0.027308533             0.00182891481           
       0.119193              0.0209414602             0.00160158836           
       0.119872              0.0229410177             0.00165534331           
       0.120551               0.020880338             0.00156872908           
       0.121230              0.0262354839             0.00174072892           
       0.121910              0.0236701428             0.00166941468           
       0.122589              0.0224199796             0.00162640495           
       0.123268              0.0218789941             0.00157553643           
       0.123947              0.0205862621             0.00153816604           
       0.124626              0.0213089195             0.00154579681           
       0.125305              0.0246735638             0.00167152792           
       0.125985              0.0211789609             0.00153662175           
       0.126664              0.0235049151             0.00160338326           
       0.127343              0.0235963444             0.00162512006           
       0.128022              0.0212476575             0.00153029352           
       0.128701              0.0221197927             0.00155325048           
       0.129380              0.0202954519             0.00146918556           
       0.130059              0.0232571415             0.00157638709           
       0.130739              0.0223985391             0.00155789412           
       0.131418              0.0219562387             0.00153811726           
       0.132097              0.0228328299             0.00154840504           
       0.132776              0.0181763259             0.00137528471           
       0.133455              0.0214118239             0.00150427576           
       0.134134              0.0214932697             0.00150233444           
       0.134814                0.01990713             0.00143094073           
       0.135493              0.0210348266             0.00147686503           
       0.136172              0.0177398005                0.00134603           
       0.136851              0.0199235943             0.00143477141           
       0.137530              0.0197517284             0.00139462922           
       0.138209              0.0227335622             0.00151376722           
       0.138889              0.0186978186             0.00137889435           
       0.139568              0.0207111574             0.00145060767           
       0.140247              0.0168861467             0.00130810785           
       0.140926              0.0197294742             0.00137352731           
       0.141605              0.0195765298             0.00140295306           
       0.142284              0.0188165329             0.00135265872           
       0.142964              0.0195529921             0.00138414938           
       0.143643              0.0202790839             0.00140783431           
       0.144322              0.0208382943             0.00139725055           
       0.145001              0.0179200397             0.00132232079           
       0.145680              0.0199465235             0.00136208031           
       0.146359              0.0212244467             0.00141017508           
       0.147039              0.0206977521             0.00140403293           
       0.147718              0.0173761721             0.00126522154           
       0.148397              0.0190722776             0.00134613171           
       0.149076              0.0183679296             0.00128006034           
       0.149755              0.0196159678             0.00134325893           
       0.150434              0.0190033195             0.00132265574           
       0.151114              0.0159718929             0.00120587278           
       0.151793              0.0191575748             0.00132067994           
       0.152472              0.0181971061             0.00126441165           
       0.153151              0.0171581606              0.0012396561           
       0.153830              0.0180972493             0.00126385245           
       0.154509              0.0196990903             0.00131309871           
       0.155188              0.0179643531             0.00125348612           
       0.155868              0.0191742969             0.00128579559           
       0.156547              0.0174349673             0.00123396704           
       0.157226              0.0193168624             0.00126713288           
       0.157905              0.0189423305             0.00126532831           
       0.158584               0.016850164             0.00119123892           
       0.159263              0.0181675906             0.00124148224           
       0.159943              0.0179453724             0.00123478648           
       0.160622              0.0190416049             0.00124739561           
       0.161301              0.0168063616             0.00118757101           
       0.161980              0.0159834156              0.0011384416           
       0.162659              0.0184853529             0.00123787559           
       0.163338              0.0193197491             0.00125519039           
       0.164018              0.0159831566              0.0011356767           
       0.164697                0.01639881             0.00116511983           
       0.165376              0.0193996878             0.00123956072           
       0.166055               0.018848773             0.00122989138           
       0.166734                0.01646562             0.00114436469           
       0.167413              0.0179375761             0.00119525687           
       0.168093              0.0174475813             0.00118996944           
       0.168772              0.0188125274             0.00119950329           
       0.169451              0.0158663375             0.00112184766           
       0.170130              0.0167457975             0.00113738945           
       0.170809              0.0170650908             0.00116188397           
       0.171488               0.016458212             0.00113063534           
       0.172168              0.0179615123             0.00116979661           
       0.172847              0.0152944271             0.00109363713           
       0.173526              0.0166847452             0.00112047339           
       0.174205              0.0183607114             0.00118081556           
       0.174884              0.0184622231              0.0011779048           
       0.175563              0.0155314055             0.00108498541           
       0.176243              0.0163806545             0.00112540497           
       0.176922              0.0167658673             0.00110888993           
       0.177601               0.018424713             0.00117522917           
       0.178280              0.0190289126             0.00118101124           
       0.178959              0.0159189885             0.00108888992           
       0.179638              0.0175212189             0.00113908455           
       0.180317              0.0184469816             0.00116027534           
       0.180997              0.0186338852             0.00117246799           
       0.181676              0.0183953215             0.00115249952           
       0.182355              0.0165632503             0.00110017147           
       0.183034              0.0173726075             0.00110864749           
       0.183713               0.018030607              0.0011432027           
       0.184392                0.01627193             0.00108569092           
       0.185072              0.0184960057             0.00114432066           
       0.185751              0.0174925819             0.00111594357           
       0.186430              0.0183678634             0.00113551289           
       0.187109              0.0183694814              0.0011482094           
       0.187788              0.0156094183             0.00105582998           
       0.188467              0.0171009074             0.00109204381           
       0.189147              0.0166855739             0.00108962486           
       0.189826              0.0157372562             0.00103949469           
       0.190505              0.0175479273             0.00111573629           
       0.191184              0.0173922815             0.00109476827           
       0.191863              0.0181000886              0.0011191756           
       0.192542              0.0171795741             0.00110062758           
       0.193222              0.0158613244             0.00103385729           
       0.193901              0.0160789511             0.00105487782           
       0.194580              0.0149833612             0.00100049243           
       0.195259              0.0170331501             0.00107898657           
       0.195938              0.0166004615             0.00106773669           
       0.196617               0.015105437             0.00100430558           
       0.197297              0.0149631277             0.00100364492           
       0.197976              0.0183552789             0.00109452753           
       0.198655              0.0160110321             0.00103341286           
       0.199334               0.016710116              0.0010464224           
       0.200013              0.0166459925              0.0010438336           
       0.200692              0.0147986545            0.000990129477           
       0.201371              0.0165775034             0.00103614751           
       0.202051              0.0150047526            0.000988837423           
       0.202730              0.0178842467             0.00106877506           
       0.203409              0.0158115638             0.00101168194           
       0.204088               0.014980453            0.000983645088           
       0.204767              0.0141258136            0.000950154165           
       0.205446              0.0154680688            0.000996215313           
       0.206126              0.0166648129              0.0010199868           
       0.206805              0.0157923433             0.00101113051           
       0.207484              0.0164156383             0.00101235825           
       0.208163              0.0164050454             0.00101811295           
       0.208842              0.0163546424             0.00101379305           
       0.209521              0.0163119977             0.00100405618           
       0.210201              0.0162670276             0.00101386022           
       0.210880              0.0154236522            0.000967855876           
       0.211559              0.0148038413            0.000962228808           
       0.212238              0.0161409401            0.000999631664           
       0.212917              0.0139792559            0.000926832013           
       0.213596              0.0143039935            0.000943078872           
       0.214276              0.0155972678             0.00096427335           
       0.214955              0.0145847443            0.000952058237           
       0.215634              0.0159217228            0.000987609743           
       0.216313              0.0157780144            0.000981078136           
       0.216992              0.0165154485             0.00100349181           
       0.217671              0.0145348786            0.000935023713           
       0.218351              0.0157964998            0.000984292513           
       0.219030              0.0158969373            0.000971830621           
       0.219709              0.0150849344            0.000952590333           
       0.220388              0.0166127038            0.000998381061           
       0.221067                0.01650248             0.00099585236           
       0.221746              0.0147438902            0.000940332186           
       0.222426              0.0148086449            0.000928310892           
       0.223105               0.014741072            0.000938808446           
       0.223784              0.0150309126            0.000938589686           
       0.224463              0.0162883607            0.000984842233           
       0.225142              0.0144513557            0.000912968314           
       0.225821              0.0162599878            0.000972315836           
       0.226500              0.0147578084            0.000932203741           
       0.227180              0.0142992571            0.000903469951           
       0.227859              0.0143640447            0.000909576656           
       0.228538              0.0148152057            0.000914474866           
       0.229217              0.0157382102            0.000949991521           
       0.229896               0.016355097            0.000967964634           
       0.230575              0.0150994396             0.00091523922           
       0.231255              0.0145404538            0.000911584939           
       0.231934              0.0147756186            0.000912648893           
       0.232613              0.0153564118            0.000933845674           
       0.233292              0.0156262674             0.00093291349           
       0.233971              0.0157529289            0.000936249677           
       0.234650              0.0163007803            0.000963593274           
       0.235330              0.0134993122            0.000869233243           
       0.236009               0.017689506            0.000992890189           
       0.236688              0.0171038408            0.000972821558           
       0.237367              0.0153261818            0.000922218155           
       0.238046              0.0156528561            0.000938558332           
       0.238725              0.0169710394            0.000962201994           
       0.239405               0.013362202            0.000859084298           
       0.240084              0.0150454111             0.00090578377           
       0.240763              0.0154530726            0.000926762903           
       0.241442              0.0131862865            0.000844033224           
       0.242121              0.0137792075            0.000864429164           
       0.242800              0.0140694977            0.000877622552           
       0.243480               0.015026145            0.000902721942           
       0.244159               0.014106374            0.000875080485           
       0.244838              0.0146967372            0.000878506854           
       0.245517              0.0139316559            0.000867638273           
       0.246196              0.0142932261            0.000879248878           
       0.246875              0.0134496207            0.000841017708           
       0.247554              0.0151337947            0.000901188403           
       0.248234               0.014230769            0.000860637296           
       0.248913              0.0143494524            0.000873912704           
       0.249592              0.0148785313            0.000881421926           
       0.250271              0.0150326824            0.000883403589           
       0.250950              0.0145424656            0.000874202034           
       0.251629               0.014159185            0.000855273276           
       0.252309              0.0134408378            0.000834986551           
       0.252988              0.0145072632            0.000852536458           
       0.253667              0.0141295882            0.000851196411           
       0.254346              0.0135645655            0.000833832069           
       0.255025              0.0134035039            0.000827051278           
       0.255704              0.0139433598            0.000839679029           
       0.256384              0.0133860648            0.000819881316           
       0.257063              0.0146088269            0.000861392876           
       0.257742               0.013799282            0.000831385081           
       0.258421              0.0133087518            0.000814902937           
       0.259100              0.0142400877            0.000844403909           
       0.259779              0.0124631672            0.000789295828           
       0.260459              0.0129865729            0.000807281313           
       0.261138              0.0140948837            0.000824588382           
       0.261817              0.0139777332            0.000837730118           
       0.262496              0.0133612327             0.00081101487           
       0.263175              0.0131660951            0.000806799938           
       0.263854              0.0140743022            0.000830287305           
       0.264534              0.0118603526            0.000755681198           
       0.265213              0.0141866999            0.000839500798           
       0.265892               0.013429174             0.00080631557           
       0.266571              0.0132646966            0.000799540207           
       0.267250              0.0129786032            0.000792203234           
       0.267929               0.012034145            0.000762052176           
       0.268609               0.012116356            0.000768837405           
       0.269288              0.0123254896            0.000762562404           
       0.269967               0.012113465            0.000764120191           
       0.270646              0.0112447053            0.000733027186           
       0.271325              0.0128022047            0.000783453396           
       0.272004              0.0120886361            0.000753717348           
       0.272683               0.012494595            0.000767215272           
       0.273363              0.0119472968            0.000755008872           
       0.274042              0.0124011848            0.000764678558           
       0.274721              0.0117711347            0.000744558676           
       0.275400              0.0119692639            0.000745827594           
       0.276079              0.0119287427            0.000748791849           
       0.276758              0.0123975091            0.000772996134           
       0.277438              0.0107482685            0.000711666883           
       0.278117              0.0123103682            0.000775477406           
       0.278796              0.0103899778            0.000705196549           
       0.279475                0.01113539            0.000742115123           
       0.280154              0.0122046432            0.000765753044           
       0.280833              0.0112970557            0.000741211069           
       0.281513              0.0114722876            0.000758655968           
       0.282192              0.0119017507            0.000759542627           
       0.282871               0.011275755            0.000744464078           
       0.283550              0.0115820184            0.000758549995           
       0.284229               0.011726067            0.000774462745           
       0.284908              0.0108045977            0.000751251703           
       0.285588              0.0127097544            0.000805256272           
       0.286267              0.0111504466            0.000766320422           
       0.286946              0.0118298035            0.000784186867           
       0.287625              0.0112343829            0.000777208906           
       0.288304             0.00992785021            0.000720839651           
       0.288983              0.0109729919            0.000767430058           
       0.289663             0.00994939284            0.000735036687           
       0.290342              0.0115231285             0.00078682462           
       0.291021             0.00977871779            0.000728730873           
       0.291700              0.0120956601            0.000799889831           
       0.292379              0.0106836127            0.000768963911           
       0.293058              0.0103335085            0.000753402772           
       0.293738              0.0114011985            0.000784722702           
       0.294417               0.010578886            0.000764679974           
       0.295096              0.0107142737            0.000761097588           
       0.295775             0.00877656288            0.000699364526           
       0.296454              0.0108499527            0.000767540491           
       0.297133             0.00832761807            0.000675612338           
       0.297812             0.00957408045            0.000728045407           
       0.298492              0.0108411468            0.000776221793           
       0.299171             0.00981030878            0.000736999402           
       0.299850             0.00955939758             0.00072254561           
       0.300529             0.00968150281            0.000735336533           
       0.301208             0.00950043593            0.000730200352           
       0.301887             0.00909963381            0.000713782409           
       0.302567              0.0118095561            0.000809077462           
       0.303246             0.00888038191            0.000706179894           
       0.303925              0.0118310928            0.000825567712           
       0.304604              0.0101769498             0.00074914985           
       0.305283             0.00944867091            0.000732552987           
       0.305962             0.00858367892            0.000693998959           
       0.306642             0.00947426545            0.000739015449           
       0.307321             0.00987052626            0.000751903127           
       0.308000             0.00985570607             0.00074243264           
       0.308679              0.0087186198            0.000713413915           
       0.309358             0.00978337653            0.000745499311           
       0.310037              0.0090332671            0.000717946108           
       0.310717              0.0106095063             0.00077731843           
       0.311396               0.010586292            0.000781675045           
       0.312075             0.00938716468            0.000745408364           
       0.312754             0.00820477226            0.000682942167           
       0.313433             0.00863433926            0.000706685172           
       0.314112             0.00939356876            0.000736931351           
       0.314792             0.00876904739            0.000717041052           
       0.315471             0.00940743505            0.000733498435           
       0.316150             0.00994056759            0.000760974379           
       0.316829             0.00906022462            0.000731294639           
       0.317508              0.0091969351            0.000728523574           
       0.318187             0.00873471328            0.000719346227           
       0.318866             0.00855686139            0.000702393865           
       0.319546             0.00920281999             0.00073934232           
       0.320225             0.00916467571            0.000737822923           
       0.320904             0.00866918187            0.000706504774           
       0.321583             0.00767896071            0.000679583624           
       0.322262             0.00754590296            0.000663460019           
       0.322941             0.00946889441            0.000752726966           
       0.323621             0.00700363571            0.000643414873           
       0.324300             0.00814074868            0.000694227401           
       0.324979             0.00805087069            0.000691632587           
       0.325658             0.00844404882            0.000709604823           
       0.326337             0.00799001126            0.000691164442           
       0.327016             0.00811723619            0.000692222669           
       0.327696              0.0082445349            0.000705388321           
       0.328375             0.00868853878            0.000718022856           
       0.329054              0.0084366355            0.000711375106           
       0.329733             0.00868238879            0.000724297147           
       0.330412             0.00793553879            0.000686771552           
       0.331091             0.00719262996            0.000665694879           
       0.331771             0.00785804303            0.000677574209           
       0.332450             0.00654562443            0.000630414677           
       0.333129             0.00813265876            0.000700882075           
       0.333808             0.00653347385            0.000629034386           
       0.334487             0.00768989322            0.000685672489           
       0.335166             0.00763728445            0.000673322391           
       0.335846             0.00722739939             0.00066651551           
       0.336525             0.00751370353            0.000672879256           
       0.337204             0.00628837518            0.000617186485           
       0.337883             0.00733132073            0.000667288422           
       0.338562             0.00722512939            0.000666114174           
       0.339241             0.00596505484            0.000606381745           
       0.339921             0.00731278112            0.000660138936           
       0.340600             0.00742169557            0.000677666088           
       0.341279              0.0076820341            0.000682066405           
       0.341958             0.00845431391            0.000725624696           
       0.342637             0.00743704001            0.000670955676           
       0.343316             0.00606749141            0.000607790526           
       0.343995             0.00622822458            0.000625871371           
       0.344675             0.00754172945            0.000676056251           
       0.345354             0.00644885819            0.000629280207           
       0.346033             0.00627923476            0.000619330447           
       0.346712             0.00587572859            0.000602923596           
       0.347391             0.00758522651            0.000689281249           
       0.348070             0.00534056584            0.000570156382           
       0.348750             0.00669798005            0.000647742966           
       0.349429              0.0061339038            0.000611865682           
       0.350108             0.00574052945            0.000599043638           
       0.350787             0.00712268269            0.000655937902           
       0.351466             0.00775267523            0.000696938014           
       0.352145             0.00632993824            0.000630272466           
       0.352825              0.0066305956            0.000642145213           
       0.353504             0.00650608494            0.000635931479           
       0.354183             0.00598123504            0.000602716795           
       0.354862              0.0060348336            0.000619479426           
       0.355541             0.00765544134            0.000688579445           
       0.356220             0.00701241757            0.000660271249           
       0.356900             0.00596490596            0.000614746335           
       0.357579             0.00648014971             0.00063289035           
       0.358258             0.00565489512            0.000599400383           
       0.358937              0.0065369451            0.000632338365           
       0.359616              0.0048324953            0.000551277791           
       0.360295             0.00592517831            0.000610937995           
       0.360975              0.0049858454            0.000558026047           
       0.361654             0.00517194062            0.000571274822           
       0.362333             0.00485558579            0.000550712857           
       0.363012             0.00512713082            0.000573183561           
       0.363691             0.00560308107            0.000587375861           
       0.364370               0.004412498            0.000527714975           
       0.365050             0.00481084928             0.00054807232           
       0.365729             0.00572612657            0.000603641174           
       0.366408             0.00504725536            0.000567984617           
       0.367087              0.0042620847            0.000513568001           
       0.367766             0.00496731223            0.000565983241           
       0.368445             0.00541688888            0.000580547583           
       0.369124             0.00550811509            0.000590014548           
       0.369804             0.00542426409            0.000584569507           
       0.370483             0.00571556739            0.000602686531           
       0.371162             0.00585450794            0.000613504351           
       0.371841             0.00458134934             0.00053324919           
       0.372520             0.00579616512            0.000611819118           
       0.373199             0.00422425169            0.000516068847           
       0.373879             0.00432351744            0.000528141957           
       0.374558              0.0043178389            0.000520093246           
       0.375237             0.00502189543            0.000561814797           
       0.375916              0.0045228272             0.00054338242           
       0.376595             0.00519884373            0.000571191637           
       0.377274             0.00545975595            0.000594718922           
       0.377954             0.00533174625            0.000578473387           
       0.378633              0.0041885315            0.000519198517           
       0.379312             0.00533248559            0.000585676426           
       0.379991             0.00464936815            0.000544046731           
       0.380670               0.004036896            0.000515907702           
       0.381349              0.0047413794            0.000551086331           
       0.382029             0.00494792234            0.000571027794           
       0.382708             0.00479253205            0.000549717285           
       0.383387             0.00423526211            0.000528480866           
       0.384066             0.00458897384            0.000545059216           
       0.384745               0.004637109            0.000550064283           
       0.385424             0.00316819555            0.000456213709           
       0.386104              0.0045050418            0.000538004177           
       0.386783             0.00431977696            0.000538220807           
       0.387462              0.0045187614             0.00053678327           
       0.388141             0.00507949684             0.00057820417           
       0.388820             0.00467166021            0.000550497959           
       0.389499             0.00336057992            0.000469532022           
       0.390178             0.00484140671            0.000565809071           
       0.390858             0.00436439364            0.000532865507           
       0.391537             0.00354209899            0.000484951402           
       0.392216              0.0033699748            0.000467092903           
       0.392895             0.00463157856            0.000549433442           
       0.393574             0.00448263258            0.000539186854           
       0.394253             0.00498630644            0.000571230776           
       0.394933             0.00510954029            0.000584854281           
       0.395612             0.00390561162            0.000496477189           
       0.396291             0.00396080843            0.000510151956           
       0.396970             0.00420256027            0.000520834389           
       0.397649             0.00494517977            0.000566720332           
       0.398328             0.00444927908            0.000535191755           
       0.399008             0.00430075025            0.000525039322           
       0.399687               0.004597836            0.000544981975           
       0.400366             0.00474652356            0.000551605957           
       0.401045             0.00370986807            0.000486741593           
       0.401724             0.00480770615            0.000555024943           
       0.402403             0.00475696314            0.000556391179           
       0.403083             0.00385376329            0.000493571308           
       0.403762             0.00414877195            0.000514639933           
       0.404441             0.00439513415            0.000533073423           
       0.405120             0.00417975552            0.000518143317           
       0.405799             0.00445862575            0.000532824458           
       0.406478             0.00330872384            0.000459012814           
       0.407158             0.00399064796            0.000503153413           
       0.407837              0.0032987638            0.000461498988           
       0.408516             0.00441292887            0.000529131925           
       0.409195             0.00386710066            0.000500947392           
       0.409874             0.00359346433            0.000489617395           
       0.410553             0.00328005912            0.000472810301           
       0.411233             0.00297261779            0.000447774599           
       0.411912             0.00341760567            0.000486924114           
       0.412591             0.00354146444            0.000498949468           
       0.413270             0.00337152157            0.000484518019           
       0.413949             0.00381168019            0.000520802255           
       0.414628             0.00350677229             0.00049864097           
       0.415307             0.00366650834            0.000515542803           
       0.415987             0.00366298779            0.000511048915           
       0.416666             0.00256611685            0.000425169494           
       0.417345               0.002962554             0.00046446129           
       0.418024             0.00230293386            0.000409513461           
       0.418703             0.00251028184            0.000426766293           
       0.419382              0.0037679129            0.000520290452           
       0.420062             0.00321126882            0.000481669176           
       0.420741             0.00339160077            0.000497641238           
       0.421420              0.0022583892            0.000407621741           
       0.422099             0.00298763521            0.000468849027           
       0.422778             0.00436602737            0.000569846591           
       0.423457             0.00336980334            0.000503694388           
       0.424137             0.00325498328            0.000486971287           
       0.424816              0.0024936169            0.000435137723           
       0.425495             0.00264755159            0.000447943296           
       0.426174             0.00203180911              0.0003925494           
       0.426853             0.00223032819            0.000408781462           
       0.427532             0.00226648433            0.000415565576           
       0.428212             0.00161631418            0.000353251115           
       0.428891             0.00305860927             0.00048483473           
       0.429570              0.0032962329            0.000503660058           
       0.430249             0.00333281228            0.000503817539           
       0.430928             0.00263144355            0.000457466624           
       0.431607             0.00237272631            0.000426932429           
       0.432287             0.00264092925            0.000453714729           
       0.432966             0.00380014395            0.000549044924           
       0.433645             0.00206807286            0.000405456311           
       0.434324             0.00172419464            0.000367983611           
       0.435003             0.00259941993            0.000452600134           
       0.435682             0.00256283518            0.000453089691           
       0.436361              0.0020829649            0.000407927693           
       0.437041             0.00207015903            0.000406129092           
       0.437720              0.0025017109            0.000448611646           
       0.438399             0.00220489079            0.000423356184           
       0.439078             0.00192740927            0.000407299526           
       0.439757             0.00282476482            0.000490043185           
       0.440436             0.00217501395            0.000439696575           
       0.441116             0.00370008257             0.00058287027           
       0.441795             0.00307557536            0.000532049824           
       0.442474             0.00318589007              0.0005430175           
       0.443153             0.00365166122            0.000594920886           
       0.443832             0.00279064401             0.00052095189           
       0.444511             0.00285259536              0.0005243294           
       0.445191             0.00260627676            0.000513371081           
       0.445870             0.00170313679            0.000415009234           
       0.446549             0.00298520205            0.000555233366           
       0.447228             0.00263988694            0.000519182885           
       0.447907            0.000942013903            0.000313860449           
       0.448586             0.00176163845              0.0004395337           
       0.449266             0.00139986145            0.000388206757           
       0.449945              0.0015021326            0.000400497364           
       0.450624             0.00249278964            0.000524120219           
       0.451303             0.00216211211            0.000494448063           
       0.451982              0.0031443762            0.000592591921           
       0.452661             0.00291145976            0.000580845154           
       0.453341             0.00225391063            0.000512852665           
       0.454020             0.00260392711            0.000552077437           
       0.454699             0.00231447824            0.000525243456           
       0.455378             0.00301760922            0.000600065418           
       0.456057             0.00239432325             0.00054401933           
       0.456736             0.00116329462            0.000378017068           
       0.457416             0.00176991183            0.000466288491           
       0.458095              0.0015841645             0.00044752685           
       0.458774             0.00123527755            0.000400408382           
       0.459453             0.00229786169            0.000548867712           
       0.460132            0.000944480671            0.000344286875           
       0.460811             0.00116662905            0.000396916101           
       0.461490             0.00153993456            0.000451381615           
       0.462170             0.00145159643            0.000445082663           
       0.462849             0.00188952894            0.000511095676           
       0.463528               0.001474867            0.000450498746           
       0.464207             0.00181073791            0.000508505903           
       0.464886             0.00178944957            0.000501571673           
       0.465565              0.0015479473            0.000471624243           
       0.466245              0.0014228741            0.000453572639           
       0.466924              0.0019508993            0.000543651496           
       0.467603             0.00156900827            0.000477204939           
       0.468282             0.00103767594            0.000397284347           
       0.468961             0.00105582544            0.000403376242           
       0.469640            0.000765657053            0.000344874032           
       0.470320             0.00124651085             0.00044034336           
       0.470999            0.000946075931            0.000387242894           
       0.471678             0.00178453802            0.000536955004           
       0.472357             0.00179857909            0.000540568206           
       0.473036             0.00114770434            0.000434543679           
       0.473715             0.00218087006            0.000603694919           
       0.474395             0.00208611769            0.000598596589           
       0.475074             0.00071914458            0.000351467838           
       0.475753            0.000693421965            0.000342146897           
       0.476432            0.000762161915               0.000371764           
       0.477111             0.00108447005            0.000438095325           
       0.477790             0.00235818088            0.000649475306           
       0.478470            0.000786734648            0.000380096467           
       0.479149            0.000427543213            0.000283099205           
       0.479828           -0.000127868383                         0           
       0.480507             0.00117668835            0.000472327413           
       0.481186              0.0010667361            0.000459856386           
       0.481865             0.00120846908            0.000483392532           
       0.482545            0.000649155011            0.000358449512           
       0.483224              0.0010770922            0.000464876591           
       0.483903            9.43513117e-05            0.000139756744           
       0.484582           -0.000101449494                         0           
       0.485261            8.15651547e-05            0.000128709862           
       0.485940            0.000772088797            0.000411972907           
       0.486619            0.000328287329            0.000265679628           
       0.487299           -9.98700216e-05                         0           
       0.487978             0.00032421809            0.000265504069           
       0.488657            0.000147822446             0.00018667414           
       0.489336            0.000342376069            0.000279115342           
       0.490015            0.000125189134            0.000170104186           
       0.490694           -0.000314277929                         0           
       0.491374           -6.99863007e-05                         0           
       0.492053            0.000419494214            0.000324765663           
       0.492732           -0.000314335022                         0           
       0.493411           -0.000314354276                         0           
       0.494090           -0.000314373657                         0           
       0.494769           -5.43040778e-05                         0           
       0.495449           -0.000314411937                         0           
       0.496128            0.000225046125            0.000243986288           
       0.496807             0.00051639847            0.000378199428           
       0.497486           -5.02104296e-05                         0           
       0.498165           -3.50538508e-05                         0           
       0.498844           -3.76793701e-05                         0           
       0.499524            -3.5634983e-05                         0           
       0.500203           -0.000314547593                         0           
       0.500882           -0.000314566884                         0           
       0.501561           -0.000314586236                         0           
       0.502240           -0.000314605845                         0           
       0.502919           -0.000314625368                         0           
       0.503599             -2.060225e-05                         0           
       0.504278            0.000305177418            0.000308390649           
       0.504957            6.91586284e-06            4.67361818e-05           
       0.505636           -0.000314704007                         0           
       0.506315           -0.000314723845                         0           
       0.506994           -0.000314743329                         0           
       0.507673             2.7818667e-05            9.74758614e-05           
       0.508353              1.319768e-05            6.56367947e-05           
       0.509032           -0.000314802397                         0           
       0.509711           -0.000314822174                         0           
       0.510390            4.17568125e-05            0.000121755315           
       0.511069           -0.000314862284                         0           
       0.511748           -0.000314882225                         0           
       0.512428           -0.000314902309                         0           
       0.513107           -0.000314922083                         0           
       0.513786           -0.000314941919                         0           
       0.514465            5.89345759e-05            0.000147824853           
       0.515144            0.000513153468               0.000459971           
       0.515823           -0.000315002231                         0           
       0.516503           -0.000315022396                         0           
       0.517182           -0.000315042558                         0           
       0.517861           -0.000315062672                         0           
       0.518540           -0.000315082899                         0           
       0.519219            0.000111435911            0.000218634807           
       0.519898           -0.000315123322                         0           
       0.520578           -0.000315143758                         0           
       0.521257           -0.000315163929                         0           
       0.521936           -0.000315184149                         0           
       0.522615           -0.000315204611                         0           
       0.523294            0.000629921645            0.000546387571           
       0.523973           -0.000315245403                         0           
       0.524653           -0.000315265511                         0           
       0.525332            0.000617618891            0.000536783426           
       0.526011            0.000689655808            0.000592359806           
       0.526690           -0.000315327408                         0           
       0.527369           -0.000315347965                         0           
       0.528048            0.000177005379            0.000296944388           
       0.528728           -0.000315389347                         0           
       0.529407            0.000215394757            0.000339239097           
       0.530086           -0.000315430408                         0           
       0.530765           -0.000315450914                         0           
       0.531444           -0.000315471641                         0           
       0.532123           -0.000315492735                         0           
       0.532802           -0.000315513657                         0           
       0.533482           -0.000315534507                         0           
       0.534161           -0.000315555391                         0           
       0.534840           -0.000315576096                         0           
       0.535519           -0.000315597185                         0           
       0.536198           -0.000315618055                         0           
       0.536877           -0.000315638638                         0           
       0.537557           -0.000315659574                         0           
       0.538236            0.000321969313            0.000453515549           
       0.538915           -0.000315701817                         0           
       0.539594           -0.000315722906                         0           
       0.540273           -0.000315744325                         0           
       0.540952           -0.000315765505                         0           
       0.541632           -0.000315786298                         0           
       0.542311           -0.000315807282                         0           
       0.542990           -0.000315828501                         0           
       0.543669           -0.000315849896                         0           
       0.544348           -0.000315871267                         0           
       0.545027            0.000996686075            0.000811463876           
       0.545707           -0.000315913981                         0           
       0.546386            -0.00031593543                         0           
       0.547065           -0.000315956622                         0           
       0.547744            -0.00031597791                         0           
       0.548423           -0.000315999432                         0           
       0.549102             0.00131972046             0.00103411608           
       0.549782           -0.000316042413                         0           
       0.550461           -0.000316064103                         0           
       0.551140            0.000440632088            0.000578129498           
       0.551819           -0.000316107487                         0           
       0.552498           -0.000316129234                         0           
       0.553177           -0.000316150608                         0           
       0.553856           -0.000316172059                         0           
       0.554536            -0.00031619358                         0           
       0.555215            -0.00031621543                         0           
       0.555894           -0.000316237228                         0           
       0.556573           -0.000316259155                         0           
       0.557252           -0.000316281064                         0           
       0.557931           -0.000316302874                         0           
       0.558611            0.000625886103            0.000766965915           
       0.559290           -0.000316346946                         0           
       0.559969           -0.000316368163                         0           
       0.560648           -0.000316389943                         0           
       0.561327           -0.000316412208                         0           
       0.562006            -0.00031643437                         0           
       0.562686           -0.000316456544                         0           
       0.563365             -0.0003164788                         0           
       0.564044            0.000886835052             0.00103023932           
       0.564723           -0.000316523038                         0           
       0.565402           -0.000316544721                         0           
       0.566081           -0.000316566548                         0           
       0.566761            -0.00031658861                         0           
       0.567440           -0.000316611121                         0           
       0.568119           -0.000316633453                         0           
       0.568798             -0.0003166561                         0           
       0.569477           -0.000316678601                         0           
       0.570156           -0.000316701211                         0           
       0.570836           -0.000316723736                         0           
       0.571515           -0.000316745785                         0           
       0.572194           -0.000316768474                         0           
       0.572873           -0.000316790643                         0           
       0.573552           -0.000316812681                         0           
       0.574231           -0.000316835167                         0           
       0.574911           -0.000316858219                         0           
       0.575590           -0.000316880828                         0           
       0.576269           -0.000316903367                         0           
       0.576948            -0.00031692634                         0           
       0.577627             0.00165940869             0.00179660656           
       0.578306           -0.000316971199                         0           
       0.578985           -0.000316993978                         0           
       0.579665           -0.000317016626                         0           
       0.580344           -0.000317039617                         0           
       0.581023           -0.000317062583                         0           
       0.581702           -0.000317085336                         0           
       0.582381           -0.000317107883                         0           
       0.583060           -0.000317131103                         0           
       0.583740           -0.000317153957                         0           
       0.584419           -0.000317176888                         0           
       0.585098           -0.000317199791                         0           
       0.585777           -0.000317222873                         0           
       0.586456            -0.00031724633                         0           
       0.587135           -0.000317269164                         0           
       0.587815           -0.000317291751                         0           
       0.588494           -0.000317315042                         0           
       0.589173           -0.000317338868                         0           
       0.589852           -0.000317361427                         0           
       0.590531           -0.000317384838                         0           
       0.591210           -0.000317407707                         0           
       0.591890             0.00610458519             0.00634838561           
       0.592569           -0.000317453551                         0           
       0.593248           -0.000317478185                         0           
       0.593927           -0.000317501606                         0           
       0.594606           -0.000317525509                         0           
       0.595285           -0.000317547988                         0           
       0.595965           -0.000317568964                         0           
       0.596644            -0.00031759055                         0           
