################################################################################
# EDF_DataBlockID                     0.Image.Psd
# EDF_BinarySize                      2105344
# EDF_HeaderSize                      2560
# ByteOrder                           LowByteFirst
# DataType                            FloatValue
# Dim_1                               512
# Dim_2                               1028
# Image                               0
# HeaderID                            EH:000000:000000:000000
# Size                                2105344
# Center_1                            304.9000
# Center_2                            588.7000
# Comment                             Xenocs_Cell_Window - 20251028_20perc_iodine_1.23mg
# DDummy                              0.6
# Date                                2025-10-30T21:35:06
# Delta                               21.910000
# Dummy                               -1.5
# ExposureTime                        360
# Gamma                               15.360000
# Intensity1                          8.53887e-10
# PSize_1                             7.5e-05
# PSize_2                             7.5e-05
# Pressure                            0.0327978
# SampleDistance                      0.115750
# SampleEnvKind                       large
# SampleEnvPN                         ElectroChemical cell
# SampleEnvSN                         1141
# Thickness                           0
# Wavelength                          1.541891e-10
# Wavelength                          1.54189e-10
# aux                                 0
# aux_dial                            0.002375
# beamx                               588.434
# beamx_dial                          588.434
# beamz                               657.808
# beamz_dial                          657.808
# det0x                               0
# det0x_dial                          6.36945
# det0xvd                             0
# det0xvd_dial                        0
# det0y                               450.002
# det0y_dial                          481.635
# det0z                               0
# det0z_dial                          1.23302
# det0zvd                             0
# det0zvd_dial                        0
# mag                                 1.818
# mag_dial                            1.818
# om                                  0.2499
# om_dial                             -0.610199
# phi                                 -0.0120535
# phi_dial                            0
# ry                                  0.599993
# ry_dial                             0.599993
# s1bot                               0.8
# s1bot_dial                          -1.66094
# s1hl                                0.8
# s1hl_dial                           -0.608437
# s1hr                                0.8
# s1hr_dial                           0.970938
# s1top                               0.8
# s1top_dial                          -0.461562
# s2bot                               0.45
# s2bot_dial                          1.36109
# s2hl                                0.45
# s2hl_dial                           -0.83375
# s2hr                                0.45
# s2hr_dial                           -0.118594
# s2top                               0.45
# s2top_dial                          1.44734
# w2theta                             32
# w2theta_dial                        32
# waxsch                              19.2605
# waxsch_dial                         -32.7355
# waxsh                               137.085
# waxsh_dial                          -43.5338
# waxsth                              26.0607
# waxsth_dial                         -19.4086
# waxsz                               67.0407
# waxsz_dial                          -23.7954
# wind                                65.9854
# wind_dial                           66.0041
# wpsi                                124
# wpsi_dial                           124
# wstod                               115
# wstod_dial                          115
# x                                   0
# x_dial                              1.00969
# z                                   0
# z_dial                              13.3172
# CountCutoff                         6807993
# DetectorModel                       Dectris EIGER2 Si 500K, S/N E-01-0554
# ThresholdSetting                    4023.88989258
# Saturation                          0
# FlatField                           Corrected
# BackgroundReductionExtra            0.02
# BackgroundCorrectionConstant        0.0026712
# Detector                            0
# Monitor                             0
# Pil_Roi0                            0
# SumForIntensity1                    3.07399e+08
# TransmittedFlux                     853887
# det                                 0
# mon                                 0
# pilai0                              3.07399e+08
# pilai1                              773492
# pilct0                              5.31793e+08
# pilct1                              773492
# pilroi0                             0
# pilroi1                             0
# sec                                 1
# title                               20251028_20perc_iodine_1.23mg_1_00502.edf
# usaxs0                              0
# Operation                           Azimuthal average I(q)
# Error_model                         ErrorModel.poisson
# Geometrical_correction              True
# Transmission_correction             True
# Thickness_correction                False
# Binning mode                        Uniform
# Binning factor                      1.0
# Psi                                 0.0
# Omega                               0.2499
# MaskInvalidPixels                   True
# DetectorEdge                        3
# MaskFiles                           ['WAXS_corrected.edf']
################################################################################
    q(A⁻¹)                Intensity(a.u.)            Sigma_I(a.u.)            
       0.693100               0.012435524             0.00743953709           
       0.695741             0.00278996979             0.00287555274           
       0.698381           -2.37577497e-05                         0           
       0.701021           -2.37399432e-05                         0           
       0.703662             0.00282131405             0.00289035913           
       0.706302             0.00683030686             0.00348179625           
       0.708942             0.00568610682             0.00410026389           
       0.711583             0.00654268726             0.00380862466           
       0.714223             0.00583376137             0.00415206692           
       0.716864             0.00995519148             0.00354883336           
       0.719504             0.00439938359             0.00254580168           
       0.722144             0.00501333688             0.00251674327           
       0.724785             0.00634246176              0.0022580617           
       0.727425             0.00293099226             0.00207660674           
       0.730065             0.00287820325             0.00145562287           
       0.732706              0.0082862935             0.00207403958           
       0.735346              0.0061468666             0.00232856245           
       0.737987              0.0109230605             0.00219346262           
       0.740627             0.00777727307             0.00276158378           
       0.743267             0.00745694996             0.00181120382           
       0.745908             0.00520557269             0.00164183569           
       0.748548             0.00833682078             0.00191518221           
       0.751189             0.00480452253             0.00195907703           
       0.753829             0.00879153219             0.00243603648           
       0.756469             0.00698977058             0.00175152488           
       0.759110             0.00823726485             0.00200376552           
       0.761750             0.00798889344             0.00174485508           
       0.764390             0.00752133454             0.00177202142           
       0.767031             0.00781333928             0.00156400816           
       0.769671             0.00880444155              0.0020710292           
       0.772312             0.00984473885             0.00166720409           
       0.774952             0.00822748266             0.00205816349           
       0.777592             0.00763282262             0.00144393006           
       0.780233              0.0094872785             0.00194221887           
       0.782873             0.00653571029             0.00154175857           
       0.785513             0.00788732365             0.00181066697           
       0.788154             0.00719979749             0.00144716403           
       0.790794             0.00580035003             0.00155290095           
       0.793435             0.00636759276             0.00146168743           
       0.796075             0.00749038306             0.00152716179           
       0.798715             0.00562864959             0.00156440029           
       0.801356             0.00759368175             0.00156389608           
       0.803996             0.00832477834             0.00166940131           
       0.806637             0.00846429596             0.00133962132           
       0.809277             0.00871843547             0.00147159141           
       0.811917             0.00892101591             0.00139159471           
       0.814558             0.00818341242             0.00138523256           
       0.817198             0.00678462681             0.00119829429           
       0.819838             0.00668391047             0.00120372709           
       0.822479             0.00599128572             0.00133826413           
       0.825119             0.00409484444            0.000941660269           
       0.827760             0.00620580985             0.00117426904           
       0.830400              0.0058866163             0.00107640684           
       0.833040             0.00884608407             0.00138246064           
       0.835681             0.00670494919             0.00136826456           
       0.838321             0.00669745903             0.00114778642           
       0.840961              0.0086045843             0.00141748016           
       0.843602             0.00860014744             0.00129955203           
       0.846242              0.0085951381             0.00129897972           
       0.848883             0.00740313037             0.00123370242           
       0.851523             0.00639100802             0.00113203243           
       0.854163             0.00725262238             0.00128245133           
       0.856804             0.00678534069             0.00111533447           
       0.859444             0.00913185021             0.00126776608           
       0.862085             0.00573366043             0.00104700259           
       0.864725             0.00722047437             0.00120242692           
       0.867365             0.00895230707             0.00124153569           
       0.870006              0.0073086943             0.00106897981           
       0.872646             0.00584512492             0.00100247202           
       0.875286             0.00699480992             0.00105503368           
       0.877927              0.0082572724             0.00110612193           
       0.880567             0.00780703161             0.00111428411           
       0.883208             0.00794298068             0.00111335556           
       0.885848             0.00704804194             0.00108892911           
       0.888488              0.0053004019            0.000885715056           
       0.891129             0.00733045802              0.0010695162           
       0.893769              0.0091411715             0.00114300066           
       0.896410             0.00777568134            0.000982865164           
       0.899050             0.00690166108             0.00101832607           
       0.901690             0.00854147979             0.00123401476           
       0.904331             0.00713638042            0.000999996551           
       0.906971             0.00808668203             0.00113245011           
       0.909611             0.00524594048            0.000830308893           
       0.912252             0.00728275481                0.00101049           
       0.914892              0.0078597577             0.00114716056           
       0.917533             0.00761507964              0.0010681846           
       0.920173             0.00682523818            0.000938261618           
       0.922813             0.00738535731             0.00102420437           
       0.925454             0.00517015237            0.000771654634           
       0.928094             0.00704929341            0.000961936218           
       0.930734             0.00651101842            0.000995305932           
       0.933375             0.00652580282            0.000986639713           
       0.936015             0.00735963078            0.000951607298           
       0.938656             0.00836818623             0.00108855278           
       0.941296              0.0075641686            0.000937939007           
       0.943936             0.00794410684            0.000942611609           
       0.946577             0.00803987131             0.00094200687           
       0.949217             0.00772405206            0.000849076235           
       0.951858              0.0098037348             0.00100134505           
       0.954498             0.00918689615             0.00112198424           
       0.957138             0.00649580928            0.000893789946           
       0.959779             0.00560832969            0.000818694696           
       0.962419             0.00836142213            0.000992994515           
       0.965059             0.00914717343             0.00109234026           
       0.967700             0.00737047445             0.00100426035           
       0.970340             0.00737602614            0.000889005649           
       0.972981              0.0077261704            0.000828971413           
       0.975621             0.00898172672            0.000950842578           
       0.978261             0.00881992863            0.000895293079           
       0.980902             0.00853849097             0.00105394476           
       0.983542             0.00763990294            0.000882859789           
       0.986182             0.00757621758            0.000863166041           
       0.988823             0.00788020721            0.000854785114           
       0.991463             0.00792026779            0.000914281674           
       0.994104             0.00680838099            0.000826925028           
       0.996744             0.00700706183            0.000855675216           
       0.999384              0.0076817059            0.000801253262           
       1.002025              0.0085391062            0.000942893808           
       1.004665             0.00757227595             0.00081144146           
       1.007306             0.00788793815            0.000823942791           
       1.009946              0.0095001141             0.00092218981           
       1.012586             0.00831320186             0.00084018083           
       1.015227             0.00833497074            0.000903798265           
       1.017867             0.00824763389            0.000864049831           
       1.020507             0.00773689836            0.000810621481           
       1.023148               0.008300216            0.000905965812           
       1.025788             0.00747233093            0.000788183155           
       1.028429             0.00831215512            0.000870919736           
       1.031069             0.00775361412            0.000791554403           
       1.033709             0.00719539197            0.000810569348           
       1.036350             0.00993496431            0.000855438024           
       1.038990             0.00886087544            0.000822719953           
       1.041630             0.00664661027            0.000743194245           
       1.044271               0.007261064            0.000730540657           
       1.046911             0.00788666472            0.000800853044           
       1.049552              0.0090798014            0.000902802646           
       1.052192             0.00831982304             0.00078911948           
       1.054832             0.00921963002             0.00083825339           
       1.057473             0.00970817878             0.00084795219           
       1.060113             0.00787970906            0.000745046358           
       1.062754             0.00719604973            0.000726931561           
       1.065394             0.00819798196            0.000820315867           
       1.068034             0.00849752851             0.00075988854           
       1.070675             0.00888540118            0.000810545806           
       1.073315             0.00706920496            0.000733339666           
       1.075955             0.00811952487            0.000741965124           
       1.078596              0.0072777454            0.000746567047           
       1.081236             0.00982448727            0.000830603425           
       1.083877              0.0095886734             0.00081321346           
       1.086517              0.0093334464            0.000860319253           
       1.089157             0.00906414796            0.000879705111           
       1.091798             0.00877864823            0.000759008459           
       1.094438             0.00984519668             0.00080120013           
       1.097078             0.00762584135            0.000676299115           
       1.099719             0.00849909902            0.000772270235           
       1.102359              0.0098476194             0.00077850572           
       1.105000             0.00838470725            0.000803262758           
       1.107640             0.00857347182            0.000776647233           
       1.110280             0.00842314543            0.000702391357           
       1.112921             0.00919321923            0.000788256436           
       1.115561             0.00873668419            0.000730332959           
       1.118202             0.00857639029             0.00072428398           
       1.120842              0.0102731761             0.00083313306           
       1.123482              0.0105828454            0.000841903353           
       1.126123             0.00849751394            0.000723604791           
       1.128763             0.00874158156            0.000738955008           
       1.131403             0.00985545231            0.000756051872           
       1.134044             0.00835967669            0.000716513631           
       1.136684             0.00900676197            0.000792942872           
       1.139325             0.00887781408            0.000725210325           
       1.141965             0.00899545078            0.000734825203           
       1.144605             0.00943526797            0.000717582339           
       1.147246             0.00889903436            0.000713209641           
       1.149886              0.0100480937            0.000755167231           
       1.152527             0.00945054518             0.00074301873           
       1.155167              0.0097796809            0.000718925253           
       1.157807             0.00899869546            0.000739397764           
       1.160448             0.00991959726             0.00075808693           
       1.163088             0.00981049399             0.00071911576           
       1.165728             0.00967086804            0.000733056849           
       1.168369             0.00797017684            0.000671634122           
       1.171009             0.00867680363            0.000680083219           
       1.173650             0.00897178202            0.000709691831           
       1.176290             0.00987451485            0.000727583099           
       1.178930             0.00999638479            0.000717484664           
       1.181571             0.00914076601            0.000699697581           
       1.184211             0.00904688992            0.000698563404           
       1.186851             0.00943160356            0.000697345752           
       1.189492             0.00999801324            0.000713149608           
       1.192132             0.00810077363            0.000634726613           
       1.194773             0.00973381078            0.000698808729           
       1.197413             0.00944521105            0.000659557087           
       1.200053              0.0099160099            0.000692966015           
       1.202694             0.00900769154            0.000628065007           
       1.205334             0.00980280693            0.000706099198           
       1.207975             0.00990342706            0.000677441834           
       1.210615              0.0083926712            0.000687973595           
       1.213255              0.0105296817            0.000690055011           
       1.215896             0.00917173458            0.000655692731           
       1.218536             0.00937952995             0.00063757868           
       1.221176             0.00901574287            0.000679603358           
       1.223817              0.0104158604            0.000685704501           
       1.226457             0.00977197536            0.000677552666           
       1.229098             0.00995809213            0.000683941235           
       1.231738              0.0109931715            0.000722145013           
       1.234378             0.00843301884            0.000594320494           
       1.237019              0.0100856321            0.000669768532           
       1.239659              0.0110221105            0.000694074102           
       1.242299              0.0099930939            0.000652484687           
       1.244940              0.0101503607            0.000639556158           
       1.247580              0.0105728226              0.0006726914           
       1.250221              0.0105135602            0.000666664378           
       1.252861             0.00907609631            0.000589686298           
       1.255501               0.010204033            0.000678907801           
       1.258142               0.010079467            0.000634049797           
       1.260782               0.011438631            0.000690062348           
       1.263423              0.0104452888            0.000633627185           
       1.266063              0.0108930241            0.000663222924           
       1.268703              0.0101488863            0.000634856624           
       1.271344              0.0102737272            0.000660397038           
       1.273984               0.010964517            0.000658907245           
       1.276624               0.011398397             0.00065919654           
       1.279265              0.0101603226              0.0006327027           
       1.281905              0.0104362363            0.000644081897           
       1.284546              0.0113183115            0.000648339627           
       1.287186             0.00921278618            0.000573882818           
       1.289826              0.0106031647            0.000648862018           
       1.292467              0.0105189869            0.000632046373           
       1.295107              0.0103066728             0.00061942047           
       1.297747              0.0112942697            0.000620482634           
       1.300388              0.0110930058            0.000670350546           
       1.303028              0.0102216804            0.000614309499           
       1.305669              0.0109482913            0.000650907104           
       1.308309              0.0103956412            0.000628020038           
       1.310949              0.0108128991            0.000639856027           
       1.313590             0.00976023888              0.0005889103           
       1.316230                0.01119776             0.00067314006           
       1.318871              0.0117442442            0.000675153299           
       1.321511              0.0107405528             0.00063369148           
       1.324151              0.0120043462            0.000650075598           
       1.326792             0.00976779582             0.00059002391           
       1.329432              0.0110097296            0.000621990935           
       1.332072             0.00956732111              0.0005711759           
       1.334713              0.0102268343            0.000609490257           
       1.337353              0.0113480574            0.000615721842           
       1.339994              0.0117858139            0.000658483362           
       1.342634              0.0110940378            0.000612632456           
       1.345274              0.0120497812             0.00066076294           
       1.347915              0.0110767922            0.000616029355           
       1.350555              0.0118550473            0.000648464751           
       1.353195              0.0114077618            0.000639238267           
       1.355836              0.0106761077            0.000608756563           
       1.358476              0.0107008248            0.000591879012           
       1.361117              0.0115065787            0.000614600816           
       1.363757              0.0112118156            0.000625202285           
       1.366397              0.0116118114            0.000617003088           
       1.369038              0.0115487072            0.000621451179           
       1.371678              0.0121413347            0.000631579182           
       1.374319              0.0113472396             0.00060531838           
       1.376959              0.0109237453             0.00058794259           
       1.379599              0.0113643966            0.000642679455           
       1.382240              0.0115213554            0.000608179121           
       1.384880              0.0107976161            0.000623638321           
       1.387520              0.0111452458            0.000601747405           
       1.390161              0.0113897694            0.000577750909           
       1.392801              0.0112112291            0.000597223795           
       1.395442              0.0111778506            0.000604478651           
       1.398082              0.0112569897            0.000568068261           
       1.400722              0.0106899301            0.000579857575           
       1.403363              0.0110550388            0.000620706472           
       1.406003              0.0108239359            0.000574794055           
       1.408644              0.0126517368             0.00065099211           
       1.411284              0.0117423911            0.000593865655           
       1.413924              0.0109014591            0.000570084482           
       1.416565              0.0116872805            0.000587955313           
       1.419205              0.0113582905            0.000604637136           
       1.421845              0.0117919906            0.000615710854           
       1.424486              0.0120166446            0.000597450749           
       1.427126              0.0110120573            0.000594127206           
       1.429767              0.0117305797            0.000576950381           
       1.432407              0.0103695904            0.000567686355           
       1.435047              0.0113959838            0.000558915196           
       1.437688              0.0100612505            0.000533017398           
       1.440328              0.0121256666            0.000597212641           
       1.442968              0.0108601506            0.000577852917           
       1.445609              0.0111601718            0.000567197862           
       1.448249              0.0109003096            0.000574748314           
       1.450890              0.0106146919            0.000563466461           
       1.453530              0.0100990903            0.000575003763           
       1.456170              0.0113378773            0.000591291277           
       1.458811              0.0117687574             0.00057604883           
       1.461451              0.0105313677            0.000546354031           
       1.464092              0.0113940369            0.000572006116           
       1.466732              0.0111472522            0.000560915765           
       1.469372              0.0108389157            0.000540159485           
       1.472013               0.011074052            0.000588857979           
       1.474653              0.0104766981            0.000563920318           
       1.477293              0.0111560827            0.000594182343           
       1.479934              0.0113817815            0.000572680596           
       1.482574              0.0110086468            0.000544822643           
       1.485215              0.0112998852            0.000562263155           
       1.487855              0.0115992357            0.000577176841           
       1.490495               0.011971416            0.000584204034           
       1.493136             0.00964915304            0.000517299894           
       1.495776              0.0108760722            0.000546703471           
       1.498416              0.0109237521            0.000565826261           
       1.501057              0.0104196698            0.000540438041           
       1.503697              0.0115452945            0.000556171932           
       1.506338              0.0104891838             0.00053981115           
       1.508978              0.0105595009            0.000536291084           
       1.511618              0.0110229411            0.000583546197           
       1.514259              0.0105734778            0.000551780863           
       1.516899              0.0101276345            0.000525802733           
       1.519540              0.0098032584            0.000525655858           
       1.522180              0.0105790545            0.000550856029           
       1.524820              0.0118196578            0.000578993482           
       1.527461              0.0115763273            0.000575836524           
       1.530101              0.0104152796            0.000540734399           
       1.532741              0.0111843681            0.000557091515           
       1.535382               0.011393761            0.000571334299           
       1.538022             0.00954774561            0.000492699898           
       1.540663              0.0105791316            0.000557817857           
       1.543303              0.0104179603             0.00051398245           
       1.545943              0.0112864941            0.000566235428           
       1.548584               0.010943403            0.000567571286           
       1.551224             0.00968308721            0.000493631027           
       1.553864              0.0113416303            0.000564520318           
       1.556505             0.00998822412            0.000511769901           
       1.559145              0.0102656413            0.000525183881           
       1.561786              0.0101712088            0.000523165354           
       1.564426             0.00987841978            0.000499543756           
       1.567066              0.0104959829            0.000539539273           
       1.569707             0.00980805032            0.000512189458           
       1.572347             0.00995153326            0.000532999306           
       1.574988              0.0103315763            0.000516922448           
       1.577628             0.00918666916            0.000508279698           
       1.580268              0.0085114415            0.000474025087           
       1.582909             0.00999891795            0.000544585208           
       1.585549             0.00956051406            0.000517052801           
       1.588189             0.00938174923            0.000501017128           
       1.590830             0.00945601055            0.000502364808           
       1.593470             0.00934622133            0.000519215701           
       1.596111              0.0100627001            0.000525987082           
       1.598751             0.00942208381            0.000493173862           
       1.601391              0.0102904927            0.000526771436           
       1.604032             0.00956901498            0.000518588821           
       1.606672             0.00982443339             0.00051053854           
       1.609312              0.0102733318            0.000544982151           
       1.611953             0.00934964152            0.000508759577           
       1.614593             0.00998637668            0.000515766386           
       1.617234             0.00858614514            0.000495639411           
       1.619874             0.00970837368            0.000524953686           
       1.622514             0.00921448164             0.00050444986           
       1.625155             0.00966937342            0.000519804174           
       1.627795             0.00924695235            0.000495868341           
       1.630436              0.0100507552             0.00051427183           
       1.633076             0.00860796404              0.0004821726           
       1.635716             0.00926961174            0.000492575384           
       1.638357             0.00974147024            0.000506287743           
       1.640997              0.0090703422            0.000503335238           
       1.643637             0.00935281437            0.000497370248           
       1.646278              0.0094732224            0.000516289274           
       1.648918             0.00854164442            0.000491584403           
       1.651559             0.00902357795            0.000509183699           
       1.654199             0.00944351461            0.000506618177           
       1.656839             0.00942997843            0.000506431674           
       1.659480             0.00885031115             0.00050904315           
       1.662120             0.00862743245            0.000473359457           
       1.664761             0.00961652348             0.00051911905           
       1.667401             0.00923426583            0.000486205331           
       1.670041             0.00912719157            0.000490748686           
       1.672682             0.00856141352            0.000473341515           
       1.675322             0.00896833655            0.000481344559           
       1.677962             0.00952798493             0.00049066288           
       1.680603             0.00900770266            0.000478546423           
       1.683243             0.00910965918            0.000502091589           
       1.685884             0.00827633901            0.000482110224           
       1.688524             0.00897346529            0.000492300332           
       1.691164               0.009317812            0.000501771014           
       1.693805             0.00817585159            0.000475181998           
       1.696445             0.00973825769             0.00052161017           
       1.699085             0.00927798204            0.000492073973           
       1.701726             0.00839910951            0.000451017381           
       1.704366             0.00931008441            0.000500238029           
       1.707007             0.00888792771            0.000477869959           
       1.709647             0.00866321648            0.000477118322           
       1.712287             0.00903409926            0.000491465219           
       1.714928             0.00892307393            0.000492373992           
       1.717568             0.00828554361            0.000446941925           
       1.720209             0.00824945314            0.000467119981           
       1.722849             0.00955351996             0.00050010254           
       1.725489             0.00889204613            0.000482883901           
       1.728130             0.00793231472            0.000484686142           
       1.730770             0.00939317557            0.000500919087           
       1.733410             0.00923216122            0.000488801059           
       1.736051             0.00784272869            0.000453655792           
       1.738691             0.00833500739            0.000458196419           
       1.741332             0.00797721721            0.000461361487           
       1.743972             0.00832912035            0.000486829271           
       1.746612             0.00796495266            0.000457146354           
       1.749253             0.00925273611            0.000502448757           
       1.751893             0.00955039805            0.000506719792           
       1.754533             0.00775458472            0.000456174111           
       1.757174             0.00913730892            0.000490539979           
       1.759814              0.0090353227            0.000480400691           
       1.762455             0.00767519479            0.000450898434           
       1.765095             0.00853150015            0.000454764859           
       1.767735             0.00806578342            0.000455819545           
       1.770376             0.00814242806            0.000459187486           
       1.773016             0.00900970864            0.000479788289           
       1.775657             0.00758775291            0.000433966857           
       1.778297              0.0096822544            0.000485995637           
       1.780937             0.00924015764            0.000501120193           
       1.783578             0.00831615007            0.000463517463           
       1.786218              0.0084338594            0.000487142595           
       1.788858             0.00901820334            0.000478427598           
       1.791499             0.00831848895            0.000454331981           
       1.794139             0.00866660619            0.000459978714           
       1.796780              0.0093054421            0.000474332577           
       1.799420             0.00885634306            0.000460182356           
       1.802060             0.00995500932             0.00049183272           
       1.804701             0.00850125495            0.000436163115           
       1.807341             0.00975053208            0.000490833731           
       1.809981             0.00898372098            0.000472709051           
       1.812622             0.00929167227            0.000472087809           
       1.815262             0.00842154023             0.00045898702           
       1.817903             0.00915430627            0.000471448572           
       1.820543             0.00830957409             0.00045616934           
       1.823183             0.00867159912            0.000465744234           
       1.825824             0.00935650514            0.000462191064           
       1.828464             0.00890361026            0.000470047621           
       1.831105             0.00908378701             0.00046165318           
       1.833745             0.00870737072            0.000461640002           
       1.836385             0.00803616754             0.00045614712           
       1.839026             0.00881509111            0.000476233065           
       1.841666             0.00901213937             0.00047981893           
       1.844306             0.00864500689            0.000457121339           
       1.846947             0.00838447018            0.000454126617           
       1.849587             0.00893732305            0.000517734731           
       1.852228             0.00791321152             0.00044052182           
       1.854868             0.00848666719            0.000481912648           
       1.857508             0.00865236654            0.000481822029           
       1.860149             0.00853154208            0.000487138723           
       1.862789             0.00824555984            0.000462253638           
       1.865429             0.00888003387            0.000500742465           
       1.868070              0.0081325107            0.000472815962           
       1.870710               0.008538446            0.000473303292           
       1.873351              0.0088417228            0.000487589687           
       1.875991             0.00815939305            0.000476042307           
       1.878631             0.00848229452            0.000476074497           
       1.881272             0.00877027982            0.000480845195           
       1.883912             0.00871191529            0.000498752114           
       1.886553             0.00812179497            0.000476180025           
       1.889193             0.00820499308            0.000477794971           
       1.891833             0.00850523222             0.00050520584           
       1.894474             0.00873172674             0.00050743043           
       1.897114             0.00772204914            0.000461768276           
       1.899754             0.00935713704            0.000510437579           
       1.902395             0.00853635183            0.000478004757           
       1.905035             0.00839538534            0.000502089422           
       1.907676             0.00836644545             0.00047240443           
       1.910316             0.00798016629            0.000473620258           
       1.912956              0.0091986606            0.000497307945           
       1.915597             0.00795467514            0.000465044786           
       1.918237             0.00794480954             0.00047998019           
       1.920878             0.00992310761            0.000534224648           
       1.923518             0.00806650668             0.00048186685           
       1.926158             0.00930589753            0.000510847103           
       1.928799             0.00859976536            0.000485398805           
       1.931439             0.00763410638            0.000469330501           
       1.934079             0.00836081257            0.000512023311           
       1.936720             0.00864924431            0.000482518103           
       1.939360             0.00820353336            0.000501340353           
       1.942001              0.0079882136            0.000453433674           
       1.944641             0.00805602971            0.000464323782           
       1.947281             0.00914489505            0.000490148965           
       1.949922             0.00761584236             0.00046202006           
       1.952562              0.0082809543            0.000496874011           
       1.955202             0.00858886026            0.000505410365           
       1.957843             0.00775323671            0.000467742445           
       1.960483             0.00813064778            0.000500785001           
       1.963124             0.00777505793            0.000479665141           
       1.965764             0.00880780631            0.000481442929           
       1.968404             0.00822377101            0.000460811755           
       1.971045             0.00820731682            0.000469351567           
       1.973685             0.00800986968            0.000486356785           
       1.976326             0.00736477534            0.000459951229           
       1.978966             0.00821306345            0.000489981065           
       1.981606             0.00745775729            0.000476645135           
       1.984247             0.00828629669            0.000499121846           
       1.986887             0.00809764531            0.000487497017           
       1.989527             0.00763522928            0.000468275221           
       1.992168             0.00734331619            0.000476496628           
       1.994808             0.00796536836            0.000494141136           
       1.997449             0.00805389005            0.000486675148           
       2.000089             0.00807451676            0.000485365982           
       2.002729             0.00797058991            0.000482521413           
       2.005370             0.00894999083             0.00050580656           
       2.008010             0.00768495625            0.000489154405           
       2.010650             0.00733483358            0.000481447576           
       2.013291             0.00743427306            0.000465042936           
       2.015931             0.00781350883            0.000473386608           
       2.018572             0.00737043821            0.000491766292           
       2.021212             0.00755738952            0.000489017284           
       2.023852             0.00812489225            0.000479894877           
       2.026493             0.00751104568              0.0004820254           
       2.029133             0.00818984204            0.000493206271           
       2.031774             0.00775984909            0.000503837759           
       2.034414             0.00775698519            0.000463515173           
       2.037054             0.00789480665            0.000479467272           
       2.039695             0.00762598331            0.000467674465           
       2.042335             0.00739662835             0.00047865206           
       2.044975             0.00792424444            0.000489421413           
       2.047616              0.0072763958            0.000467823501           
       2.050256              0.0078921991             0.00049182833           
       2.052897             0.00806722659            0.000506419261           
       2.055537             0.00739180057            0.000468498261           
       2.058177             0.00839974703            0.000489066889           
       2.060818             0.00877964645             0.00052379315           
       2.063458             0.00708729181            0.000490422714           
       2.066098             0.00772051265            0.000482857998           
       2.068739             0.00741626029            0.000480604221           
       2.071379             0.00717368527            0.000485006565           
       2.074020             0.00733496242            0.000479769797           
       2.076660              0.0071380866            0.000477113346           
       2.079300             0.00742418318            0.000498503042           
       2.081941             0.00717718977            0.000448779566           
       2.084581              0.0073778569            0.000480267532           
       2.087222             0.00760758733            0.000470327942           
       2.089862             0.00789673936            0.000521903172           
       2.092502             0.00767973654            0.000498910971           
       2.095143             0.00781085537            0.000519579679           
       2.097783             0.00728939879            0.000485958946           
       2.100423             0.00757227142            0.000477265476           
       2.103064             0.00695916291            0.000474755265           
       2.105704             0.00752708881            0.000491301726           
       2.108345              0.0067439701            0.000446781433           
       2.110985             0.00769860301            0.000509851779           
       2.113625             0.00790608264            0.000521185183           
       2.116266             0.00671288962             0.00048706223           
       2.118906             0.00776477915            0.000488184581           
       2.121546             0.00816915544            0.000491174582           
       2.124187             0.00751163951            0.000494397437           
       2.126827             0.00769114089            0.000505853112           
       2.129468             0.00685174013            0.000478671316           
       2.132108             0.00766364229            0.000492530861           
       2.134748             0.00806875142            0.000503420339           
       2.137389             0.00632269124            0.000464907231           
       2.140029             0.00724574342            0.000445560283           
       2.142670             0.00767210411            0.000489989535           
       2.145310             0.00770671347            0.000477990081           
       2.147950             0.00728895632            0.000478461862           
       2.150591             0.00714623837            0.000468966765           
       2.153231             0.00705588977            0.000479667143           
       2.155871             0.00812897598            0.000497380805           
       2.158512             0.00666672337            0.000469991776           
       2.161152             0.00859098461            0.000516806478           
       2.163793             0.00715135223            0.000469397746           
       2.166433             0.00792965368            0.000507574642           
       2.169073             0.00722047663            0.000473562838           
       2.171714             0.00771127748            0.000485734659           
       2.174354             0.00671815886            0.000473738807           
       2.176995             0.00702523984            0.000482406491           
       2.179635             0.00774380597            0.000535202019           
       2.182275             0.00753364872            0.000498411649           
       2.184916             0.00732294913            0.000474621316           
       2.187556             0.00717305443            0.000465030529           
       2.190196             0.00797261857            0.000512319147           
       2.192837             0.00770909421            0.000501040003           
       2.195477             0.00724645248            0.000463126941           
       2.198118             0.00800415087            0.000499209605           
       2.200758             0.00795984001            0.000510739135           
       2.203398             0.00693824621            0.000479889565           
       2.206039             0.00689565007            0.000452778536           
       2.208679             0.00756897651            0.000485409447           
       2.211319             0.00720160574            0.000476213018           
       2.213960             0.00742006205            0.000489858383           
       2.216600             0.00782912493             0.00052052851           
       2.219241             0.00724444053            0.000478547946           
       2.221881             0.00745520037            0.000486457282           
       2.224521             0.00842577656            0.000523491282           
       2.227162             0.00748873428            0.000483642963           
       2.229802             0.00741521128            0.000496328392           
       2.232443             0.00827544646            0.000516057848           
       2.235083             0.00668639055            0.000477555376           
       2.237723             0.00832540374            0.000511377021           
       2.240364             0.00702753679            0.000481403921           
       2.243004               0.007538028             0.00049460245           
       2.245644             0.00762888811            0.000502554819           
       2.248285              0.0070040579            0.000471888237           
       2.250925             0.00715800198            0.000479943793           
       2.253566             0.00790396988            0.000539170243           
       2.256206              0.0077758882            0.000524090806           
       2.258846             0.00726244654            0.000481814463           
       2.261487             0.00783216777            0.000525170324           
       2.264127              0.0076968557             0.00050280078           
       2.266767             0.00730712394            0.000502958147           
       2.269408             0.00796824813            0.000527369307           
       2.272048             0.00790714296            0.000522207488           
       2.274689              0.0071448182            0.000502937391           
       2.277329             0.00750008202            0.000485178325           
       2.279969             0.00787180038            0.000529087769           
       2.282610             0.00752499037            0.000502913845           
       2.285250             0.00727040999            0.000473144362           
       2.287891             0.00749897703            0.000515194455           
       2.290531             0.00723230495             0.00051275243           
       2.293171             0.00811344622            0.000529019058           
       2.295812             0.00688844036            0.000485489514           
       2.298452             0.00797686412            0.000546332244           
       2.301092             0.00718656073            0.000481808478           
       2.303733             0.00783859019            0.000523494424           
       2.306373             0.00642233961            0.000481311132           
       2.309014             0.00696223548            0.000491357732           
       2.311654             0.00703247311            0.000515335055           
       2.314294             0.00722048328            0.000481084749           
       2.316935             0.00789512475            0.000505136222           
       2.319575             0.00698718029            0.000497903691           
       2.322215             0.00594356712            0.000478581637           
       2.324856             0.00707489556            0.000480059656           
       2.327496             0.00714078765             0.00051282571           
       2.330137             0.00762311143            0.000507038401           
       2.332777             0.00666256785            0.000488763891           
       2.335417             0.00772795365            0.000510680433           
       2.338058             0.00823734708            0.000542992682           
       2.340698             0.00728798594            0.000506731279           
       2.343339             0.00743942355            0.000523235268           
       2.345979             0.00724481846            0.000488504726           
       2.348619             0.00686492927            0.000492906795           
       2.351260             0.00793718015            0.000526916969           
       2.353900              0.0072033802            0.000500379256           
       2.356540             0.00741734788            0.000507035681           
       2.359181             0.00690375014            0.000482308658           
       2.361821             0.00742330707            0.000483110396           
       2.364462             0.00678714973            0.000483137911           
       2.367102             0.00741986724             0.00051912854           
       2.369742             0.00660656049             0.00051560266           
       2.372383             0.00689914736            0.000477103304           
       2.375023               0.007055892            0.000507204297           
       2.377663             0.00795709603            0.000515001926           
       2.380304             0.00723711609            0.000499339538           
       2.382944              0.0062116378            0.000440622632           
       2.385585              0.0069302717            0.000496371396           
       2.388225             0.00665887804             0.00048426893           
       2.390865             0.00755935809            0.000510674639           
       2.393506             0.00773291692             0.00050675933           
       2.396146             0.00793781733            0.000555142903           
       2.398787             0.00711593279              0.0004843977           
       2.401427             0.00730447395             0.00047370905           
       2.404067             0.00670811333            0.000464085654           
       2.406708             0.00646903264            0.000450275424           
       2.409348             0.00698924267            0.000496437305           
       2.411988             0.00693805188            0.000484614218           
       2.414629             0.00756159359            0.000521678932           
       2.417269             0.00729699479            0.000518453469           
       2.419910             0.00691966965            0.000506042555           
       2.422550             0.00712032194            0.000491119698           
       2.425190             0.00784333308            0.000543339781           
       2.427831             0.00782782003            0.000539750908           
       2.430471             0.00734380285            0.000498065568           
       2.433112             0.00672096582            0.000463974933           
       2.435752             0.00693155837            0.000498663892           
       2.438392             0.00675112788            0.000475006897           
       2.441033             0.00679908941            0.000505196844           
       2.443673             0.00634788481            0.000488521317           
       2.446313             0.00725873678             0.00052285621           
       2.448954             0.00723041936            0.000496860192           
       2.451594              0.0077281623            0.000552323387           
       2.454235             0.00777998708            0.000519955035           
       2.456875             0.00718044942            0.000522676092           
       2.459515             0.00772248116            0.000556076986           
       2.462156             0.00823516594            0.000542161573           
       2.464796             0.00793153167            0.000525208216           
       2.467436             0.00735583296            0.000523044663           
       2.470077             0.00713149078            0.000488133021           
       2.472717             0.00754805121            0.000504362342           
       2.475358             0.00753723184            0.000509255984           
       2.477998             0.00694600497            0.000480633177           
       2.480638             0.00820531267            0.000531671055           
       2.483279             0.00793487526            0.000546446991           
       2.485919             0.00771644921            0.000519327715           
       2.488560             0.00711844197            0.000497404878           
       2.491200             0.00704715056             0.00050962429           
       2.493840             0.00796838461            0.000573413493           
       2.496481             0.00729924405            0.000539832281           
       2.499121             0.00690181546            0.000510578479           
       2.501761             0.00690864266            0.000517599202           
       2.504402             0.00661322944            0.000499013396           
       2.507042             0.00634006489            0.000484979145           
       2.509683             0.00791268028            0.000533518196           
       2.512323             0.00708757157            0.000530308025           
       2.514963             0.00707973153            0.000523466591           
       2.517604             0.00642236573            0.000517345371           
       2.520244             0.00814103975            0.000546065969           
       2.522884             0.00790569551            0.000545810701           
       2.525525             0.00783022676            0.000549364684           
       2.528165             0.00780587505            0.000539959766           
       2.530806             0.00878540697            0.000582822334           
       2.533446             0.00803217872            0.000545383306           
       2.536086             0.00708859308             0.00050776245           
       2.538727             0.00891984176             0.00054643097           
       2.541367             0.00716704312            0.000494633827           
       2.544008             0.00701349397            0.000505334211           
       2.546648             0.00677585138            0.000505218882           
       2.549288             0.00697445918            0.000523013707           
       2.551929             0.00686755181            0.000510716964           
       2.554569             0.00750026096            0.000514199309           
       2.557209              0.0067550609            0.000492468205           
       2.559850             0.00727855328            0.000512835962           
       2.562490             0.00679283241            0.000512052431           
       2.565131             0.00660535422            0.000523541229           
       2.567771             0.00717498701            0.000526087595           
       2.570411             0.00652832418            0.000496390823           
       2.573052             0.00707463698            0.000523251098           
       2.575692             0.00787151003            0.000548591698           
       2.578332              0.0061268249            0.000485993158           
       2.580973             0.00635461607            0.000490235916           
       2.583613             0.00658778256             0.00048726367           
       2.586254             0.00770763358            0.000526321303           
       2.588894             0.00744980662            0.000537340355           
       2.591534             0.00710099051            0.000543069616           
       2.594175             0.00675485168             0.00051967313           
       2.596815             0.00678766633            0.000524005425           
       2.599456             0.00636742694            0.000481283696           
       2.602096             0.00671223124            0.000497903554           
       2.604736              0.0066837646            0.000508627946           
       2.607377             0.00800281657            0.000541891686           
       2.610017             0.00654526942            0.000481490295           
       2.612657             0.00700464766             0.00052980492           
       2.615298               0.006835462            0.000510971356           
       2.617938             0.00633405478            0.000526179063           
       2.620579              0.0072033138            0.000538673332           
       2.623219             0.00706617725            0.000532760545           
       2.625859             0.00668307696            0.000503755261           
       2.628500             0.00745518053            0.000528572357           
       2.631140             0.00737819479            0.000533938369           
       2.633780             0.00834502511            0.000567351479           
       2.636421             0.00773600946            0.000559690309           
       2.639061             0.00638216105            0.000478564492           
       2.641702              0.0071653449            0.000518817615           
       2.644342             0.00749373529            0.000532833992           
       2.646982             0.00717271588            0.000513502946           
       2.649623             0.00693453461            0.000529120305           
       2.652263             0.00739579267            0.000540951076           
       2.654904             0.00852491747            0.000581363031           
       2.657544             0.00692395707            0.000493494802           
       2.660184             0.00743943668            0.000541353078           
       2.662825             0.00680069114            0.000529599507           
       2.665465             0.00655313015            0.000502800713           
       2.668105             0.00813315553            0.000590415069           
       2.670746             0.00744775146             0.00052192994           
       2.673386             0.00912152766            0.000595271641           
       2.676027              0.0091977556            0.000588160264           
       2.678667             0.00996291146            0.000597291659           
       2.681307              0.0110651761            0.000618486435           
       2.683948              0.0174245751             0.00079743327           
       2.686588              0.0128230119            0.000672737633           
       2.689229              0.0109065471            0.000606260706           
       2.691869              0.0100139818            0.000613978707           
       2.694509             0.00894264021            0.000580525583           
       2.697150               0.007817553            0.000533974015           
       2.699790             0.00732635959            0.000541923206           
       2.702430             0.00761762053            0.000528209952           
       2.705071             0.00706822466            0.000525754808           
       2.707711             0.00607881591            0.000473223877           
       2.710352              0.0070295388            0.000537701834           
       2.712992             0.00643892387            0.000524133027           
       2.715632             0.00639140561            0.000484493762           
       2.718273             0.00705792175            0.000527644397           
       2.720913             0.00712818181            0.000528755411           
       2.723553             0.00668605667            0.000515530827           
       2.726194             0.00707795676            0.000554468428           
       2.728834             0.00690555826            0.000547931131           
       2.731475             0.00783977535            0.000538813947           
       2.734115             0.00616922464            0.000492805904           
       2.736755             0.00692393583            0.000526377222           
       2.739396             0.00695019639            0.000524318952           
       2.742036             0.00632849911            0.000523616062           
       2.744677             0.00819663133            0.000578196474           
       2.747317             0.00695365895            0.000528757448           
       2.749957              0.0066156535             0.00051936579           
       2.752598             0.00743847364            0.000556694193           
       2.755238             0.00750924909            0.000569433618           
       2.757878             0.00738772252             0.00055986884           
       2.760519             0.00862941996            0.000598676622           
       2.763159             0.00988025265            0.000634196267           
       2.765800             0.00773371749            0.000534711593           
       2.768440             0.00780428565            0.000541102697           
       2.771080             0.00869738205            0.000575993323           
       2.773721             0.00690040578            0.000526285715           
       2.776361             0.00701243031            0.000537859836           
       2.779001             0.00785779784            0.000589627672           
       2.781642             0.00587351259            0.000506015704           
       2.784282             0.00701897379            0.000562257537           
       2.786923             0.00609504168            0.000528559581           
       2.789563              0.0061413054            0.000510993305           
       2.792203             0.00845625678             0.00057280547           
       2.794844             0.00604766954            0.000530904227           
       2.797484             0.00683392594            0.000532619457           
       2.800125             0.00734125863            0.000580465722           
       2.802765             0.00717288122            0.000563899604           
       2.805405             0.00690817861            0.000555269968           
       2.808046             0.00673119341            0.000557746431           
       2.810686             0.00713847816            0.000527781466           
       2.813326             0.00673118919             0.00053235016           
       2.815967             0.00720220755            0.000566317864           
       2.818607             0.00639789085             0.00050935317           
       2.821248             0.00663778468            0.000508043511           
       2.823888             0.00694083996            0.000539266326           
       2.826528             0.00769282301            0.000549816317           
       2.829169               0.006152041            0.000515009402           
       2.831809              0.0064714262            0.000535393487           
       2.834449             0.00663821133            0.000545675678           
       2.837090             0.00685787154             0.00053568508           
       2.839730             0.00601123804            0.000499081224           
       2.842371             0.00630794664            0.000511987804           
       2.845011             0.00696055368             0.00054210765           
       2.847651             0.00639133329            0.000520106675           
       2.850292             0.00720934954            0.000557809854           
       2.852932             0.00670382233            0.000549619911           
       2.855573             0.00653194423            0.000526267805           
       2.858213             0.00715756512             0.00057850575           
       2.860853             0.00865754618            0.000591851364           
       2.863494             0.00636288955            0.000525332197           
       2.866134             0.00721452241            0.000581411106           
       2.868774              0.0064604587            0.000540722143           
       2.871415              0.0060519971            0.000531501454           
       2.874055             0.00712649497            0.000551308252           
       2.876696             0.00621169018            0.000528630708           
       2.879336             0.00674381522            0.000530873118           
       2.881976             0.00786245612            0.000591231039           
       2.884617             0.00693932815            0.000547282101           
       2.887257             0.00754273039            0.000573525453           
       2.889897             0.00672531156            0.000530411754           
       2.892538             0.00823792814            0.000643101856           
       2.895178             0.00828498871            0.000582656841           
       2.897819             0.00750242772            0.000565599033           
       2.900459             0.00680713413            0.000528272795           
       2.903099             0.00702317009            0.000531097529           
       2.905740             0.00692591564            0.000541052681           
       2.908380             0.00682977072            0.000543388929           
       2.911021             0.00776622013            0.000588866317           
       2.913661             0.00642256514            0.000535347764           
       2.916301              0.0074657981            0.000577741837           
       2.918942             0.00657862881            0.000518751695           
       2.921582             0.00664055288            0.000545312234           
       2.924222             0.00685434314            0.000536739568           
       2.926863             0.00791105738            0.000600627705           
       2.929503             0.00712724635            0.000576851481           
       2.932144             0.00631309037            0.000521155944           
       2.934784             0.00707777236            0.000542768672           
       2.937424             0.00757140722            0.000567140763           
       2.940065             0.00731926527            0.000531914301           
       2.942705             0.00694399537            0.000517448857           
       2.945346             0.00616717868            0.000517517392           
       2.947986             0.00699912425            0.000562155335           
       2.950626             0.00719058844            0.000566584329           
       2.953267             0.00752249086            0.000570149611           
       2.955907              0.0075358568            0.000591977077           
       2.958547             0.00629493551             0.00051077521           
       2.961188             0.00676694568            0.000552498452           
       2.963828             0.00751083223            0.000569376696           
       2.966469             0.00698409668            0.000538614764           
       2.969109              0.0061142157            0.000511423926           
       2.971749             0.00797727663            0.000580524063           
       2.974390             0.00690260917            0.000530655884           
       2.977030             0.00686868362            0.000541180256           
       2.979670             0.00927723743            0.000611772725           
       2.982311             0.00766251455             0.00057625493           
       2.984951             0.00733340152             0.00053616989           
       2.987592             0.00657551062            0.000517877478           
       2.990232             0.00706653135            0.000558334248           
       2.992872             0.00793777115            0.000557397809           
       2.995513             0.00775162309            0.000538886481           
       2.998153              0.0106402518            0.000641967436           
       3.000794              0.0114841562            0.000645999646           
       3.003434              0.0121071829            0.000664292767           
       3.006074              0.0388396201             0.00117312789           
       3.008715               0.108709529             0.00189456753           
       3.011355               0.209585963             0.00253676315           
       3.013995               0.113477117             0.00187168592           
       3.016636              0.0704982155             0.00144462681           
       3.019276               0.131410429             0.00193876894           
       3.021917               0.490116848             0.00360024573           
       3.024557                 1.4894026             0.00617047163           
       3.027197                1.17293787             0.00533864421           
       3.029838               0.548938368             0.00370401099           
       3.032478               0.267504196             0.00258831501           
       3.035118              0.0668970735             0.00131172615           
       3.037759              0.0893675847              0.0015141501           
       3.040399               0.117038266             0.00178740355           
       3.043040               0.469383259             0.00362337613           
       3.045680               0.396980596             0.00313515067           
       3.048320              0.0977005202             0.00158916643           
       3.050961               0.107828943             0.00169892557           
       3.053601              0.0890408423             0.00148690173           
       3.056242               0.066573762             0.00136697082           
       3.058882               0.053920397             0.00131966517           
       3.061522              0.0394512854             0.00110748939           
       3.064163              0.0518039233             0.00125310306           
       3.066803               0.113324348             0.00195122176           
       3.069443               0.108706626             0.00199945235           
       3.072084              0.0462324779             0.00126968669           
       3.074724              0.0414581003             0.00134274041           
       3.077365              0.0824906493             0.00196066459           
       3.080005              0.0167168047            0.000887629151           
       3.082645              0.0120913208            0.000793044415           
       3.085286              0.0130433728            0.000830172956           
       3.087926              0.0104115028            0.000735987088           
       3.090566              0.0111643427            0.000746742038           
       3.093207             0.00999023469            0.000735067365           
       3.095847             0.00843647972            0.000647448307           
       3.098488             0.00818522177            0.000707138052           
       3.101128              0.0108921604            0.000820975197           
       3.103768             0.00995135059            0.000769955421           
       3.106409              0.0101048148            0.000825733974           
       3.109049             0.00980823495            0.000780700556           
       3.111690             0.00882234638            0.000727714288           
       3.114330             0.00748732549            0.000684658778           
       3.116970             0.00768425402            0.000698929037           
       3.119611              0.0113654276            0.000904781832           
       3.122251              0.0163390757             0.00113477653           
       3.124891              0.0357131131              0.0016933123           
       3.127532              0.0240399223              0.0013591201           
       3.130172              0.0146334983              0.0010787123           
       3.132813             0.00996978734            0.000876546593           
       3.135453             0.00665593202            0.000710304089           
       3.138093             0.00782077512            0.000834272394           
       3.140734             0.00659105674            0.000706582889           
       3.143374             0.00728261479            0.000785466369           
       3.146014               0.007926823            0.000882197731           
       3.148655             0.00736857399            0.000790679969           
       3.151295             0.00683740777            0.000811655834           
       3.153936             0.00573608437            0.000718120803           
       3.156576             0.00636689398            0.000746286728           
       3.159216             0.00663557608            0.000765681342           
       3.161857             0.00644682191            0.000751641057           
       3.164497             0.00764810592            0.000860197623           
       3.167138             0.00930095608            0.000980139755           
       3.169778             0.00658288007            0.000810980428           
       3.172418             0.00615967815            0.000776499738           
       3.175059             0.00738613255            0.000753824643           
       3.177699             0.00604619583            0.000722227527           
       3.180339             0.00603669885            0.000773202828           
       3.182980              0.0045365472            0.000693001625           
       3.185620             0.00692294196            0.000871849684           
       3.188261             0.00636931001            0.000851185603           
       3.190901             0.00527595391            0.000712490984           
       3.193541              0.0049763293            0.000727087169           
       3.196182             0.00658381298            0.000871561768           
       3.198822             0.00726453054            0.000915817095           
       3.201463             0.00691715889            0.000878256468           
       3.204103             0.00552031986            0.000779810775           
       3.206743             0.00617165868            0.000824455644           
       3.209384             0.00640206482            0.000907228804           
       3.212024             0.00704472896            0.000887260151           
       3.214664               0.006356969            0.000958426387           
       3.217305             0.00505887829            0.000812726665           
       3.219945             0.00650468163            0.000948537955           
       3.222586             0.00501481519            0.000793280112           
       3.225226             0.00538668332            0.000912065762           
       3.227866             0.00594659034            0.000875872443           
       3.230507             0.00482138424            0.000817537695           
       3.233147             0.00507870011            0.000845845381           
       3.235787             0.00735270451              0.0010415331           
       3.238428             0.00548599714            0.000970844526           
       3.241068             0.00583791058            0.000936451539           
       3.243709             0.00560801425            0.000948261809           
       3.246349             0.00440530737            0.000766148415           
       3.248989             0.00667615422             0.00111366861           
       3.251630             0.00534943139            0.000959976489           
       3.254270             0.00647601726            0.000943988182           
       3.256911             0.00375532692            0.000784341795           
       3.259551             0.00624106339             0.00108858111           
       3.262191             0.00473567487            0.000968589085           
       3.264832             0.00644449461             0.00118058453           
       3.267472             0.00588750355             0.00105857312           
       3.270112             0.00692967112             0.00126918212           
       3.272753             0.00624560806             0.00110288386           
       3.275393             0.00791732356             0.00126701014           
       3.278034             0.00445290816             0.00095073001           
       3.280674             0.00645897326             0.00124251714           
       3.283314             0.00687466139              0.0011464521           
       3.285955             0.00551623417             0.00105959254           
       3.288595             0.00377340651            0.000974987346           
       3.291235             0.00556829728             0.00121753902           
       3.293876             0.00602628168             0.00128482139           
       3.296516             0.00251281442            0.000796488724           
       3.299157              0.0049088984             0.00109925867           
       3.301797             0.00573427594             0.00135522944           
       3.304437             0.00745985734             0.00133920689           
       3.307078             0.00639595812             0.00136597895           
       3.309718             0.00308922731            0.000979876709           
       3.312359             0.00653849001             0.00142589776           
       3.314999             0.00633455582             0.00138184574           
       3.317639             0.00497308452             0.00117096409           
       3.320280              0.0049867787             0.00124668942           
       3.322920             0.00289469233            0.000965824451           
       3.325560             0.00510913839             0.00128400222           
       3.328201             0.00653327701             0.00130767349           
       3.330841              0.0104468308             0.00201251419           
       3.333482             0.00414762345             0.00119862583           
       3.336122             0.00726153162             0.00158671043           
       3.338762             0.00459518625              0.0014580598           
       3.341403             0.00590837699             0.00157981689           
       3.344043             0.00427473642              0.0012901371           
       3.346683             0.00322481078             0.00114399566           
       3.349324             0.00667600425             0.00185064869           
       3.351964             0.00738547099             0.00205835291           
       3.354605             0.00979256963               0.002710649           
       3.357245             0.00362182837             0.00148712215           
       3.359885             0.00744319903             0.00170627135           
       3.362526             0.00488451766             0.00172853173           
       3.365166             0.00546741583             0.00172487806           
       3.367807             0.00352428147             0.00177232614           
       3.370447             0.00367183403             0.00150062955           
       3.373087             0.00207719215             0.00120697303           
       3.375728             0.00700160688             0.00250090572           
       3.378368             0.00397099965             0.00279523472           
       3.381008              0.0055038912             0.00245347374           
       3.383649             0.00631871984             0.00210884909           
       3.386289             0.00293468411             0.00170095246           
       3.388930             0.00248857352             0.00247759347           
       3.391570             0.00739293298              0.0030208258           
       3.394210             0.00195182548             0.00196429973           
       3.396851             0.00482712327             0.00345545512           
       3.399491            -2.6444339e-05                         0           
       3.402131           -2.64664504e-05                         0           
       3.404772           -2.64792244e-05                         0           
       3.407412                       nan                       nan           
       3.410053           -2.65444429e-05                         0           
       3.412693                       nan                       nan           
       3.415333             0.00901120759              0.0094719558           
