################################################################################
# EDF_DataBlockID                     0.Image.Psd
# EDF_BinarySize                      4366944
# EDF_HeaderSize                      2560
# ByteOrder                           LowByteFirst
# DataType                            FloatValue
# Dim_1                               1028
# Dim_2                               1062
# Image                               0
# HeaderID                            EH:000000:000000:000000
# Size                                4366944
# Center_1                            607.5200
# Center_2                            651.5500
# Comment                             Xenocs_Cell_Window - 20251028_20perc_iodine_1.23mg
# DDummy                              0.6
# Date                                2025-11-03T06:10:10
# Delta                               0
# Dummy                               -1.5
# ExposureTime                        360
# Gamma                               0
# Intensity1                          8.83912e-10
# PSize_1                             7.5e-05
# PSize_2                             7.5e-05
# Pressure                            0.0329494
# SampleDistance                      0.450002
# SampleEnvKind                       large
# SampleEnvPN                         ElectroChemical cell
# SampleEnvSN                         1141
# Thickness                           0
# Wavelength                          1.541891e-10
# Wavelength                          1.54189e-10
# aux                                 0
# aux_dial                            0.002375
# beamx                               588.434
# beamx_dial                          588.434
# beamz                               657.808
# beamz_dial                          657.808
# det0x                               0
# det0x_dial                          6.36945
# det0xvd                             0
# det0xvd_dial                        0
# det0y                               450.002
# det0y_dial                          481.635
# det0z                               0
# det0z_dial                          1.23302
# det0zvd                             0
# det0zvd_dial                        0
# mag                                 1.818
# mag_dial                            1.818
# om                                  0.2499
# om_dial                             -0.610199
# phi                                 -0.0120535
# phi_dial                            0
# ry                                  0.599993
# ry_dial                             0.599993
# s1bot                               0.8
# s1bot_dial                          -1.66094
# s1hl                                0.8
# s1hl_dial                           -0.608437
# s1hr                                0.8
# s1hr_dial                           0.970938
# s1top                               0.8
# s1top_dial                          -0.461562
# s2bot                               0.45
# s2bot_dial                          1.36109
# s2hl                                0.45
# s2hl_dial                           -0.83375
# s2hr                                0.45
# s2hr_dial                           -0.118594
# s2top                               0.45
# s2top_dial                          1.44734
# w2theta                             32
# w2theta_dial                        32
# waxsch                              19.2605
# waxsch_dial                         -32.7355
# waxsh                               137.085
# waxsh_dial                          -43.5338
# waxsth                              26.0607
# waxsth_dial                         -19.4086
# waxsz                               67.0407
# waxsz_dial                          -23.7954
# wind                                65.9854
# wind_dial                           66.0041
# wpsi                                124
# wpsi_dial                           124
# wstod                               115
# wstod_dial                          115
# x                                   0
# x_dial                              1.00969
# z                                   0
# z_dial                              13.3172
# CountCutoff                         15302352
# DetectorModel                       Dectris EIGER2 Si 1M, S/N E-02-0362
# ThresholdSetting                    4023.88989258
# Saturation                          0
# FlatField                           Corrected
# BackgroundReductionExtra            0.02
# BackgroundCorrectionConstant        0.0026712
# Detector                            0
# Monitor                             0
# Pil_Roi0                            0
# SumForIntensity1                    3.18208e+08
# TransmittedFlux                     883912
# det                                 0
# mon                                 0
# pilai0                              3.18208e+08
# pilai1                              797072
# pilct0                              5.49902e+08
# pilct1                              797072
# pilroi0                             0
# pilroi1                             0
# sec                                 1
# title                               20251028_20perc_iodine_1.23mg_0_01234.edf
# usaxs0                              0
# Operation                           Azimuthal average I(q)
# Error_model                         ErrorModel.poisson
# Geometrical_correction              True
# Transmission_correction             True
# Thickness_correction                False
# Binning mode                        Uniform
# Binning factor                      1.0
# Psi                                 0.0
# Omega                               0.2499
# MaskInvalidPixels                   True
# DetectorEdge                        3
# MaskFiles                           ['20251028_20perc_iodine_1.23mg_0_00012_mask.edf']
################################################################################
    q(A⁻¹)                Intensity(a.u.)            Sigma_I(a.u.)            
       0.000340                372785.493                118.567673           
       0.001019                359584.129                71.3103716           
       0.001698                350008.171                49.7481083           
       0.002377                330997.978                43.2708268           
       0.003056                307559.471                35.2519487           
       0.003735                253636.612                28.2326994           
       0.004415                204557.865                25.3544752           
       0.005094                152370.942                18.9508357           
       0.005773                100228.072                14.2297979           
       0.006452                58245.8866                10.3935986           
       0.007131                32286.0203                7.49633498           
       0.007810                16264.8146                 5.2802099           
       0.008490                8221.34504                3.32759611           
       0.009169                3974.24527                2.28653137           
       0.009848                 1235.0009                 1.2323641           
       0.010527                481.034087               0.769119085           
       0.011206                120.811964               0.367869806           
       0.011885                55.4368132               0.231529518           
       0.012564                25.0949412               0.159930796           
       0.013244                16.6704732               0.121863303           
       0.013923                12.1599125               0.105758156           
       0.014602                9.13189477              0.0849990394           
       0.015281                7.36895258               0.077725822           
       0.015960                6.02935871              0.0698029749           
       0.016639                4.83456518              0.0590244164           
       0.017319                4.06434247              0.0532771416           
       0.017998                3.39155814              0.0465604067           
       0.018677                2.89683773              0.0445681252           
       0.019356                2.46582682              0.0406296117           
       0.020035                2.07963849                0.03500649           
       0.020714                1.81355404              0.0330363554           
       0.021394                1.53970231              0.0288015004           
       0.022073                1.39001249               0.028471834           
       0.022752                1.19014796              0.0252022953           
       0.023431                1.08578665              0.0233662577           
       0.024110               0.960989294              0.0229183262           
       0.024789               0.927529429              0.0209106565           
       0.025469               0.809006367              0.0201248132           
       0.026148               0.723846297               0.017886032           
       0.026827               0.669273587              0.0174738068           
       0.027506               0.612674254              0.0169597142           
       0.028185               0.547166108              0.0152844431           
       0.028864               0.520289511              0.0148207052           
       0.029544               0.458810291               0.013496112           
       0.030223               0.433546807              0.0133074071           
       0.030902               0.409719232              0.0130549391           
       0.031581               0.336841559              0.0112524356           
       0.032260               0.317323015              0.0111076477           
       0.032939               0.302862134              0.0104633076           
       0.033619               0.300375276              0.0105734048           
       0.034298                0.27816709             0.00990195215           
       0.034977               0.253633454             0.00926939598           
       0.035656               0.238181935             0.00922034393           
       0.036335               0.227167441             0.00873336024           
       0.037014                0.19780271             0.00817368631           
       0.037693               0.190024444             0.00770682875           
       0.038373               0.178915079             0.00755154089           
       0.039052               0.169900958             0.00739016082           
       0.039731               0.159722382             0.00699838849           
       0.040410               0.162980361             0.00702200688           
       0.041089                0.14447577             0.00650780251           
       0.041768               0.149827327             0.00666185911           
       0.042448               0.138317837             0.00635120248           
       0.043127               0.122633938             0.00583904736           
       0.043806               0.121819978             0.00586302982           
       0.044485                  0.111816             0.00550173975           
       0.045164                0.11006367              0.0055660404           
       0.045843               0.106160129             0.00524298487           
       0.046523               0.102657969             0.00517358175           
       0.047202               0.103361802             0.00522756265           
       0.047881               0.101165365             0.00507198861           
       0.048560               0.106675638             0.00525575999           
       0.049239              0.0987426496              0.0048552115           
       0.049918              0.0892038285             0.00470495627           
       0.050598              0.0864082138              0.0045611693           
       0.051277              0.0909072114             0.00466355987           
       0.051956              0.0845242574             0.00446861828           
       0.052635              0.0853088459             0.00439403764           
       0.053314              0.0805341684             0.00439412317           
       0.053993              0.0711737965              0.0040175782           
       0.054673              0.0691112376             0.00387074975           
       0.055352              0.0774214066             0.00415703846           
       0.056031              0.0732568138             0.00395872341           
       0.056710              0.0785123865             0.00419869465           
       0.057389              0.0690345078             0.00379660536           
       0.058068              0.0698652019             0.00385875083           
       0.058748              0.0734764261             0.00400658371           
       0.059427              0.0658112656             0.00372764355           
       0.060106              0.0679880334             0.00382464918           
       0.060785               0.060409299             0.00349716287           
       0.061464              0.0625608645             0.00364467887           
       0.062143              0.0615428412             0.00357818223           
       0.062822              0.0573104255             0.00341243206           
       0.063502              0.0567292677             0.00338902033           
       0.064181              0.0513507086             0.00319031355           
       0.064860              0.0488412116             0.00315877175           
       0.065539                0.05127028             0.00320472113           
       0.066218              0.0478930172              0.0030310526           
       0.066897              0.0556931733             0.00329380653           
       0.067577              0.0497844567              0.0031441006           
       0.068256              0.0475780787             0.00314914255           
       0.068935              0.0468315933             0.00307382151           
       0.069614              0.0475549844             0.00312830537           
       0.070293              0.0461409458             0.00310985891           
       0.070972              0.0467300154             0.00310673251           
       0.071652              0.0431649356             0.00299135056           
       0.072331              0.0429617176             0.00293111343           
       0.073010              0.0418360903             0.00295854978           
       0.073689              0.0383449364             0.00281685347           
       0.074368               0.050539627             0.00322801617           
       0.075047              0.0420391304              0.0029124152           
       0.075727              0.0448520425             0.00298969465           
       0.076406              0.0402734551             0.00288951555           
       0.077085              0.0421086005              0.0028993979           
       0.077764              0.0436576886              0.0029419029           
       0.078443              0.0437532693             0.00296335589           
       0.079122              0.0384766553             0.00275223128           
       0.079802              0.0388107303             0.00279346993           
       0.080481              0.0336204443             0.00251227691           
       0.081160               0.035863915             0.00264798898           
       0.081839              0.0397445741             0.00274294508           
       0.082518              0.0355091486             0.00259485996           
       0.083197              0.0386198454               0.002664085           
       0.083876              0.0368276375             0.00255830688           
       0.084556               0.034612883             0.00254916477           
       0.085235              0.0336032427             0.00246318342           
       0.085914              0.0365300511             0.00259316277           
       0.086593              0.0360015024             0.00255776577           
       0.087272              0.0333677572             0.00242762331           
       0.087951              0.0351278928             0.00254709383           
       0.088631              0.0359883405             0.00249028886           
       0.089310              0.0364651958             0.00255989937           
       0.089989              0.0331756085             0.00241315869           
       0.090668              0.0315672975             0.00237992188           
       0.091347               0.034301315             0.00249473345           
       0.092026              0.0324857319              0.0023205958           
       0.092706              0.0323693477             0.00240051511           
       0.093385               0.035474713             0.00247443483           
       0.094064              0.0311494766             0.00234567225           
       0.094743              0.0303705119              0.0022808609           
       0.095422              0.0311198892             0.00228308302           
       0.096101               0.032102189             0.00236659296           
       0.096781              0.0247670687             0.00204894459           
       0.097460              0.0255571478             0.00202459222           
       0.098139              0.0320780873             0.00225076932           
       0.098818               0.029903148             0.00214636577           
       0.099497              0.0288298412             0.00211182129           
       0.100176              0.0303958373             0.00211150758           
       0.100856              0.0264378045             0.00196797646           
       0.101535              0.0289682947             0.00205603387           
       0.102214               0.028986099             0.00205667834           
       0.102893              0.0288462957             0.00202833575           
       0.103572              0.0273112772              0.0019444742           
       0.104251              0.0273947017             0.00195463601           
       0.104931              0.0293033902             0.00200317825           
       0.105610              0.0275412958             0.00195030021           
       0.106289               0.029380706             0.00198085289           
       0.106968              0.0248957311             0.00182881819           
       0.107647              0.0251878061             0.00184061874           
       0.108326              0.0236011752              0.0017578683           
       0.109005              0.0224197902             0.00170252776           
       0.109685              0.0276786454             0.00187047473           
       0.110364               0.026035035               0.001834693           
       0.111043              0.0258036471             0.00181927978           
       0.111722              0.0261943788             0.00181059792           
       0.112401              0.0263005477             0.00181930867           
       0.113080              0.0272826491             0.00183173114           
       0.113760              0.0258056751             0.00181121519           
       0.114439              0.0211147912             0.00161496473           
       0.115118              0.0254315777             0.00175901362           
       0.115797              0.0270430898             0.00183069304           
       0.116476                0.02641872             0.00178235415           
       0.117155              0.0247227439             0.00173810157           
       0.117835              0.0246154746             0.00169984877           
       0.118514              0.0240931269             0.00170303969           
       0.119193              0.0213473667             0.00160307364           
       0.119872              0.0219724254             0.00160603362           
       0.120551              0.0217711138             0.00158801063           
       0.121230              0.0232820148             0.00162566397           
       0.121910              0.0239349477             0.00166423222           
       0.122589              0.0205242758             0.00154269083           
       0.123268              0.0231738618              0.0016074885           
       0.123947              0.0228069459             0.00160502548           
       0.124626              0.0236979537             0.00161607314           
       0.125305              0.0243555691             0.00164638246           
       0.125985              0.0221348729               0.001557353           
       0.126664              0.0250287079             0.00164025403           
       0.127343               0.022413428             0.00157018609           
       0.128022              0.0220554434             0.00154564945           
       0.128701               0.019828068             0.00145789104           
       0.129380               0.021193918             0.00148839022           
       0.130059              0.0227392575             0.00154527841           
       0.130739              0.0223242506             0.00154187949           
       0.131418              0.0192571376             0.00142803955           
       0.132097              0.0197864678             0.00142896877           
       0.132776              0.0212670678              0.0014747801           
       0.133455              0.0243852207             0.00159146784           
       0.134134              0.0198054981             0.00142969092           
       0.134814                0.02119304             0.00146368574           
       0.135493               0.020960028             0.00146150789           
       0.136172               0.019060504             0.00138318879           
       0.136851              0.0161324543             0.00127992048           
       0.137530              0.0221105494             0.00146281656           
       0.138209              0.0211869274             0.00144874929           
       0.138889              0.0228491475             0.00151113901           
       0.139568              0.0181567799             0.00134648368           
       0.140247              0.0189925418             0.00137531985           
       0.140926              0.0195790597             0.00135646737           
       0.141605              0.0202244507              0.0014136684           
       0.142284              0.0194477771             0.00136328706           
       0.142964               0.018267965             0.00132634142           
       0.143643              0.0190800452             0.00135378897           
       0.144322              0.0193888285             0.00133614283           
       0.145001              0.0185669184             0.00133435428           
       0.145680              0.0203423524             0.00136365212           
       0.146359              0.0200154745             0.00135759956           
       0.147039              0.0173915093             0.00127590469           
       0.147718              0.0183115179              0.0012876137           
       0.148397              0.0201365032             0.00137123598           
       0.149076              0.0181490384             0.00126142387           
       0.149755              0.0211199377             0.00138176783           
       0.150434              0.0209559279               0.001376954           
       0.151114              0.0229354227             0.00143255256           
       0.151793              0.0197435339             0.00132914897           
       0.152472              0.0205538705              0.0013321957           
       0.153151              0.0195831728             0.00131292912           
       0.153830              0.0194652021             0.00129943166           
       0.154509              0.0198311503             0.00130611716           
       0.155188              0.0178186768             0.00123761441           
       0.155868              0.0240062842             0.00142629243           
       0.156547              0.0173641922             0.00122082715           
       0.157226              0.0183851448              0.0012255225           
       0.157905              0.0185361831             0.00124088225           
       0.158584              0.0176411417             0.00120835362           
       0.159263               0.021115575              0.0013268664           
       0.159943              0.0188609315             0.00125496349           
       0.160622              0.0177648564             0.00119444782           
       0.161301              0.0182416939             0.00122656117           
       0.161980              0.0189715957             0.00122959415           
       0.162659              0.0185958466             0.00123084963           
       0.163338              0.0205846875             0.00128444318           
       0.164018              0.0178398281             0.00118946773           
       0.164697              0.0159550976             0.00113932612           
       0.165376              0.0180360199             0.00118488086           
       0.166055              0.0179689513             0.00119047554           
       0.166734              0.0162495438              0.0011270155           
       0.167413              0.0174290227             0.00116801866           
       0.168093              0.0181698433             0.00120386469           
       0.168772               0.018612047             0.00118279324           
       0.169451              0.0189161473             0.00121435533           
       0.170130              0.0182190963             0.00117612529           
       0.170809              0.0178842234             0.00117917264           
       0.171488              0.0193669919             0.00121589539           
       0.172168              0.0185554914             0.00117871561           
       0.172847              0.0161354465             0.00111360463           
       0.173526              0.0161752297             0.00109370672           
       0.174205              0.0170179677             0.00112700297           
       0.174884              0.0194926412             0.00119987894           
       0.175563              0.0163617872             0.00110399672           
       0.176243              0.0176066859             0.00115668713           
       0.176922               0.020498738             0.00121555016           
       0.177601              0.0188445148             0.00117828017           
       0.178280              0.0181301666             0.00114283054           
       0.178959              0.0169643036             0.00111436678           
       0.179638              0.0186679121              0.0011656162           
       0.180317               0.016252227              0.0010796643           
       0.180997              0.0191213629             0.00117745036           
       0.181676              0.0161524484             0.00107063179           
       0.182355              0.0154995749             0.00105507027           
       0.183034              0.0178947912             0.00111547075           
       0.183713              0.0152864727              0.0010435316           
       0.184392              0.0182050872             0.00113845783           
       0.185072              0.0182031485             0.00112542333           
       0.185751              0.0179514966             0.00112072614           
       0.186430              0.0156943325             0.00104056226           
       0.187109              0.0177430157             0.00111871707           
       0.187788              0.0167218799             0.00108337067           
       0.188467              0.0170183323             0.00107999782           
       0.189147              0.0178789686             0.00111817958           
       0.189826              0.0175073756             0.00108693153           
       0.190505              0.0170339897             0.00108978476           
       0.191184              0.0162697247             0.00104970659           
       0.191863               0.015663208             0.00103212462           
       0.192542               0.016256094             0.00106139293           
       0.193222              0.0163025543             0.00103908863           
       0.193901              0.0159945952             0.00104302286           
       0.194580              0.0163096789             0.00103482231           
       0.195259              0.0158728167             0.00103259365           
       0.195938              0.0160972466              0.0010423505           
       0.196617              0.0176059636             0.00107488753           
       0.197297              0.0155118276             0.00101305793           
       0.197976              0.0158519881             0.00100837475           
       0.198655              0.0187073407             0.00110739898           
       0.199334              0.0158593685             0.00101063454           
       0.200013              0.0160202095             0.00101518319           
       0.200692              0.0169344919             0.00105002794           
       0.201371              0.0143319047            0.000955097865           
       0.202051              0.0181481531             0.00107810383           
       0.202730              0.0161862767             0.00100799496           
       0.203409              0.0178246536             0.00106488088           
       0.204088              0.0171432524             0.00104317329           
       0.204767              0.0160847886             0.00100514546           
       0.205446              0.0151501625            0.000977412091           
       0.206126              0.0169437434             0.00101960724           
       0.206805              0.0166786828              0.0010301458           
       0.207484              0.0159513953            0.000989324064           
       0.208163              0.0158307686            0.000991498676           
       0.208842              0.0168673132             0.00102067067           
       0.209521              0.0150624846            0.000956503673           
       0.210201               0.015778897            0.000989911114           
       0.210880              0.0163042136            0.000986508665           
       0.211559              0.0158722697            0.000987744357           
       0.212238              0.0163740943            0.000998132346           
       0.212917              0.0147872368            0.000945010004           
       0.213596              0.0158199429            0.000983231345           
       0.214276              0.0154406673            0.000951136455           
       0.214955               0.016966991             0.00101800618           
       0.215634              0.0157070308            0.000972458953           
       0.216313              0.0151406593            0.000952760433           
       0.216992              0.0164544035            0.000992987118           
       0.217671              0.0151817665            0.000947353295           
       0.218351              0.0165091347            0.000997561775           
       0.219030              0.0151663008              0.0009410389           
       0.219709              0.0152327898            0.000948982224           
       0.220388              0.0152553311            0.000948464079           
       0.221067              0.0169281829            0.000999906556           
       0.221746              0.0160651996            0.000973088223           
       0.222426              0.0159893358            0.000956279603           
       0.223105              0.0162119598            0.000976032117           
       0.223784              0.0150768545            0.000931906561           
       0.224463              0.0142018898             0.00091166428           
       0.225142              0.0144269405            0.000904320603           
       0.225821              0.0154075048            0.000938312069           
       0.226500              0.0158847644            0.000958791537           
       0.227180              0.0139470807            0.000884570653           
       0.227859              0.0150205019            0.000922097933           
       0.228538              0.0165489364            0.000958157426           
       0.229217              0.0167666808            0.000972074393           
       0.229896              0.0158470852            0.000944586034           
       0.230575              0.0166954383            0.000954084883           
       0.231255                0.01518915            0.000923652888           
       0.231934              0.0139333571            0.000878602984           
       0.232613              0.0146550136            0.000904393109           
       0.233292              0.0150666589            0.000908146934           
       0.233971              0.0136382609            0.000863623434           
       0.234650              0.0161431565            0.000950643507           
       0.235330               0.015028908            0.000909239125           
       0.236009              0.0147425715            0.000898594763           
       0.236688              0.0161062108            0.000935873063           
       0.237367              0.0156498228            0.000923858137           
       0.238046              0.0145582933             0.00089733292           
       0.238725              0.0156568024            0.000916215136           
       0.239405              0.0134525489            0.000854541089           
       0.240084              0.0152765127            0.000904833171           
       0.240763              0.0150716424            0.000907351173           
       0.241442              0.0142948419            0.000871208017           
       0.242121              0.0144515391            0.000877623488           
       0.242800              0.0137218716            0.000859229241           
       0.243480              0.0142364288            0.000871093226           
       0.244159              0.0141757023            0.000869653981           
       0.244838              0.0141415976            0.000854314589           
       0.245517              0.0156589553            0.000911911346           
       0.246196              0.0135832731            0.000849733623           
       0.246875              0.0137015843             0.00084152963           
       0.247554              0.0139649285            0.000858212684           
       0.248234              0.0138493214            0.000841693783           
       0.248913               0.014169862            0.000860928519           
       0.249592              0.0137903039            0.000841249137           
       0.250271              0.0140237914             0.00084587762           
       0.250950              0.0146025085            0.000868441201           
       0.251629              0.0163831034            0.000912048126           
       0.252309              0.0139215765            0.000842450543           
       0.252988              0.0133236342            0.000809963522           
       0.253667              0.0132393195            0.000816830147           
       0.254346              0.0152941112            0.000877751678           
       0.255025              0.0142342588            0.000844937506           
       0.255704              0.0140371151            0.000835222943           
       0.256384              0.0128186971            0.000795390438           
       0.257063              0.0129611394            0.000804357456           
       0.257742              0.0134766955            0.000814515938           
       0.258421              0.0128224225            0.000792968904           
       0.259100              0.0141436648             0.00083427413           
       0.259779              0.0122573809            0.000775993947           
       0.260459               0.013092813            0.000803577927           
       0.261138              0.0139529129            0.000813341252           
       0.261817              0.0117651853            0.000761936952           
       0.262496              0.0134661022            0.000807161431           
       0.263175              0.0131423688             0.00079911279           
       0.263854              0.0124935222            0.000775516966           
       0.264534              0.0146319332            0.000832098168           
       0.265213              0.0138457558            0.000822190876           
       0.265892              0.0128283163            0.000781266351           
       0.266571              0.0133843773            0.000796204502           
       0.267250              0.0123614569            0.000766463289           
       0.267929              0.0128733869            0.000781371187           
       0.268609              0.0120994444            0.000761666934           
       0.269288              0.0111941796            0.000720449145           
       0.269967              0.0123863273            0.000766006848           
       0.270646              0.0127802184            0.000774727683           
       0.271325              0.0116150475            0.000739801446           
       0.272004              0.0127556554            0.000767547293           
       0.272683              0.0124211196            0.000758351261           
       0.273363              0.0111278582            0.000722365367           
       0.274042               0.011491188            0.000729732489           
       0.274721              0.0133808413            0.000786983032           
       0.275400              0.0110013345            0.000708861363           
       0.276079              0.0112024886            0.000719374307           
       0.276758              0.0116280309             0.00074215922           
       0.277438              0.0121828345            0.000751130801           
       0.278117              0.0110547247            0.000728520016           
       0.278796              0.0126103671            0.000770194883           
       0.279475               0.011978878            0.000763063239           
       0.280154              0.0104523681            0.000702534136           
       0.280833              0.0119563626            0.000755949345           
       0.281513              0.0121207368            0.000773069025           
       0.282192              0.0103454863            0.000702030658           
       0.282871               0.011096907            0.000732159665           
       0.283550               0.010415242             0.00071311679           
       0.284229               0.010865904            0.000739079527           
       0.284908              0.0116350713             0.00077285779           
       0.285588              0.0127705149            0.000800209377           
       0.286267             0.00991999068            0.000716562037           
       0.286946              0.0125419732            0.000800474735           
       0.287625              0.0108170716            0.000756052416           
       0.288304              0.0117203813            0.000776454168           
       0.288983              0.0104316008            0.000741797988           
       0.289663              0.0103431197            0.000742968493           
       0.290342              0.0119273459            0.000793594301           
       0.291021              0.0113122312             0.00077702366           
       0.291700              0.0114260025            0.000770719666           
       0.292379              0.0105665307             0.00075813578           
       0.293058              0.0103054083            0.000745881458           
       0.293738              0.0110368919            0.000765417264           
       0.294417              0.0110845477            0.000775983755           
       0.295096              0.0117505074            0.000790171175           
       0.295775              0.0107503074            0.000767336228           
       0.296454             0.00944177869            0.000709819909           
       0.297133              0.0109442654            0.000767828762           
       0.297812              0.0101220628            0.000742127181           
       0.298492              0.0102233642            0.000747272552           
       0.299171              0.0110581993            0.000775714481           
       0.299850              0.0102029248            0.000740024748           
       0.300529             0.00933550232            0.000715842528           
       0.301208              0.0116427688            0.000801368566           
       0.301887              0.0103662849            0.000755264981           
       0.302567              0.0094235924            0.000716498787           
       0.303246             0.00901060486              0.0007051969           
       0.303925             0.00908679568            0.000717264845           
       0.304604              0.0101460829            0.000741554337           
       0.305283             0.00984617241            0.000741346592           
       0.305962             0.00955284225            0.000725808893           
       0.306642             0.00897793505            0.000713186097           
       0.307321              0.0104296294            0.000766231622           
       0.308000             0.00935351975            0.000717025522           
       0.308679             0.00834907313            0.000692103003           
       0.309358             0.00806218811            0.000670908387           
       0.310037              0.0084466726            0.000688249881           
       0.310717             0.00763867931            0.000653874516           
       0.311396             0.00954663388            0.000735890746           
       0.312075             0.00811243813            0.000686968205           
       0.312754              0.0091143425            0.000713587495           
       0.313433             0.00889876843            0.000711230336           
       0.314112             0.00876833625            0.000705836669           
       0.314792             0.00837919045            0.000694868682           
       0.315471             0.00923378666            0.000720422703           
       0.316150             0.00967165249            0.000744129772           
       0.316829             0.00856046812            0.000704702091           
       0.317508             0.00860371357            0.000698552282           
       0.318187             0.00916239321            0.000730385262           
       0.318866             0.00828701089            0.000685261466           
       0.319546             0.00774382153            0.000672351945           
       0.320225              0.0081609366            0.000690235815           
       0.320904             0.00976070776            0.000743191261           
       0.321583             0.00803195988            0.000689027163           
       0.322262              0.0087357273            0.000707689217           
       0.322941             0.00857215587            0.000710013755           
       0.323621             0.00781435784            0.000673767198           
       0.324300             0.00881691868            0.000716245474           
       0.324979             0.00848988682            0.000704107333           
       0.325658              0.0083675593            0.000700284454           
       0.326337             0.00749194028            0.000663496659           
       0.327016             0.00816311213            0.000688182306           
       0.327696             0.00933838212            0.000744243243           
       0.328375             0.00778839783            0.000673942518           
       0.329054             0.00758559681            0.000668717662           
       0.329733             0.00871664479            0.000719458469           
       0.330412             0.00721114947            0.000649023216           
       0.331091             0.00749519567            0.000673684786           
       0.331771             0.00679764043            0.000624759192           
       0.332450             0.00744512634            0.000666531541           
       0.333129             0.00799902228            0.000689098059           
       0.333808             0.00765562624            0.000675035424           
       0.334487             0.00564134645            0.000582212937           
       0.335166             0.00714677933            0.000645717647           
       0.335846             0.00699154091            0.000649889589           
       0.336525             0.00814368203            0.000694471475           
       0.337204             0.00730452161            0.000659442555           
       0.337883             0.00787713044            0.000685709859           
       0.338562             0.00694214066            0.000647301271           
       0.339241             0.00684523838            0.000643972144           
       0.339921             0.00700389657            0.000640468565           
       0.340600             0.00698826561            0.000651902703           
       0.341279             0.00641065735            0.000617694482           
       0.341958             0.00705256265              0.0006570225           
       0.342637             0.00658432601            0.000625868841           
       0.343316              0.0065690816            0.000626953837           
       0.343995             0.00705092256            0.000660176136           
       0.344675             0.00624175516            0.000609725864           
       0.345354             0.00757988927            0.000676344534           
       0.346033             0.00653632125            0.000626425835           
       0.346712             0.00620907973            0.000614439223           
       0.347391             0.00609302839            0.000612438781           
       0.348070             0.00793732391            0.000689082627           
       0.348750             0.00577460799            0.000596246619           
       0.349429             0.00742594824            0.000667417314           
       0.350108              0.0070082288            0.000656176265           
       0.350787             0.00691240156            0.000640603494           
       0.351466             0.00553503983            0.000583798035           
       0.352145             0.00703244429            0.000658590776           
       0.352825             0.00567512067            0.000588949997           
       0.353504             0.00671624835            0.000640542171           
       0.354183             0.00701572051            0.000647124577           
       0.354862             0.00569283847            0.000596475436           
       0.355541             0.00571216165            0.000589661913           
       0.356220             0.00511858734            0.000559239008           
       0.356900              0.0052908907            0.000573974288           
       0.357579             0.00612793656            0.000610136463           
       0.358258             0.00549732807             0.00058588781           
       0.358937             0.00544528679            0.000572145369           
       0.359616             0.00439738773            0.000521334003           
       0.360295              0.0050742624            0.000560488595           
       0.360975             0.00589256203            0.000601410552           
       0.361654             0.00502191216             0.00055806755           
       0.362333             0.00599346729            0.000606565025           
       0.363012             0.00591867018             0.00061052365           
       0.363691             0.00554980179            0.000579529133           
       0.364370             0.00607865429            0.000614037331           
       0.365050               0.004904395            0.000548597229           
       0.365729              0.0054327179            0.000582895705           
       0.366408             0.00540213614            0.000582539786           
       0.367087             0.00509771827            0.000556812182           
       0.367766             0.00481708256            0.000552546437           
       0.368445             0.00543748535            0.000576628101           
       0.369124             0.00503000434             0.00055895815           
       0.369804             0.00667674788            0.000642957295           
       0.370483             0.00456425299            0.000533925375           
       0.371162             0.00347585193            0.000468637434           
       0.371841              0.0059705488            0.000603496174           
       0.372520             0.00433290689            0.000524416373           
       0.373199             0.00513771746            0.000564224258           
       0.373879             0.00468880466              0.0005452517           
       0.374558             0.00467289066            0.000536382625           
       0.375237             0.00469310437            0.000538422676           
       0.375916             0.00495331369            0.000563744603           
       0.376595             0.00400699578            0.000497132088           
       0.377274              0.0054806642            0.000590711782           
       0.377954             0.00493556102            0.000551760753           
       0.378633             0.00557148964            0.000593638569           
       0.379312             0.00443041607              0.0005292356           
       0.379991             0.00395034412            0.000497153609           
       0.380670             0.00519360653             0.00058011841           
       0.381349             0.00473338816            0.000545867503           
       0.382029              0.0042220796            0.000522929225           
       0.382708              0.0040923063            0.000503587384           
       0.383387              0.0044260963            0.000535591216           
       0.384066             0.00420038052            0.000516968533           
       0.384745             0.00450297851            0.000537370259           
       0.385424             0.00478980178            0.000556102705           
       0.386104             0.00474248721            0.000547234179           
       0.386783               0.004771962            0.000560805423           
       0.387462              0.0043895737            0.000524486524           
       0.388141             0.00389622797            0.000502026852           
       0.388820              0.0041389791            0.000513689398           
       0.389499             0.00619664436            0.000632077431           
       0.390178             0.00437339505            0.000533122942           
       0.390858             0.00403050345            0.000507655616           
       0.391537             0.00398780522            0.000510115754           
       0.392216             0.00401405387            0.000505376956           
       0.392895             0.00442172218            0.000532206523           
       0.393574             0.00421402689            0.000518269045           
       0.394253              0.0036773276            0.000486320046           
       0.394933             0.00423583843            0.000527910558           
       0.395612             0.00372152387            0.000480450966           
       0.396291             0.00498248241            0.000567236828           
       0.396970             0.00349629756            0.000470956467           
       0.397649             0.00383781316            0.000494941148           
       0.398328             0.00500624604            0.000562800637           
       0.399008             0.00441762722            0.000527531196           
       0.399687             0.00305744102            0.000440573468           
       0.400366             0.00434774193            0.000523367683           
       0.401045             0.00440365521            0.000525726387           
       0.401724             0.00346862476            0.000467364906           
       0.402403             0.00403931997            0.000508280404           
       0.403083             0.00404256887             0.00050115261           
       0.403762             0.00451773134            0.000532399692           
       0.404441             0.00407739808            0.000509010119           
       0.405120             0.00328346248            0.000455275611           
       0.405799             0.00469523378            0.000542058486           
       0.406478             0.00419296122            0.000512258139           
       0.407158             0.00423519202            0.000513865147           
       0.407837             0.00481195307            0.000552573088           
       0.408516               0.003711184            0.000481050467           
       0.409195             0.00406101394             0.00050892117           
       0.409874             0.00393857883            0.000508163931           
       0.410553              0.0038767614            0.000509582524           
       0.411233             0.00305626694            0.000450110822           
       0.411912             0.00397943839             0.00052088889           
       0.412591              0.0029992913            0.000455206381           
       0.413270             0.00324663152            0.000471354174           
       0.413949             0.00338584695            0.000486611295           
       0.414628             0.00316376875            0.000469537666           
       0.415307             0.00339537812             0.00049183152           
       0.415987             0.00270325772             0.00043523354           
       0.416666             0.00349445875            0.000491867057           
       0.417345             0.00297457673            0.000461384361           
       0.418024             0.00233885202            0.000409131311           
       0.418703             0.00253059313            0.000424789649           
       0.419382             0.00236543139            0.000408681051           
       0.420062             0.00287284856            0.000451648722           
       0.420741             0.00305275073            0.000468051419           
       0.421420             0.00293949104            0.000461028647           
       0.422099             0.00345144944             0.00049957867           
       0.422778             0.00238578354            0.000417603512           
       0.423457             0.00360595109            0.000516545574           
       0.424137             0.00405217892            0.000538650635           
       0.424816             0.00245203344            0.000427768655           
       0.425495             0.00334141568            0.000498884457           
       0.426174             0.00281103171             0.00045774081           
       0.426853             0.00226424696            0.000408321829           
       0.427532             0.00193447735            0.000380608887           
       0.428212             0.00272537099              0.0004547444           
       0.428891             0.00217272902            0.000405105743           
       0.429570             0.00324387698            0.000495330019           
       0.430249             0.00268442993             0.00044825773           
       0.430928             0.00305196182             0.00048841144           
       0.431607             0.00262999145            0.000445601234           
       0.432287             0.00190946973            0.000382467713           
       0.432966             0.00194873595            0.000389778833           
       0.433645             0.00242061773            0.000434868697           
       0.434324             0.00239243271            0.000429723488           
       0.435003             0.00224609202             0.00041708457           
       0.435682             0.00228865478            0.000424470862           
       0.436361             0.00197250584            0.000393536717           
       0.437041             0.00242458233            0.000435727137           
       0.437720             0.00189710998            0.000387286298           
       0.438399             0.00209128213            0.000408745114           
       0.439078             0.00248132073            0.000458144291           
       0.439757             0.00168774135            0.000375517384           
       0.440436             0.00205264038            0.000423459996           
       0.441116             0.00328420376            0.000544396266           
       0.441795             0.00248833771            0.000474436041           
       0.442474             0.00231309017            0.000458699863           
       0.443153             0.00264692849            0.000502133245           
       0.443832             0.00311222312            0.000545399399           
       0.444511             0.00148820399             0.00037544753           
       0.445191              0.0020819454            0.000454872517           
       0.445870             0.00197415818            0.000442953221           
       0.446549             0.00222133728            0.000474820912           
       0.447228             0.00199975375            0.000447970957           
       0.447907             0.00144000082            0.000384700898           
       0.448586             0.00345135789            0.000609905687           
       0.449266             0.00137705536             0.00038170703           
       0.449945             0.00219814065               0.000480294           
       0.450624             0.00329720399            0.000597578416           
       0.451303              0.0021332217            0.000486892928           
       0.451982             0.00254704837             0.00052873854           
       0.452661             0.00308678765             0.00059291474           
       0.453341             0.00312384226            0.000598553141           
       0.454020            0.000950840029            0.000330729711           
       0.454699             0.00375560328            0.000663296719           
       0.455378             0.00249374693            0.000540788173           
       0.456057             0.00211763399             0.00050720355           
       0.456736             0.00270725085            0.000571695396           
       0.457416             0.00185290529            0.000472976308           
       0.458095             0.00179675896            0.000472495595           
       0.458774             0.00121723833             0.00039404207           
       0.459453             0.00264294096            0.000583557113           
       0.460132             0.00116648518            0.000379312747           
       0.460811             0.00233598869            0.000556803026           
       0.461490             0.00176734436            0.000479388064           
       0.462170             0.00155950855            0.000457346657           
       0.462849             0.00186628235            0.000503556263           
       0.463528             0.00144854083            0.000442605109           
       0.464207             0.00221144084            0.000557108468           
       0.464886             0.00133552445            0.000429569151           
       0.465565              0.0013676857            0.000439486039           
       0.466245             0.00193934807            0.000524959003           
       0.466924             0.00131293357            0.000442138601           
       0.467603              0.0019646855            0.000529386337           
       0.468282             0.00192618836            0.000536603935           
       0.468961             0.00164401663            0.000499000813           
       0.469640             0.00225303625            0.000586490979           
       0.470320             0.00153340813            0.000484179275           
       0.470999            0.000934260665            0.000381494594           
       0.471678             0.00190538468            0.000550047533           
       0.472357             0.00145232543            0.000481561319           
       0.473036             0.00257675313            0.000645488823           
       0.473715            0.000835854468            0.000370511639           
       0.474395            0.000702981674             0.00034448533           
       0.475074            0.000703574439            0.000344640575           
       0.475753             0.00116919081            0.000440443698           
       0.476432            0.000931505699            0.000407446287           
       0.477111            0.000378234462             0.00025649227           
       0.477790             0.00161891494            0.000533482278           
       0.478470             0.00146949803            0.000514989168           
       0.479149             0.00078624642            0.000380593947           
       0.479828            0.000421761037             0.00027809437           
       0.480507            0.000579081857            0.000328485573           
       0.481186            0.000658925139            0.000358299053           
       0.481865            0.000263094108            0.000223599908           
       0.482545             0.00161972563            0.000561317276           
       0.483224             0.00047267406            0.000305299447           
       0.483903             0.00129504343            0.000513304255           
       0.484582            0.000516805026            0.000329535107           
       0.485261            0.000280916415            0.000236800136           
       0.485940            0.000116622311            0.000158730267           
       0.486619             0.00030747961            0.000254902005           
       0.487299            0.000129838609            0.000168281291           
       0.487978            0.000761370037            0.000403352122           
       0.488657           -0.000308818061                         0           
       0.489336           -8.51569445e-05                         0           
       0.490015            0.000139542936            0.000178040787           
       0.490694            0.000141512643            0.000184251795           
       0.491374           -0.000308892847                         0           
       0.492053           -5.96798107e-05                         0           
       0.492732           -0.000308930339                         0           
       0.493411           -6.50584495e-05                         0           
       0.494090           -5.57371278e-05                         0           
       0.494769            -0.00030898699                         0           
       0.495449           -0.000309005932                         0           
       0.496128           -4.85604191e-05                         0           
       0.496807           -0.000309043725                         0           
       0.497486           -0.000309062691                         0           
       0.498165           -3.48353608e-05                         0           
       0.498844            0.000509399603            0.000374183956           
       0.499524           -0.000309119916                         0           
       0.500203           -0.000309139256                         0           
       0.500882           -1.93599801e-05                         0           
       0.501561           -0.000309177234                         0           
       0.502240           -0.000309196507                         0           
       0.502919           -9.48300573e-06                         0           
       0.503599           -0.000309234958                         0           
       0.504278            0.000295804878            0.000300996583           
       0.504957           -0.000309273798                         0           
       0.505636            -0.00030929298                         0           
       0.506315            1.13019823e-05            5.98792551e-05           
       0.506994            0.000353341915            0.000340462418           
       0.507673            2.15582329e-05            8.50686222e-05           
       0.508353            9.96739565e-06            5.65487893e-05           
       0.509032           -0.000309389679                         0           
       0.509711           -0.000309409116                         0           
       0.510390           -0.000309428858                         0           
       0.511069           -0.000309448536                         0           
       0.511748           -0.000309468134                         0           
       0.512428           -0.000309487872                         0           
       0.513107           -0.000309507306                         0           
       0.513786            8.29367385e-05            0.000179581363           
       0.514465           -0.000309546629                         0           
       0.515144           -0.000309566443                         0           
       0.515823            7.83969308e-05            0.000174030915           
       0.516503            9.70314989e-05            0.000198648523           
       0.517182            9.81742188e-05            0.000200526054           
       0.517861            0.000531635613            0.000468309572           
       0.518540            9.66790007e-05            0.000204881879           
       0.519219           -0.000309685122                         0           
       0.519898           -0.000309705086                         0           
       0.520578            -0.00030972517                         0           
       0.521257            0.000173316265            0.000287584492           
       0.521936            0.000134394822             0.00024436212           
       0.522615           -0.000309784977                         0           
       0.523294           -0.000309805162                         0           
       0.523973           -0.000309825067                         0           
       0.524653            -0.00030984483                         0           
       0.525332            -0.00030986488                         0           
       0.526011           -0.000309885291                         0           
       0.526690            0.000163477697            0.000278232437           
       0.527369           -0.000309925866                         0           
       0.528048           -0.000309946213                         0           
       0.528728             0.00019116513            0.000312604773           
       0.529407           -0.000309986766                         0           
       0.530086           -0.000310006891                         0           
       0.530765           -0.000310027045                         0           
       0.531444            0.000189126791            0.000308270087           
       0.532123           -0.000310068147                         0           
       0.532802           -0.000310088709                         0           
       0.533482           -0.000310109201                         0           
       0.534161           -0.000310129726                         0           
       0.534840           -0.000310150075                         0           
       0.535519             0.00026553273            0.000387819236           
       0.536198           -0.000310191312                         0           
       0.536877           -0.000310211541                         0           
       0.537557           -0.000310232117                         0           
       0.538236           -0.000310252879                         0           
       0.538915            0.000274792837            0.000399490938           
       0.539594            0.000945934848            0.000772779215           
       0.540273            0.000300317145            0.000424070108           
       0.540952           -0.000310336227                         0           
       0.541632           -0.000310356662                         0           
       0.542311           -0.000310377285                         0           
       0.542990             0.00038300275            0.000516236913           
       0.543669           -0.000310419167                         0           
       0.544348           -0.000310440171                         0           
       0.545027            0.000986377452            0.000800286441           
       0.545707            -0.00031048215                         0           
       0.546386            -0.00031050323                         0           
       0.547065            0.000404662504            0.000538869237           
       0.547744            0.000437411736            0.000570941962           
       0.548423           -0.000310566132                         0           
       0.549102           -0.000310587306                         0           
       0.549782           -0.000310608373                         0           
       0.550461           -0.000310629691                         0           
       0.551140           -0.000310651136                         0           
       0.551819           -0.000310672329                         0           
       0.552498           -0.000310693702                         0           
       0.553177            0.000503110224            0.000641970536           
       0.553856           -0.000310735791                         0           
       0.554536             0.00130238872             0.00101871123           
       0.555215           -0.000310778416                         0           
       0.555894           -0.000310799839                         0           
       0.556573           -0.000310821389                         0           
       0.557252           -0.000310842922                         0           
       0.557931            0.000627878591            0.000764566184           
       0.558611             0.00152269905             0.00118595809           
       0.559290           -0.000310907671                         0           
       0.559969           -0.000310928523                         0           
       0.560648           -0.000310949928                         0           
       0.561327            -0.00031097181                         0           
       0.562006             0.00055693145            0.000714531733           
       0.562686           -0.000311015384                         0           
       0.563365           -0.000311037257                         0           
       0.564044            -0.00031105902                         0           
       0.564723           -0.000311080735                         0           
       0.565402           -0.000311102045                         0           
       0.566081             0.00221930775              0.0016671723           
       0.566761           -0.000311145179                         0           
       0.567440           -0.000311167303                         0           
       0.568119           -0.000311189252                         0           
       0.568798           -0.000311211509                         0           
       0.569477           -0.000311233623                         0           
       0.570156           -0.000311255844                         0           
       0.570836           -0.000311277982                         0           
       0.571515             0.00112317347             0.00127912955           
       0.572194            -0.00031132195                         0           
       0.572873           -0.000311343738                         0           
       0.573552           -0.000311365398                         0           
       0.574231           -0.000311387497                         0           
       0.574911           -0.000311410153                         0           
       0.575590           -0.000311432373                         0           
       0.576269           -0.000311454525                         0           
       0.576948           -0.000311477103                         0           
       0.577627           -0.000311498992                         0           
       0.578306            -0.00031152119                         0           
       0.578985           -0.000311543577                         0           
       0.579665           -0.000311565836                         0           
       0.580344           -0.000311588432                         0           
       0.581023           -0.000311611002                         0           
       0.581702           -0.000311633365                         0           
       0.582381           -0.000311655524                         0           
       0.583060           -0.000311678344                         0           
       0.583740             0.00238284178              0.0025428991           
       0.584419           -0.000311723342                         0           
       0.585098           -0.000311745852                         0           
       0.585777           -0.000311768537                         0           
       0.586456           -0.000311791591                         0           
       0.587135           -0.000311814032                         0           
       0.587815            -0.00031183623                         0           
       0.588494           -0.000311859121                         0           
       0.589173           -0.000311882537                         0           
       0.589852           -0.000311904709                         0           
       0.590531           -0.000311927717                         0           
       0.591210           -0.000311950193                         0           
       0.591890           -0.000311973104                         0           
       0.592569           -0.000311995249                         0           
       0.593248           -0.000312019459                         0           
       0.593927           -0.000312042478                         0           
       0.594606            -0.00031206597                         0           
       0.595285           -0.000312088062                         0           
       0.595965           -0.000312108678                         0           
       0.596644           -0.000312129892                         0           
