################################################################################
# EDF_DataBlockID                     0.Image.Psd
# EDF_BinarySize                      2105344
# EDF_HeaderSize                      2560
# ByteOrder                           LowByteFirst
# DataType                            FloatValue
# Dim_1                               512
# Dim_2                               1028
# Image                               0
# HeaderID                            EH:000000:000000:000000
# Size                                2105344
# Center_1                            304.9000
# Center_2                            588.7000
# Comment                             Xenocs_Cell_Window - 20251028_20perc_iodine_1.23mg
# DDummy                              0.6
# Date                                2025-11-02T04:10:14
# Delta                               21.910000
# Dummy                               -1.5
# ExposureTime                        360
# Gamma                               15.360000
# Intensity1                          8.70605e-10
# PSize_1                             7.5e-05
# PSize_2                             7.5e-05
# Pressure                            0.0326653
# SampleDistance                      0.115750
# SampleEnvKind                       large
# SampleEnvPN                         ElectroChemical cell
# SampleEnvSN                         1141
# Thickness                           0
# Wavelength                          1.541891e-10
# Wavelength                          1.54189e-10
# aux                                 0
# aux_dial                            0.002375
# beamx                               588.434
# beamx_dial                          588.434
# beamz                               657.808
# beamz_dial                          657.808
# det0x                               0
# det0x_dial                          6.36945
# det0xvd                             0
# det0xvd_dial                        0
# det0y                               450.002
# det0y_dial                          481.635
# det0z                               0
# det0z_dial                          1.23302
# det0zvd                             0
# det0zvd_dial                        0
# mag                                 1.818
# mag_dial                            1.818
# om                                  0.2499
# om_dial                             -0.610199
# phi                                 -0.0120535
# phi_dial                            0
# ry                                  0.599993
# ry_dial                             0.599993
# s1bot                               0.8
# s1bot_dial                          -1.66094
# s1hl                                0.8
# s1hl_dial                           -0.608437
# s1hr                                0.8
# s1hr_dial                           0.970938
# s1top                               0.8
# s1top_dial                          -0.461562
# s2bot                               0.45
# s2bot_dial                          1.36109
# s2hl                                0.45
# s2hl_dial                           -0.83375
# s2hr                                0.45
# s2hr_dial                           -0.118594
# s2top                               0.45
# s2top_dial                          1.44734
# w2theta                             32
# w2theta_dial                        32
# waxsch                              19.2605
# waxsch_dial                         -32.7355
# waxsh                               137.085
# waxsh_dial                          -43.5338
# waxsth                              26.0607
# waxsth_dial                         -19.4086
# waxsz                               67.0407
# waxsz_dial                          -23.7954
# wind                                65.9854
# wind_dial                           66.0041
# wpsi                                124
# wpsi_dial                           124
# wstod                               115
# wstod_dial                          115
# x                                   0
# x_dial                              1.00969
# z                                   0
# z_dial                              13.3172
# CountCutoff                         6807993
# DetectorModel                       Dectris EIGER2 Si 500K, S/N E-01-0554
# ThresholdSetting                    4023.88989258
# Saturation                          0
# FlatField                           Corrected
# BackgroundReductionExtra            0.02
# BackgroundCorrectionConstant        0.0026712
# Detector                            0
# Monitor                             0
# Pil_Roi0                            0
# SumForIntensity1                    3.13418e+08
# TransmittedFlux                     870605
# det                                 0
# mon                                 0
# pilai0                              3.13418e+08
# pilai1                              789589
# pilct0                              5.42308e+08
# pilct1                              789589
# pilroi0                             0
# pilroi1                             0
# sec                                 1
# title                               20251028_20perc_iodine_1.23mg_1_00998.edf
# usaxs0                              0
# Operation                           Azimuthal average I(q)
# Error_model                         ErrorModel.poisson
# Geometrical_correction              True
# Transmission_correction             True
# Thickness_correction                False
# Binning mode                        Uniform
# Binning factor                      1.0
# Psi                                 0.0
# Omega                               0.2499
# MaskInvalidPixels                   True
# DetectorEdge                        3
# MaskFiles                           ['WAXS_corrected.edf']
################################################################################
    q(A⁻¹)                Intensity(a.u.)            Sigma_I(a.u.)            
       0.693100           -2.33207973e-05                         0           
       0.695741             0.00828305786             0.00490689265           
       0.698381             0.00831562567             0.00602242682           
       0.701021           -2.32840713e-05                         0           
       0.703662           -2.32733608e-05                         0           
       0.706302             0.00835332025             0.00381331282           
       0.708942             0.00281923787             0.00285930039           
       0.711583             0.00867777082             0.00434393987           
       0.714223             0.00287687139             0.00288761879           
       0.716864             0.00855338448             0.00325776248           
       0.719504             0.00870684748             0.00354689837           
       0.722144             0.00244694833             0.00174131561           
       0.724785             0.00941206371             0.00272419961           
       0.727425              0.0100959678             0.00381689773           
       0.730065              0.0107267423             0.00278299026           
       0.732706             0.00805156082             0.00202472733           
       0.735346             0.00769479885             0.00258017554           
       0.737987             0.00770286003             0.00182420521           
       0.740627             0.00478341498               0.002144881           
       0.743267             0.00988984941             0.00206571866           
       0.745908             0.00509085951             0.00160797989           
       0.748548             0.00818022249             0.00187880647           
       0.751189             0.00550643233             0.00207707018           
       0.753829             0.00928729178             0.00247962307           
       0.756469             0.00690505315             0.00172408226           
       0.759110             0.00861595968             0.00202953636           
       0.761750             0.00820347773             0.00175107469           
       0.764390             0.00724764168             0.00172269936           
       0.767031             0.00734214979             0.00150148818           
       0.769671             0.00667958178             0.00178648582           
       0.772312             0.00853464143             0.00153733646           
       0.774952             0.00803628589              0.0020144834           
       0.777592             0.00854519595             0.00151305323           
       0.780233             0.00657194749             0.00160089928           
       0.782873             0.00750699826             0.00163641237           
       0.785513             0.00651650556             0.00162993677           
       0.788154             0.00709395213             0.00142262805           
       0.790794              0.0101765303             0.00203707089           
       0.793435              0.0105291577             0.00186145829           
       0.796075             0.00545872342             0.00129112474           
       0.798715             0.00593898614             0.00159144472           
       0.801356             0.00691469448             0.00147794344           
       0.803996             0.00816529518             0.00163738187           
       0.806637             0.00850847667             0.00133015472           
       0.809277             0.00633841068             0.00124264699           
       0.811917             0.00617847896             0.00114692764           
       0.814558             0.00780454281             0.00133973476           
       0.817198             0.00704728158             0.00120948627           
       0.819838             0.00616872087             0.00114524895           
       0.822479              0.0096963836             0.00168607286           
       0.825119             0.00870090925             0.00135940069           
       0.827760             0.00715656636             0.00124885022           
       0.830400             0.00556547613             0.00103653595           
       0.833040             0.00485598423             0.00101439126           
       0.835681              0.0101209694             0.00166484196           
       0.838321             0.00597273827             0.00107345147           
       0.840961             0.00526335885             0.00109792622           
       0.843602              0.0055409495             0.00103305261           
       0.846242             0.00823633003             0.00125930937           
       0.848883             0.00825452242             0.00129014438           
       0.851523             0.00766579571             0.00122784185           
       0.854163             0.00712668888             0.00125900334           
       0.856804             0.00663227905             0.00109204444           
       0.859444             0.00723168769             0.00111729844           
       0.862085             0.00673041254             0.00112342022           
       0.864725             0.00786110825             0.00124253129           
       0.867365             0.00608222401             0.00101347386           
       0.870006             0.00763600172             0.00108211206           
       0.872646             0.00672645493             0.00106502083           
       0.875286             0.00778396652             0.00110222046           
       0.877927             0.00811274531             0.00108582101           
       0.880567             0.00607595121            0.000973530877           
       0.883208             0.00821584477             0.00112139307           
       0.885848              0.0071973729             0.00108978792           
       0.888488             0.00652582967             0.00097330088           
       0.891129             0.00870345033             0.00115413646           
       0.893769             0.00907750463             0.00112802419           
       0.896410             0.00740005644            0.000949580645           
       0.899050             0.00603599593            0.000943135606           
       0.901690             0.00698998799             0.00110555825           
       0.904331             0.00811463247             0.00105604775           
       0.906971             0.00841018617              0.0011437374           
       0.909611             0.00709275914            0.000956148258           
       0.912252             0.00920416953             0.00112503518           
       0.914892             0.00755627539             0.00111394344           
       0.917533             0.00776255114             0.00106807302           
       0.920173             0.00797113637             0.00100418744           
       0.922813             0.00707960203            0.000993104416           
       0.925454             0.00936766151             0.00102867104           
       0.928094             0.00537231977             0.00083165659           
       0.930734              0.0096883156             0.00120239148           
       0.933375             0.00788252127             0.00107389994           
       0.936015              0.0075871328            0.000956881627           
       0.938656             0.00779008838              0.0010401468           
       0.941296             0.00786273062            0.000947044352           
       0.943936             0.00767033656            0.000917290886           
       0.946577             0.00798937685            0.000929984258           
       0.949217             0.00895919212            0.000905624445           
       0.951858             0.00779325302            0.000884172472           
       0.954498             0.00913898005             0.00110825791           
       0.957138             0.00675185115            0.000902443216           
       0.959779             0.00785253278            0.000959399991           
       0.962419             0.00738885712            0.000924453416           
       0.965059             0.00767552669            0.000990964738           
       0.967700             0.00654684745            0.000937355492           
       0.970340             0.00870947011            0.000956706635           
       0.972981              0.0090581102            0.000888926463           
       0.975621             0.00742114219            0.000855960455           
       0.978261             0.00748388535            0.000816743858           
       0.980902             0.00877008145             0.00105783693           
       0.983542             0.00769504032            0.000877491439           
       0.986182              0.0074437824            0.000847333903           
       0.988823             0.00783425128            0.000844066186           
       0.991463             0.00869702773            0.000948822843           
       0.994104             0.00825910356            0.000901987023           
       0.996744             0.00871867842            0.000945270121           
       0.999384             0.00795450991             0.00080749029           
       1.002025             0.00961661424            0.000990962673           
       1.004665             0.00795807838            0.000823830196           
       1.007306             0.00811249668            0.000827527049           
       1.009946             0.00809086124             0.00084283567           
       1.012586              0.0079126091            0.000811779507           
       1.015227             0.00692644514            0.000815951388           
       1.017867             0.00728391848            0.000804167029           
       1.020507             0.00835392437            0.000834198788           
       1.023148             0.00698397835            0.000823015808           
       1.025788             0.00880758289             0.00084745587           
       1.028429             0.00788515212            0.000840070962           
       1.031069             0.00792978538            0.000792773302           
       1.033709             0.00733163596            0.000810313392           
       1.036350             0.00824276536            0.000771669768           
       1.038990             0.00697206894            0.000722743465           
       1.041630              0.0069349593            0.000751819891           
       1.044271             0.00749260919            0.000734937522           
       1.046911             0.00744307433            0.000770498756           
       1.049552              0.0078449746            0.000831074662           
       1.052192             0.00823189114            0.000777365301           
       1.054832             0.00845046092            0.000794782677           
       1.057473             0.00727460033            0.000726936834           
       1.060113             0.00801281344            0.000744064085           
       1.062754             0.00829072601            0.000772738144           
       1.065394             0.00909564415            0.000855724538           
       1.068034             0.00712987837            0.000689341242           
       1.070675             0.00748574662            0.000736794247           
       1.073315             0.00828392916            0.000786190334           
       1.075955             0.00883648883            0.000766562681           
       1.078596             0.00843543485            0.000796001246           
       1.081236             0.00894499197            0.000784907303           
       1.083877             0.00851264512            0.000758834699           
       1.086517             0.00751485548            0.000764519491           
       1.089157             0.00956146213            0.000894798813           
       1.091798             0.00912315385            0.000766293099           
       1.094438             0.00825275736            0.000726470483           
       1.097078             0.00783755664            0.000679008021           
       1.099719             0.00811171104            0.000747185973           
       1.102359             0.00809994178            0.000699240785           
       1.105000             0.00867352918             0.00080909818           
       1.107640              0.0104302039            0.000848362493           
       1.110280             0.00895142597            0.000717096733           
       1.112921             0.00708378104            0.000685260823           
       1.115561             0.00918061585            0.000741435048           
       1.118202              0.0080410418            0.000694548205           
       1.120842             0.00967973669            0.000800909411           
       1.123482             0.00820745876            0.000734268658           
       1.126123             0.00948853802            0.000757259559           
       1.128763             0.00789530798            0.000695500025           
       1.131403              0.0089272901            0.000712627798           
       1.134044             0.00952382483            0.000757399541           
       1.136684             0.00788808469            0.000734907977           
       1.139325             0.00902550406            0.000724162966           
       1.141965             0.00936104966            0.000742376942           
       1.144605             0.00983350006            0.000725501486           
       1.147246             0.00990840175            0.000745310414           
       1.149886             0.00946794095            0.000725970029           
       1.152527             0.00938325386            0.000733225711           
       1.155167             0.00872216519            0.000672392984           
       1.157807             0.00954065577            0.000753992613           
       1.160448              0.0107620633            0.000782004737           
       1.163088             0.00919559334            0.000689497776           
       1.165728             0.00964654917            0.000725071008           
       1.168369             0.00808801196            0.000670053204           
       1.171009               0.008668052            0.000673182087           
       1.173650             0.00876182726             0.00069457223           
       1.176290             0.00877716292            0.000679346623           
       1.178930             0.00945212928            0.000690948357           
       1.181571              0.0085005797            0.000668240772           
       1.184211               0.008516033             0.00067121935           
       1.186851             0.00899980907            0.000674623804           
       1.189492             0.00929142177              0.0006808548           
       1.192132             0.00905538932            0.000664609654           
       1.194773             0.00909765757            0.000669069583           
       1.197413             0.00934891644            0.000649855531           
       1.200053              0.0101704971            0.000695030995           
       1.202694             0.00849668884            0.000604104852           
       1.205334             0.00936354548            0.000683439819           
       1.207975             0.00906873095            0.000642010513           
       1.210615             0.00829483757            0.000677353268           
       1.213255             0.00895178688            0.000630116107           
       1.215896             0.00877035744            0.000634998792           
       1.218536              0.0103452877             0.00066313837           
       1.221176             0.00874880184            0.000663007849           
       1.223817              0.0102205146            0.000672690711           
       1.226457             0.00994707551            0.000677000838           
       1.229098             0.00814891002            0.000612731351           
       1.231738             0.00901696493            0.000647713171           
       1.234378             0.00971813864            0.000631844688           
       1.237019             0.00792878065            0.000588120072           
       1.239659             0.00985420671            0.000649940974           
       1.242299             0.00949974819            0.000630036934           
       1.244940             0.00983757544            0.000623550465           
       1.247580              0.0094428688            0.000629596063           
       1.250221             0.00971712195            0.000634732589           
       1.252861             0.00997990023             0.00061238453           
       1.255501              0.0103640757             0.00067760996           
       1.258142             0.00961214781             0.00061320322           
       1.260782              0.0101652354            0.000644242911           
       1.263423               0.010667823             0.00063416329           
       1.266063              0.0110045644            0.000660178456           
       1.268703              0.0104787342            0.000638867061           
       1.271344             0.00936237222            0.000624343617           
       1.273984              0.0113716061            0.000664553664           
       1.276624              0.0100428597            0.000612789548           
       1.279265             0.00976200706            0.000614193365           
       1.281905              0.0102281645            0.000631477113           
       1.284546              0.0111104253            0.000636160515           
       1.287186              0.0100887065            0.000594750878           
       1.289826              0.0110186293            0.000655070448           
       1.292467              0.0101645433            0.000615312224           
       1.295107              0.0106146942            0.000622543459           
       1.297747              0.0119744951            0.000632730517           
       1.300388              0.0113137302            0.000670455377           
       1.303028             0.00981677494            0.000596211188           
       1.305669              0.0103522084            0.000626833162           
       1.308309              0.0104233887            0.000622790458           
       1.310949              0.0100181934            0.000609951801           
       1.313590              0.0106607345            0.000609539861           
       1.316230              0.0105848633            0.000648144903           
       1.318871              0.0109565796            0.000645828163           
       1.321511              0.0105707349             0.00062259663           
       1.324151              0.0109330175            0.000614404308           
       1.326792              0.0110367656            0.000621129071           
       1.329432              0.0103804221            0.000598126243           
       1.332072              0.0100911619            0.000580944852           
       1.334713              0.0104899845            0.000611326474           
       1.337353              0.0106007346            0.000589361012           
       1.339994              0.0123265636             0.00066692293           
       1.342634              0.0119404634            0.000629441532           
       1.345274               0.011708144            0.000645044604           
       1.347915              0.0107725335            0.000601648659           
       1.350555              0.0111609838            0.000623125596           
       1.353195              0.0105164875            0.000607837545           
       1.355836              0.0114022984            0.000623050153           
       1.358476              0.0115517833            0.000609029674           
       1.361117              0.0117445788            0.000614933811           
       1.363757              0.0111953847            0.000618716528           
       1.366397               0.011051074            0.000596113856           
       1.369038              0.0118730021            0.000624036837           
       1.371678              0.0105272509            0.000582427268           
       1.374319              0.0116719061             0.00060799396           
       1.376959              0.0104267973            0.000568871568           
       1.379599              0.0107162773            0.000618063107           
       1.382240              0.0111786828            0.000593286761           
       1.384880              0.0111191829            0.000626750822           
       1.387520              0.0124257985            0.000629247031           
       1.390161              0.0113160677            0.000570322576           
       1.392801              0.0117108279            0.000604496666           
       1.395442              0.0118610166            0.000616669395           
       1.398082              0.0116884796            0.000573268428           
       1.400722              0.0106081858            0.000572063296           
       1.403363              0.0110018252            0.000613236689           
       1.406003              0.0112180882            0.000579520374           
       1.408644               0.011348248            0.000610597022           
       1.411284              0.0111940168            0.000574238808           
       1.413924              0.0106330024            0.000557589366           
       1.416565              0.0105157651            0.000552328746           
       1.419205              0.0113011738            0.000597296172           
       1.421845              0.0107749285            0.000582881228           
       1.424486              0.0119336629            0.000589640096           
       1.427126              0.0116517919            0.000605244972           
       1.429767              0.0100596828            0.000529127693           
       1.432407              0.0103238844            0.000560968974           
       1.435047               0.010938288            0.000542293383           
       1.437688              0.0100538565            0.000527680891           
       1.440328              0.0118867267            0.000585594435           
       1.442968              0.0108799966            0.000572800498           
       1.445609              0.0111256563            0.000560856279           
       1.448249              0.0106569553            0.000562813469           
       1.450890              0.0107900867            0.000562621681           
       1.453530              0.0114173882            0.000605483854           
       1.456170              0.0110218367            0.000577367328           
       1.458811              0.0108072605            0.000546690372           
       1.461451              0.0118554239             0.00057408993           
       1.464092              0.0114355741            0.000567519083           
       1.466732              0.0103806534            0.000536062836           
       1.469372              0.0102936236            0.000521318157           
       1.472013              0.0106754791            0.000572585827           
       1.474653              0.0107842504            0.000566617693           
       1.477293               0.012004039             0.00061040376           
       1.479934              0.0106527326            0.000548690549           
       1.482574              0.0114420169            0.000550084104           
       1.485215              0.0118223639            0.000569566441           
       1.487855              0.0107830348            0.000551130361           
       1.490495              0.0109369834            0.000553006439           
       1.493136              0.0111644558             0.00055106927           
       1.495776              0.0109905554            0.000544271047           
       1.498416               0.010821176            0.000557730037           
       1.501057              0.0106609612            0.000541385645           
       1.503697              0.0105335945            0.000526119598           
       1.506338              0.0106740973            0.000539294763           
       1.508978              0.0105476759            0.000530819528           
       1.511618              0.0104803918            0.000563514221           
       1.514259              0.0102532344            0.000538118312           
       1.516899              0.0107162304            0.000535647982           
       1.519540              0.0105841639            0.000540921425           
       1.522180              0.0107126525            0.000548975307           
       1.524820              0.0104779087            0.000539881133           
       1.527461              0.0117723832            0.000575089748           
       1.530101              0.0113912259            0.000560045596           
       1.532741              0.0103288297             0.00053019545           
       1.535382              0.0110664839            0.000557636503           
       1.538022              0.0105320415             0.00051248122           
       1.540663              0.0117884646            0.000583157208           
       1.543303             0.00996462385            0.000497825363           
       1.545943              0.0103720148            0.000537574545           
       1.548584               0.010524949            0.000551243958           
       1.551224              0.0110848699            0.000523058724           
       1.553864              0.0100305534            0.000525767704           
       1.556505             0.00981772366             0.00050248792           
       1.559145              0.0102863972            0.000520642496           
       1.561786             0.00989875613            0.000511131475           
       1.564426              0.0108754518             0.00051909049           
       1.567066             0.00906233062            0.000496502088           
       1.569707              0.0102479887            0.000518499373           
       1.572347              0.0110607338            0.000556497524           
       1.574988               0.010648164             0.00051971959           
       1.577628             0.00997447114            0.000524515452           
       1.580268              0.0101113026            0.000511673522           
       1.582909             0.00996597505            0.000538441913           
       1.585549             0.00987511253             0.00052042113           
       1.588189              0.0103582048            0.000521365792           
       1.590830             0.00928494432            0.000492997263           
       1.593470             0.00969774523            0.000523787094           
       1.596111              0.0106166499            0.000535058399           
       1.598751             0.00933528376            0.000486160817           
       1.601391             0.00978194704            0.000508635196           
       1.604032             0.00966905661            0.000516263246           
       1.606672             0.00856033315            0.000471964933           
       1.609312               0.010162379            0.000536801768           
       1.611953             0.00987998232            0.000517944021           
       1.614593             0.00980089635            0.000506024545           
       1.617234             0.00976899561             0.00052357789           
       1.619874              0.0084149995            0.000484021237           
       1.622514             0.00911971585            0.000497007368           
       1.625155             0.00980087238            0.000518277775           
       1.627795               0.010155421            0.000514642513           
       1.630436              0.0104665893            0.000519739355           
       1.633076              0.0095608054            0.000503256238           
       1.635716             0.00914435493            0.000484515966           
       1.638357              0.0103338381            0.000516423039           
       1.640997             0.00983704904            0.000519119736           
       1.643637              0.0100101705            0.000509587781           
       1.646278             0.00993723346            0.000523680744           
       1.648918             0.00901665024            0.000500195275           
       1.651559             0.00959296058            0.000519937399           
       1.654199             0.00872553539            0.000482280391           
       1.656839             0.00957144805            0.000505293785           
       1.659480              0.0091122512            0.000511537872           
       1.662120              0.0089953241            0.000478683331           
       1.664761             0.00951458926            0.000511378615           
       1.667401              0.0085577738            0.000463541427           
       1.670041             0.00866350435            0.000473507632           
       1.672682             0.00855133511            0.000468498759           
       1.675322             0.00976471708            0.000497415796           
       1.677962             0.00855110143            0.000460344887           
       1.680603             0.00838422776            0.000457233676           
       1.683243             0.00961307243            0.000510802026           
       1.685884               0.008860062            0.000494009395           
       1.688524             0.00861532515            0.000477722277           
       1.691164             0.00940761814            0.000499318963           
       1.693805               0.008343674            0.000475402833           
       1.696445             0.00923238923            0.000502981596           
       1.699085             0.00948492276            0.000492731302           
       1.701726             0.00840832558            0.000446910995           
       1.704366             0.00823658286            0.000465975469           
       1.707007             0.00828952826            0.000457050306           
       1.709647             0.00857618817            0.000470135757           
       1.712287             0.00888956026            0.000482814296           
       1.714928             0.00834779671            0.000471643022           
       1.717568             0.00884150698            0.000457239099           
       1.720209             0.00850884687            0.000469830104           
       1.722849             0.00902113335            0.000481279681           
       1.725489             0.00878208196            0.000475258878           
       1.728130             0.00941073355            0.000522831801           
       1.730770             0.00856296736            0.000473656091           
       1.733410             0.00847575139            0.000463830364           
       1.736051             0.00838651343            0.000464593586           
       1.738691             0.00878987273            0.000465993235           
       1.741332              0.0088708535            0.000481823474           
       1.743972             0.00881566387            0.000496014357           
       1.746612             0.00885313085            0.000477311309           
       1.749253             0.00807812364            0.000464944975           
       1.751893             0.00782804539            0.000454332099           
       1.754533              0.0089982542            0.000486653794           
       1.757174             0.00820295221            0.000460298932           
       1.759814              0.0080310139            0.000448545599           
       1.762455             0.00855770908            0.000471522482           
       1.765095              0.0079874303            0.000435780066           
       1.767735              0.0101411534            0.000506177647           
       1.770376             0.00921866628             0.00048387897           
       1.773016             0.00925841749            0.000481672967           
       1.775657             0.00895936195            0.000467012103           
       1.778297             0.00836210249            0.000447292371           
       1.780937             0.00767736238            0.000452374229           
       1.783578             0.00848742469            0.000463748514           
       1.786218             0.00776567977            0.000462937421           
       1.788858             0.00921802393            0.000479032247           
       1.791499             0.00847910409             0.00045427171           
       1.794139             0.00887662484            0.000461027422           
       1.796780             0.00912646316            0.000465216728           
       1.799420             0.00830647613            0.000441367937           
       1.802060             0.00897394718             0.00046246403           
       1.804701             0.00893603488            0.000442863069           
       1.807341             0.00979924757            0.000487311017           
       1.809981              0.0101310356            0.000497144149           
       1.812622             0.00907727473            0.000462107701           
       1.815262             0.00850993723            0.000456938173           
       1.817903             0.00883060496            0.000458570862           
       1.820543             0.00795300506            0.000441969155           
       1.823183             0.00829127713            0.000451022522           
       1.825824             0.00891917954            0.000446906622           
       1.828464             0.00854036547            0.000455917894           
       1.831105             0.00866589917            0.000446558951           
       1.833745             0.00729072734            0.000418345371           
       1.836385             0.00859497112            0.000467188646           
       1.839026             0.00781559672            0.000444095974           
       1.841666             0.00848422049            0.000461061675           
       1.844306             0.00809333361            0.000438028297           
       1.846947             0.00803314625             0.00044022186           
       1.849587             0.00784121435            0.000480269334           
       1.852228             0.00834444306            0.000448001365           
       1.854868             0.00808188774             0.00046574239           
       1.857508              0.0079194698            0.000456516914           
       1.860149             0.00834752723            0.000477207685           
       1.862789             0.00767567483            0.000441690614           
       1.865429             0.00871543417            0.000491293759           
       1.868070             0.00875540049            0.000485855852           
       1.870710             0.00837921017            0.000464345533           
       1.873351             0.00704972985            0.000431183291           
       1.875991             0.00784489947            0.000462274501           
       1.878631             0.00748328736            0.000442847377           
       1.881272             0.00789944073            0.000451945795           
       1.883912             0.00839484344            0.000484868366           
       1.886553             0.00909886361            0.000499146882           
       1.889193             0.00774871522            0.000459840202           
       1.891833             0.00808559187            0.000487832583           
       1.894474             0.00812514958            0.000484765545           
       1.897114             0.00752312096            0.000451384308           
       1.899754             0.00733663111            0.000447619615           
       1.902395              0.0077093839            0.000449878796           
       1.905035             0.00885938933            0.000510801625           
       1.907676             0.00776502174             0.00045071751           
       1.910316             0.00840300254            0.000481316964           
       1.912956             0.00877329119            0.000480987726           
       1.915597             0.00793394822            0.000459957662           
       1.918237             0.00801848933            0.000477548481           
       1.920878             0.00840686309            0.000486975016           
       1.923518             0.00765096743            0.000464763592           
       1.926158             0.00769573555             0.00046007273           
       1.928799             0.00754145809            0.000450165994           
       1.931439             0.00714640853            0.000449710697           
       1.934079             0.00807433677            0.000498320257           
       1.936720              0.0077409968            0.000452077191           
       1.939360             0.00786359657            0.000486107613           
       1.942001             0.00757971514            0.000437426409           
       1.944641             0.00799627619            0.000458135467           
       1.947281             0.00815920054            0.000458513527           
       1.949922             0.00712894235            0.000442694404           
       1.952562             0.00753971629            0.000469540667           
       1.955202             0.00722382184            0.000459038922           
       1.957843             0.00690764764            0.000437240085           
       1.960483             0.00794472488            0.000490250215           
       1.963124             0.00809107004            0.000484595017           
       1.965764             0.00742415987            0.000437748045           
       1.968404             0.00763732998            0.000439793133           
       1.971045             0.00742564611            0.000442134515           
       1.973685             0.00756221415            0.000468011325           
       1.976326             0.00814445566             0.00047901894           
       1.978966              0.0073096833            0.000457789272           
       1.981606             0.00735177218            0.000468680284           
       1.984247             0.00795875319             0.00048443831           
       1.986887             0.00750572947            0.000464813425           
       1.989527              0.0072826566            0.000452923312           
       1.992168             0.00754769884            0.000478421426           
       1.994808             0.00745586421            0.000473463707           
       1.997449             0.00732417743             0.00045962683           
       2.000089             0.00824448053            0.000485715916           
       2.002729             0.00761562986            0.000467104332           
       2.005370             0.00722215692            0.000449983143           
       2.008010              0.0082949965            0.000503295439           
       2.010650             0.00725469496            0.000474190744           
       2.013291             0.00827511045            0.000485903827           
       2.015931             0.00831387551            0.000483597776           
       2.018572             0.00677515064            0.000466940132           
       2.021212             0.00752627375            0.000483301266           
       2.023852             0.00761016461            0.000459964121           
       2.026493             0.00740013628            0.000473837255           
       2.029133             0.00825227595            0.000490306127           
       2.031774             0.00790299061            0.000503557918           
       2.034414             0.00747547777            0.000450636716           
       2.037054             0.00808645689            0.000480570357           
       2.039695             0.00674963578             0.00043573809           
       2.042335             0.00820028372             0.00049912244           
       2.044975             0.00699383944            0.000455356442           
       2.047616             0.00719374185            0.000460671053           
       2.050256             0.00777768931              0.0004835367           
       2.052897             0.00837983042            0.000511158192           
       2.055537              0.0082372118            0.000489793031           
       2.058177             0.00770107446            0.000463767639           
       2.060818             0.00709929342             0.00046646438           
       2.063458             0.00714287252            0.000487591909           
       2.066098             0.00742786576            0.000469048774           
       2.068739             0.00757085486            0.000480902662           
       2.071379             0.00794730937            0.000505563998           
       2.074020             0.00706815243            0.000466419322           
       2.076660             0.00737152958            0.000480174494           
       2.079300             0.00796522417            0.000511366292           
       2.081941             0.00674124876            0.000430740451           
       2.084581             0.00763184003            0.000483751545           
       2.087222             0.00711816557            0.000450558277           
       2.089862             0.00678327237            0.000479043868           
       2.092502             0.00753283687            0.000489349104           
       2.095143             0.00792076228            0.000518174421           
       2.097783             0.00760153796            0.000491466684           
       2.100423             0.00844004282            0.000499009577           
       2.103064             0.00714241039            0.000476324928           
       2.105704             0.00751156866             0.00048605981           
       2.108345             0.00777550619            0.000475106811           
       2.110985             0.00784890131            0.000509837802           
       2.113625             0.00711277225            0.000489576383           
       2.116266             0.00679554669            0.000485323725           
       2.118906             0.00773727957            0.000482617729           
       2.121546             0.00708427352            0.000452985799           
       2.124187              0.0076882928            0.000495351431           
       2.126827             0.00708014764            0.000480662037           
       2.129468             0.00728178259            0.000488703488           
       2.132108             0.00793652447            0.000496387272           
       2.134748             0.00761906501            0.000484471296           
       2.137389               0.007510867            0.000501822318           
       2.140029             0.00758799963            0.000451562915           
       2.142670             0.00822352715            0.000502398401           
       2.145310             0.00718058916            0.000456934489           
       2.147950             0.00742752641            0.000478328631           
       2.150591             0.00674297423            0.000451147639           
       2.153231             0.00858276778            0.000523922899           
       2.155871             0.00869125499             0.00050933318           
       2.158512             0.00835243224            0.000520990907           
       2.161152             0.00734960004            0.000473399673           
       2.163793             0.00812496071            0.000495504009           
       2.166433             0.00697901647            0.000471584521           
       2.169073             0.00769366297            0.000484117612           
       2.171714             0.00722959537            0.000465781833           
       2.174354              0.0063507375            0.000456158247           
       2.176995             0.00722008038            0.000484332044           
       2.179635             0.00672431436            0.000493917187           
       2.182275             0.00651143095            0.000458895018           
       2.184916             0.00846649647            0.000505412198           
       2.187556             0.00742149249            0.000468451517           
       2.190196             0.00720257618            0.000482251565           
       2.192837             0.00691050877            0.000469802537           
       2.195477             0.00749117461            0.000466339178           
       2.198118             0.00697079208            0.000461377049           
       2.200758              0.0074897696            0.000490648888           
       2.203398             0.00736418921            0.000489630592           
       2.206039             0.00719568688            0.000458061694           
       2.208679             0.00825164547             0.00050193739           
       2.211319             0.00697558725            0.000464158815           
       2.213960             0.00777607236            0.000496634111           
       2.216600             0.00767268969            0.000510330293           
       2.219241             0.00794427832            0.000496294975           
       2.221881             0.00709389008            0.000469944854           
       2.224521             0.00666174356            0.000460986346           
       2.227162              0.0072378521            0.000470885305           
       2.229802             0.00739071194            0.000490727182           
       2.232443             0.00701254501            0.000470468037           
       2.235083             0.00719293747            0.000490535715           
       2.237723             0.00746220047            0.000479470217           
       2.240364             0.00756215558            0.000494561706           
       2.243004             0.00639343487            0.000451111745           
       2.245644             0.00715119957            0.000481872221           
       2.248285             0.00765210398             0.00048847725           
       2.250925              0.0073890475            0.000482923483           
       2.253566             0.00686595444            0.000497672173           
       2.256206             0.00707521398            0.000495097746           
       2.258846             0.00690221938             0.00046518142           
       2.261487             0.00691831858            0.000488820136           
       2.264127             0.00754457848            0.000492999392           
       2.266767             0.00658630034            0.000472899656           
       2.269408             0.00720538883            0.000496651508           
       2.272048             0.00704270192            0.000488081757           
       2.274689             0.00757174256            0.000512750244           
       2.277329              0.0075136465             0.00048093168           
       2.279969             0.00698370124            0.000493540883           
       2.282610             0.00698374376            0.000479815627           
       2.285250             0.00776263046            0.000484181617           
       2.287891             0.00757587915            0.000512833409           
       2.290531             0.00757239882            0.000519607874           
       2.293171             0.00756025916            0.000505739181           
       2.295812             0.00701367834            0.000485156603           
       2.298452             0.00696730365            0.000505664805           
       2.301092              0.0075478354              0.0004890066           
       2.303733             0.00650845411            0.000472412768           
       2.306373             0.00757751743            0.000517764615           
       2.309014             0.00764564817            0.000509941337           
       2.311654             0.00804298479            0.000545800453           
       2.314294             0.00799482555            0.000501340251           
       2.316935             0.00729865034            0.000480994283           
       2.319575             0.00763945417            0.000515602671           
       2.322215             0.00725525253            0.000523658713           
       2.324856             0.00742247721            0.000486966686           
       2.327496              0.0071089502            0.000506744553           
       2.330137             0.00628265342            0.000455864625           
       2.332777             0.00640899413            0.000474747679           
       2.335417              0.0074472491            0.000496483165           
       2.338058             0.00642372963            0.000474879632           
       2.340698              0.0067031525            0.000481285881           
       2.343339             0.00704655907            0.000504319241           
       2.345979             0.00652037296            0.000458966362           
       2.348619             0.00701504997              0.0004934598           
       2.351260             0.00702564968            0.000490955279           
       2.353900             0.00675634124            0.000479928497           
       2.356540             0.00683329794            0.000481968882           
       2.359181             0.00756840562            0.000500120144           
       2.361821             0.00696822127            0.000463551786           
       2.364462             0.00705862541            0.000487951988           
       2.367102             0.00633721188            0.000475133415           
       2.369742             0.00663073683            0.000511561626           
       2.372383             0.00779808794            0.000502340739           
       2.375023             0.00805010301            0.000536534067           
       2.377663             0.00758128904            0.000497843341           
       2.380304             0.00682437703            0.000480213444           
       2.382944             0.00703550286            0.000464409326           
       2.385585             0.00634313186            0.000470297974           
       2.388225             0.00635839981            0.000468651072           
       2.390865             0.00741654034             0.00050094741           
       2.393506             0.00637683742            0.000455745486           
       2.396146             0.00712794052            0.000520985814           
       2.398787             0.00691730999            0.000472981762           
       2.401427             0.00707621603            0.000461750499           
       2.404067             0.00731498245            0.000479948031           
       2.406708             0.00685884836            0.000459170306           
       2.409348              0.0069115484            0.000488907443           
       2.411988             0.00754878309            0.000500616865           
       2.414629             0.00808940636            0.000534373091           
       2.417269             0.00736221236            0.000515740883           
       2.419910             0.00740562057            0.000518459349           
       2.422550             0.00704481644            0.000483795697           
       2.425190             0.00650958591            0.000490215995           
       2.427831              0.0063103388            0.000479942187           
       2.430471              0.0070941534            0.000484803699           
       2.433112             0.00709799324            0.000472210986           
       2.435752             0.00713551034            0.000501065639           
       2.438392             0.00660331578            0.000465245739           
       2.441033              0.0064873945            0.000488719906           
       2.443673             0.00736316162            0.000521063665           
       2.446313             0.00726956314            0.000518197753           
       2.448954             0.00719340597            0.000490805439           
       2.451594             0.00691833426             0.00051754213           
       2.454235             0.00800592931            0.000522362327           
       2.456875             0.00666565857            0.000498732852           
       2.459515             0.00679214298            0.000516475263           
       2.462156             0.00742156014             0.00050971778           
       2.464796             0.00760707997            0.000509391382           
       2.467436             0.00744282282            0.000521052289           
       2.470077              0.0074672645            0.000494673237           
       2.472717             0.00779840255            0.000507712295           
       2.475358             0.00870242263            0.000541925905           
       2.477998             0.00743388702            0.000492429204           
       2.480638             0.00713061203            0.000490849639           
       2.483279             0.00708305519            0.000511302507           
       2.485919             0.00661158217            0.000476074667           
       2.488560             0.00691063097            0.000485362298           
       2.491200             0.00600034879             0.00046571606           
       2.493840             0.00708702178            0.000535555236           
       2.496481             0.00688238693            0.000519133522           
       2.499121             0.00677202867            0.000500875571           
       2.501761             0.00733956997            0.000528350549           
       2.504402             0.00715382036            0.000514001097           
       2.507042             0.00679904864            0.000497381821           
       2.509683             0.00644611598            0.000476898665           
       2.512323             0.00683825009            0.000515871557           
       2.514963             0.00641359682            0.000493424857           
       2.517604             0.00768501663            0.000560460589           
       2.520244             0.00722203384            0.000509359671           
       2.522884             0.00787105962             0.00053935937           
       2.525525              0.0100221243            0.000615521294           
       2.528165             0.00887222943            0.000570107307           
       2.530806             0.00835184236            0.000562776572           
       2.533446             0.00845609411            0.000554191276           
       2.536086             0.00731611252            0.000510869962           
       2.538727             0.00676920101            0.000471427658           
       2.541367             0.00668982741            0.000473272079           
       2.544008             0.00652731106            0.000482801114           
       2.546648             0.00653654786            0.000491429794           
       2.549288              0.0076861349              0.0005437527           
       2.551929             0.00721621397            0.000518470003           
       2.554569             0.00732737409            0.000503334972           
       2.557209             0.00679212699            0.000489053175           
       2.559850             0.00693382377            0.000495714886           
       2.562490             0.00681233084            0.000507839492           
       2.565131             0.00724301308            0.000542940313           
       2.567771             0.00820502732            0.000557156421           
       2.570411             0.00676434954            0.000500409482           
       2.573052             0.00774703169            0.000542269723           
       2.575692              0.0067850783            0.000504414147           
       2.578332             0.00665465754            0.000501608513           
       2.580973             0.00757510324              0.0005300836           
       2.583613             0.00624841843            0.000469968856           
       2.586254             0.00723260547            0.000504925645           
       2.588894             0.00662595352            0.000501869465           
       2.591534             0.00733707204            0.000546697456           
       2.594175             0.00780291566            0.000553146835           
       2.596815             0.00666982304            0.000514425299           
       2.599456             0.00731612656            0.000510915868           
       2.602096             0.00770522008            0.000528316188           
       2.604736             0.00668139698            0.000503631524           
       2.607377             0.00672408115            0.000491923026           
       2.610017             0.00737243759            0.000506079736           
       2.612657             0.00691805809            0.000521440265           
       2.615298             0.00696184654             0.00051069836           
       2.617938             0.00702882238            0.000548938338           
       2.620579             0.00730645814            0.000537282112           
       2.623219             0.00761259751            0.000547640865           
       2.625859             0.00778335411            0.000538399169           
       2.628500             0.00752328159            0.000525858194           
       2.631140             0.00636207904            0.000491026832           
       2.633780             0.00677329672            0.000506206876           
       2.636421             0.00729928995            0.000538417567           
       2.639061             0.00830280463             0.00054057832           
       2.641702             0.00720690073            0.000515299896           
       2.644342              0.0074641298            0.000526649847           
       2.646982             0.00710310162            0.000506074858           
       2.649623             0.00728271805            0.000537009711           
       2.652263             0.00736128187            0.000534480631           
       2.654904             0.00777745255            0.000549934071           
       2.657544             0.00789308543             0.00052181724           
       2.660184             0.00664596045            0.000506732878           
       2.662825             0.00720112852            0.000539710603           
       2.665465             0.00708046047            0.000517597132           
       2.668105             0.00727489186            0.000553007202           
       2.670746             0.00690623244            0.000497748363           
       2.673386             0.00913745502            0.000590042985           
       2.676027             0.00863230922             0.00056429716           
       2.678667              0.0113200603            0.000630532252           
       2.681307               0.011488754            0.000624132937           
       2.683948              0.0143211729            0.000715965621           
       2.686588              0.0122446113            0.000651047724           
       2.689229             0.00972834407            0.000567054582           
       2.691869              0.0105469174            0.000624025454           
       2.694509             0.00859502274             0.00056363976           
       2.697150             0.00809264645            0.000538046254           
       2.699790               0.008170438            0.000566768787           
       2.702430             0.00797296247            0.000535175711           
       2.705071             0.00685302471            0.000512694728           
       2.707711             0.00857608594            0.000556661696           
       2.710352              0.0072553886            0.000541000994           
       2.712992              0.0070754953            0.000544130321           
       2.715632             0.00760141492            0.000523271211           
       2.718273             0.00722820083            0.000528819717           
       2.720913             0.00749766029            0.000537053984           
       2.723553             0.00647779756            0.000502542645           
       2.726194             0.00682209188             0.00053910241           
       2.728834             0.00775430483            0.000575026204           
       2.731475             0.00741224419            0.000518861565           
       2.734115             0.00736449699            0.000533238842           
       2.736755             0.00734733351             0.00053700097           
       2.739396             0.00685518612            0.000515698971           
       2.742036             0.00701063416             0.00054579666           
       2.744677             0.00751379368            0.000548247921           
       2.747317              0.0068960303            0.000521481622           
       2.749957             0.00635373419            0.000504070298           
       2.752598             0.00722916483            0.000543511156           
       2.755238             0.00761543838             0.00056791315           
       2.757878             0.00856602005            0.000597049275           
       2.760519             0.00814363173            0.000575970423           
       2.763159              0.0106834621            0.000653108424           
       2.765800             0.00692646525            0.000501153653           
       2.768440             0.00812776747            0.000546875386           
       2.771080             0.00829342435            0.000557031482           
       2.773721             0.00743294882            0.000540946681           
       2.776361             0.00731965908            0.000544214219           
       2.779001             0.00762160192            0.000575095785           
       2.781642             0.00760610055             0.00057027679           
       2.784282             0.00717476714             0.00056297875           
       2.786923             0.00666137773             0.00054723928           
       2.789563             0.00653653201            0.000522093374           
       2.792203             0.00694783364            0.000514200392           
       2.794844             0.00639546378            0.000540689333           
       2.797484             0.00584941511            0.000488008894           
       2.800125             0.00612753613            0.000525198986           
       2.802765             0.00698302096            0.000551018608           
       2.805405             0.00708684144            0.000556978443           
       2.808046             0.00750995477            0.000583443825           
       2.810686             0.00619579986            0.000486955898           
       2.813326               0.006229845             0.00050720057           
       2.815967             0.00624174362             0.00052211964           
       2.818607             0.00703245403            0.000528863595           
       2.821248              0.0072439793            0.000525614759           
       2.823888             0.00668844423            0.000524263308           
       2.826528             0.00792665592            0.000552725346           
       2.829169             0.00786125939             0.00057655565           
       2.831809             0.00826555407            0.000599237095           
       2.834449             0.00628406614            0.000525798152           
       2.837090             0.00622956748            0.000505630714           
       2.839730             0.00674783566            0.000523674153           
       2.842371             0.00656130933              0.0005171309           
       2.845011             0.00649254059            0.000518514137           
       2.847651             0.00635374065             0.00051357167           
       2.850292             0.00668819622            0.000532086532           
       2.852932             0.00644549202            0.000533726626           
       2.855573             0.00761679301            0.000562809302           
       2.858213             0.00724583862            0.000576446461           
       2.860853             0.00717627808            0.000533647521           
       2.863494             0.00734769462            0.000559077479           
       2.866134             0.00784765858            0.000600536215           
       2.868774             0.00727356101            0.000568205774           
       2.871415             0.00682545029            0.000558998159           
       2.874055             0.00580478703            0.000492764337           
       2.876696              0.0068915341            0.000551435945           
       2.879336              0.0073975883            0.000550646147           
       2.881976             0.00701871542            0.000553218313           
       2.884617             0.00787618793            0.000577431125           
       2.887257             0.00760241262            0.000570234836           
       2.889897             0.00675946061            0.000526626342           
       2.892538             0.00698912309            0.000586640078           
       2.895178             0.00678994202            0.000522383613           
       2.897819             0.00726912734             0.00055136413           
       2.900459             0.00659268041            0.000514868978           
       2.903099             0.00661174015            0.000510334816           
       2.905740             0.00667454607            0.000526019016           
       2.908380             0.00600970609            0.000504805366           
       2.911021             0.00683134932            0.000546958952           
       2.913661             0.00637894081            0.000528379114           
       2.916301             0.00715338434            0.000560068439           
       2.918942              0.0078685714            0.000561861669           
       2.921582              0.0066364533            0.000539884383           
       2.924222             0.00629839839            0.000509548324           
       2.926863             0.00738701692            0.000574794048           
       2.929503             0.00700318744            0.000566292258           
       2.932144             0.00792224697             0.00057817659           
       2.934784             0.00702982828            0.000535708402           
       2.937424             0.00621376574            0.000508826382           
       2.940065             0.00721334645            0.000522956952           
       2.942705             0.00752853874            0.000533590007           
       2.945346              0.0068674369            0.000540839802           
       2.947986             0.00678053736            0.000547969219           
       2.950626              0.0071672582            0.000560206946           
       2.953267             0.00755899579            0.000566017257           
       2.955907             0.00797928954            0.000603268024           
       2.958547             0.00813255865            0.000574959683           
       2.961188             0.00587976208             0.00051003998           
       2.963828             0.00799670711            0.000581836383           
       2.966469             0.00665135972            0.000520556618           
       2.969109             0.00688089014            0.000537307123           
       2.971749             0.00654015688            0.000520566966           
       2.974390             0.00761565589              0.0005520134           
       2.977030             0.00711446346             0.00054546374           
       2.979670             0.00897721034            0.000595992916           
       2.982311             0.00755999201            0.000566864537           
       2.984951             0.00758242491             0.00053993735           
       2.987592             0.00772830239            0.000556024538           
       2.990232             0.00718543788            0.000557580228           
       2.992872             0.00686473086            0.000513354473           
       2.995513             0.00833559245            0.000553425064           
       2.998153              0.0102553022            0.000624167137           
       3.000794              0.0123045186            0.000662223626           
       3.003434              0.0115639612            0.000642955487           
       3.006074              0.0478931051             0.00129013154           
       3.008715               0.125205662             0.00201362174           
       3.011355               0.187334349             0.00237518342           
       3.013995              0.0932164611             0.00168002117           
       3.016636              0.0631497408             0.00135407281           
       3.019276               0.129403189             0.00190534335           
       3.021917               0.502169169             0.00360908385           
       3.024557                1.65918175             0.00644983952           
       3.027197                1.14297624             0.00521917307           
       3.029838               0.520241322             0.00357110417           
       3.032478               0.256885714             0.00251195254           
       3.035118              0.0713552692             0.00134165936           
       3.037759              0.0963270472             0.00155683529           
       3.040399               0.135887427             0.00190738312           
       3.043040               0.527502554             0.00380409651           
       3.045680               0.387681157             0.00306832067           
       3.048320              0.0862953559             0.00147912296           
       3.050961               0.104333096             0.00165503563           
       3.053601              0.0814831155             0.00140867586           
       3.056242              0.0575431498             0.00125861856           
       3.058882              0.0473840917             0.00122516087           
       3.061522               0.035974875              0.0010473655           
       3.064163              0.0422250499             0.00112041824           
       3.066803               0.100435317             0.00181918919           
       3.069443              0.0992704596             0.00189226819           
       3.072084              0.0523898197             0.00133855449           
       3.074724              0.0432177983             0.00135771401           
       3.077365              0.0852650142             0.00197413115           
       3.080005              0.0187662998            0.000931394929           
       3.082645              0.0100839217            0.000717240814           
       3.085286              0.0121129752             0.00079229819           
       3.087926             0.00953048289            0.000697365665           
       3.090566              0.0101903193            0.000706541279           
       3.093207              0.0112828271            0.000773638161           
       3.095847              0.0087658331            0.000653597959           
       3.098488              0.0086176157            0.000718575104           
       3.101128             0.00873955227            0.000728294848           
       3.103768              0.0091639221            0.000731736779           
       3.106409             0.00833033753             0.00074250075           
       3.109049              0.0101768203            0.000787561963           
       3.111690             0.00841274268            0.000703764368           
       3.114330             0.00776552433            0.000690535228           
       3.116970             0.00885680641            0.000743122525           
       3.119611              0.0133583557            0.000971442513           
       3.122251              0.0208335547             0.00126901839           
       3.124891              0.0340697502             0.00163793742           
       3.127532              0.0254582168             0.00138514398           
       3.130172              0.0129667689             0.00100562731           
       3.132813             0.00904066094            0.000826650194           
       3.135453              0.0070329986            0.000723102335           
       3.138093             0.00609418392            0.000729340574           
       3.140734             0.00571858204            0.000651807557           
       3.143374             0.00773061956            0.000801457871           
       3.146014             0.00760733978            0.000855898737           
       3.148655             0.00789986621            0.000810790223           
       3.151295             0.00548185396            0.000719746443           
       3.153936             0.00686532858            0.000778054518           
       3.156576             0.00556569852            0.000691021198           
       3.159216             0.00578236298            0.000707865988           
       3.161857             0.00608152563            0.000722992099           
       3.164497             0.00690177423            0.000809265987           
       3.167138             0.00777439241            0.000887456468           
       3.169778             0.00635816937            0.000789329021           
       3.172418             0.00767777048            0.000858557702           
       3.175059             0.00573584997            0.000657885472           
       3.177699             0.00574124523            0.000696988486           
       3.180339             0.00484525782            0.000686027849           
       3.182980             0.00642719386            0.000816905572           
       3.185620             0.00537118906            0.000760538337           
       3.188261             0.00746770773            0.000912769993           
       3.190901                0.00594216            0.000748842819           
       3.193541             0.00424204725            0.000664827994           
       3.196182             0.00497533001             0.00075034328           
       3.198822             0.00588230485            0.000816146937           
       3.201463             0.00700686041            0.000875404624           
       3.204103             0.00452341905            0.000699085259           
       3.206743             0.00617394353            0.000816652498           
       3.209384             0.00617064334            0.000882087447           
       3.212024             0.00525193906            0.000758696872           
       3.214664             0.00679726144            0.000981500047           
       3.217305             0.00496537169            0.000797412239           
       3.219945             0.00648830675            0.000938203395           
       3.222586             0.00552926554            0.000824940159           
       3.225226             0.00560398167            0.000921304953           
       3.227866               0.005049423            0.000799313874           
       3.230507             0.00571237194            0.000881291893           
       3.233147              0.0058064662            0.000895695249           
       3.235787             0.00492100712            0.000843851722           
       3.238428             0.00724983632             0.00110528842           
       3.241068             0.00705031455             0.00101917898           
       3.243709             0.00392500773            0.000785658089           
       3.246349             0.00588458581            0.000876945032           
       3.248989             0.00545106705            0.000996605282           
       3.251630             0.00455091358            0.000876891182           
       3.254270             0.00619273685            0.000914204792           
       3.256911             0.00689976163             0.00105290248           
       3.259551             0.00653636014             0.00110328853           
       3.262191              0.0046458269             0.00095010098           
       3.264832             0.00784970449             0.00129038388           
       3.267472             0.00501978342            0.000968026808           
       3.270112             0.00591066267             0.00116084796           
       3.272753             0.00592901806             0.00106420042           
       3.275393              0.0059707492             0.00108966984           
       3.278034             0.00638070121             0.00112709146           
       3.280674             0.00656124142             0.00124023298           
       3.283314             0.00562484552             0.00102701121           
       3.285955             0.00540571526             0.00103880433           
       3.288595             0.00743438197             0.00135532747           
       3.291235             0.00469413001             0.00110710513           
       3.293876             0.00642742675              0.0013140934           
       3.296516             0.00794036714             0.00140219798           
       3.299157             0.00868148405             0.00144775304           
       3.301797             0.00943467588             0.00172157778           
       3.304437             0.00425428772             0.00100157959           
       3.307078             0.00453711058             0.00113938502           
       3.309718             0.00334506711             0.00100980738           
       3.312359             0.00456630726             0.00118010824           
       3.314999             0.00530081014             0.00125187863           
       3.317639             0.00541785459             0.00121041403           
       3.320280             0.00547403054             0.00129357453           
       3.322920             0.00568365487              0.0013402952           
       3.325560             0.00500148236             0.00125814569           
       3.328201             0.00434203594             0.00105577193           
       3.330841             0.00609978689             0.00152297798           
       3.333482             0.00236761173            0.000896868631           
       3.336122              0.0050627486             0.00131209827           
       3.338762             0.00313386089             0.00119248591           
       3.341403             0.00246376091             0.00101032606           
       3.344043             0.00644204906             0.00156849389           
       3.346683             0.00517292238             0.00143492718           
       3.349324             0.00352842762             0.00133243462           
       3.351964             0.00892815906             0.00224130686           
       3.354605             0.00590309436              0.0020842722           
       3.357245             0.00471758187             0.00168086198           
       3.359885             0.00655988543             0.00158637564           
       3.362526             0.00471400048             0.00168170938           
       3.365166             0.00372100532             0.00140924698           
       3.367807             0.00520000574             0.00213206226           
       3.370447             0.00420310966               0.001590036           
       3.373087             0.00818235695              0.0023724008           
       3.375728             0.00522564355             0.00213972506           
       3.378368              0.0018164061             0.00187225266           
       3.381008             0.00322367108             0.00185956549           
       3.383649             0.00404957772             0.00167195831           
       3.386289             0.00484438396             0.00216431463           
       3.388930             0.00725604886             0.00418981195           
       3.391570             0.00364182353             0.00209974409           
       3.394210             0.00777994624             0.00388387448           
       3.396851             0.00237839949             0.00240211108           
       3.399491             0.00469849604             0.00337716444           
       3.402131             0.00479834694              0.0048285317           
       3.404772             0.00948567438             0.00960335865           
       3.407412                       nan                       nan           
       3.410053           -2.60347169e-05                         0           
       3.412693                       nan                       nan           
       3.415333           -2.60844687e-05                         0           
