################################################################################
# EDF_DataBlockID                     0.Image.Psd
# EDF_BinarySize                      4366944
# EDF_HeaderSize                      2560
# ByteOrder                           LowByteFirst
# DataType                            FloatValue
# Dim_1                               1028
# Dim_2                               1062
# Image                               0
# HeaderID                            EH:000000:000000:000000
# Size                                4366944
# Center_1                            607.5200
# Center_2                            651.5500
# Comment                             Xenocs_Cell_Window - 20251028_20perc_iodine_1.23mg
# DDummy                              0.6
# Date                                2025-11-01T23:59:24
# Delta                               0
# Dummy                               -1.5
# ExposureTime                        360
# Gamma                               0
# Intensity1                          8.75078e-10
# PSize_1                             7.5e-05
# PSize_2                             7.5e-05
# Pressure                            0.0326872
# SampleDistance                      0.450002
# SampleEnvKind                       large
# SampleEnvPN                         ElectroChemical cell
# SampleEnvSN                         1141
# Thickness                           0
# Wavelength                          1.541891e-10
# Wavelength                          1.54189e-10
# aux                                 0
# aux_dial                            0.002375
# beamx                               588.434
# beamx_dial                          588.434
# beamz                               657.808
# beamz_dial                          657.808
# det0x                               0
# det0x_dial                          6.36945
# det0xvd                             0
# det0xvd_dial                        0
# det0y                               450.002
# det0y_dial                          481.635
# det0z                               0
# det0z_dial                          1.23302
# det0zvd                             0
# det0zvd_dial                        0
# mag                                 1.818
# mag_dial                            1.818
# om                                  0.2499
# om_dial                             -0.610199
# phi                                 -0.0120535
# phi_dial                            0
# ry                                  0.599993
# ry_dial                             0.599993
# s1bot                               0.8
# s1bot_dial                          -1.66094
# s1hl                                0.8
# s1hl_dial                           -0.608437
# s1hr                                0.8
# s1hr_dial                           0.970938
# s1top                               0.8
# s1top_dial                          -0.461562
# s2bot                               0.45
# s2bot_dial                          1.36109
# s2hl                                0.45
# s2hl_dial                           -0.83375
# s2hr                                0.45
# s2hr_dial                           -0.118594
# s2top                               0.45
# s2top_dial                          1.44734
# w2theta                             32
# w2theta_dial                        32
# waxsch                              19.2605
# waxsch_dial                         -32.7355
# waxsh                               137.085
# waxsh_dial                          -43.5338
# waxsth                              26.0607
# waxsth_dial                         -19.4086
# waxsz                               67.0407
# waxsz_dial                          -23.7954
# wind                                65.9854
# wind_dial                           66.0041
# wpsi                                124
# wpsi_dial                           124
# wstod                               115
# wstod_dial                          115
# x                                   0
# x_dial                              1.00969
# z                                   0
# z_dial                              13.3172
# CountCutoff                         15302352
# DetectorModel                       Dectris EIGER2 Si 1M, S/N E-02-0362
# ThresholdSetting                    4023.88989258
# Saturation                          0
# FlatField                           Corrected
# BackgroundReductionExtra            0.02
# BackgroundCorrectionConstant        0.0026712
# Detector                            0
# Monitor                             0
# Pil_Roi0                            0
# SumForIntensity1                    3.15028e+08
# TransmittedFlux                     875078
# det                                 0
# mon                                 0
# pilai0                              3.15028e+08
# pilai1                              792586
# pilct0                              5.44111e+08
# pilct1                              792586
# pilroi0                             0
# pilroi1                             0
# sec                                 1
# title                               20251028_20perc_iodine_1.23mg_0_00960.edf
# usaxs0                              0
# Operation                           Azimuthal average I(q)
# Error_model                         ErrorModel.poisson
# Geometrical_correction              True
# Transmission_correction             True
# Thickness_correction                False
# Binning mode                        Uniform
# Binning factor                      1.0
# Psi                                 0.0
# Omega                               0.2499
# MaskInvalidPixels                   True
# DetectorEdge                        3
# MaskFiles                           ['20251028_20perc_iodine_1.23mg_0_00012_mask.edf']
################################################################################
    q(A⁻¹)                Intensity(a.u.)            Sigma_I(a.u.)            
       0.000340                372275.048                119.083034           
       0.001019                359226.519                71.6337635           
       0.001698                 350002.05                49.9981466           
       0.002377                330959.252                43.4861459           
       0.003056                307683.755                35.4365956           
       0.003735                 253637.92                28.3749207           
       0.004415                204386.112                25.4714318           
       0.005094                152184.289                19.0345814           
       0.005773                100056.443                14.2891931           
       0.006452                58041.3412                10.4275712           
       0.007131                32189.2541                7.52277921           
       0.007810                16302.0641                 5.3128684           
       0.008490                8252.94987                3.35077222           
       0.009169                4036.63786                2.31601228           
       0.009848                1245.97998                1.24406212           
       0.010527                482.916327               0.774502348           
       0.011206                120.400391               0.369091678           
       0.011885                54.7631945               0.231277167           
       0.012564                24.7754204               0.159709466           
       0.013244                16.7929649               0.122926015           
       0.013923                 12.395867               0.107316927           
       0.014602                9.10602028              0.0853058878           
       0.015281                7.34538775              0.0779921581           
       0.015960                6.05877553              0.0703253552           
       0.016639                4.90937497              0.0597788046           
       0.017319                 3.9989738              0.0531130425           
       0.017998                3.43248502              0.0470763291           
       0.018677                2.81843897              0.0441822401           
       0.019356                2.38606586              0.0401683259           
       0.020035                2.09147588               0.035282732           
       0.020714                1.88734363              0.0338714276           
       0.021394                1.66424311              0.0300944388           
       0.022073                1.40497699              0.0287688055           
       0.022752                1.22009099              0.0256458359           
       0.023431                1.07854842              0.0234054971           
       0.024110               0.991814179              0.0234002183           
       0.024789               0.855292632               0.020180983           
       0.025469               0.827472387              0.0204556732           
       0.026148               0.727866056              0.0180259304           
       0.026827               0.664294285              0.0174963346           
       0.027506               0.604340944              0.0169287875           
       0.028185               0.537988707              0.0152320283           
       0.028864               0.504581068              0.0146687444           
       0.029544               0.468504649               0.013706614           
       0.030223               0.426226955              0.0132610232           
       0.030902               0.391791458              0.0128304028           
       0.031581               0.335950862              0.0112941283           
       0.032260               0.338428278               0.011528844           
       0.032939               0.315590953              0.0107346999           
       0.033619               0.260995022             0.00990558234           
       0.034298               0.285789584              0.0100872383           
       0.034977               0.257004108             0.00937776472           
       0.035656                0.23561022             0.00921660354           
       0.036335               0.220637069              0.0086502509           
       0.037014               0.210088882             0.00846612186           
       0.037693               0.187313622             0.00769018499           
       0.038373               0.187501633              0.0077695482           
       0.039052               0.173174839              0.0074985882           
       0.039731                0.16238536             0.00709201634           
       0.040410               0.153483636             0.00684866282           
       0.041089               0.139448978             0.00642577709           
       0.041768               0.134111293             0.00633452035           
       0.042448               0.134914778              0.0063041677           
       0.043127               0.118565213             0.00577027398           
       0.043806               0.118553103             0.00581300155           
       0.044485               0.113390798             0.00556824205           
       0.045164               0.115780685             0.00573751124           
       0.045843               0.115316573             0.00549192859           
       0.046523               0.107977169             0.00533263777           
       0.047202               0.112391395             0.00547856569           
       0.047881               0.102482855             0.00513061094           
       0.048560               0.102470796             0.00517707062           
       0.049239                0.08798538             0.00460619325           
       0.049918               0.091515738             0.00478952969           
       0.050598              0.0989679928             0.00490599603           
       0.051277              0.0821508468             0.00445559331           
       0.051956              0.0860687832             0.00453196492           
       0.052635               0.072156237             0.00406148459           
       0.053314              0.0764939168             0.00430404416           
       0.053993              0.0805809571              0.0042963694           
       0.054673              0.0716184204             0.00396017394           
       0.055352              0.0784016702             0.00420433491           
       0.056031              0.0681756779             0.00383819479           
       0.056710              0.0658974803             0.00386599011           
       0.057389              0.0695031657             0.00382865087           
       0.058068              0.0677682214             0.00381953464           
       0.058748              0.0635207507             0.00374402855           
       0.059427              0.0649586086             0.00372206321           
       0.060106              0.0647460123             0.00375113773           
       0.060785              0.0688369289             0.00375193958           
       0.061464              0.0667679367             0.00378419065           
       0.062143               0.061733723             0.00360177061           
       0.062822              0.0568959594             0.00341718933           
       0.063502              0.0583077509             0.00345314538           
       0.064181              0.0569004539             0.00337519715           
       0.064860              0.0571079667             0.00343284751           
       0.065539              0.0619227659             0.00353967757           
       0.066218              0.0542348036             0.00324173524           
       0.066897              0.0595440849             0.00342292631           
       0.067577              0.0456788687             0.00302683224           
       0.068256              0.0525592013             0.00332655249           
       0.068935              0.0432226068             0.00296787625           
       0.069614              0.0499061465             0.00322084087           
       0.070293              0.0466254906             0.00314188496           
       0.070972              0.0424180972             0.00297483323           
       0.071652              0.0464058612             0.00311723334           
       0.072331              0.0440470379             0.00298284917           
       0.073010              0.0423444143              0.0029914554           
       0.073689              0.0440952523             0.00303589882           
       0.074368              0.0433333414             0.00300408285           
       0.075047              0.0371676793             0.00275226522           
       0.075727               0.042496415             0.00292477863           
       0.076406              0.0390470799             0.00285950595           
       0.077085              0.0419349579              0.0029079816           
       0.077764              0.0405184118             0.00284842838           
       0.078443              0.0390020081             0.00281192138           
       0.079122              0.0377911577             0.00274133746           
       0.079802              0.0399928786             0.00284997177           
       0.080481              0.0421112481             0.00282582961           
       0.081160              0.0408764754             0.00284122206           
       0.081839               0.031777989              0.0024650318           
       0.082518              0.0368013451             0.00265495261           
       0.083197              0.0391987425             0.00269749104           
       0.083876              0.0371554087             0.00258260425           
       0.084556              0.0379660984             0.00268323146           
       0.085235               0.033547717             0.00247353908           
       0.085914              0.0351846036             0.00255777361           
       0.086593              0.0382219445             0.00264873176           
       0.087272              0.0341982199             0.00247002115           
       0.087951               0.029087674             0.00232945607           
       0.088631              0.0401743838             0.00264438423           
       0.089310              0.0384196653             0.00264083665           
       0.089989              0.0331786712             0.00242542059           
       0.090668              0.0342580543             0.00249176154           
       0.091347               0.034087155             0.00249945472           
       0.092026               0.036510722             0.00247254678           
       0.092706              0.0300153451             0.00232321966           
       0.093385              0.0308151912             0.00231782232           
       0.094064              0.0296512034             0.00230008691           
       0.094743              0.0301518306             0.00228407688           
       0.095422              0.0275568232             0.00215922744           
       0.096101              0.0273396394             0.00219499617           
       0.096781              0.0275851736             0.00217326108           
       0.097460              0.0313096281             0.00225217149           
       0.098139              0.0297221066             0.00217744744           
       0.098818              0.0347434048             0.00232521223           
       0.099497               0.027138276             0.00205924631           
       0.100176              0.0302936094             0.00211856715           
       0.100856              0.0281665917             0.00204152869           
       0.101535              0.0273962528             0.00200953472           
       0.102214              0.0254466433             0.00193672461           
       0.102893              0.0269828088             0.00197160328           
       0.103572              0.0287092653             0.00200365688           
       0.104251              0.0247023245             0.00186544587           
       0.104931               0.028642987             0.00199044851           
       0.105610              0.0273636854             0.00195378922           
       0.106289              0.0268708439             0.00190389457           
       0.106968              0.0281365655             0.00195400092           
       0.107647              0.0250201899             0.00184372057           
       0.108326              0.0278034187             0.00191756349           
       0.109005               0.024218247             0.00177840599           
       0.109685              0.0254028802              0.0018009516           
       0.110364              0.0249829163             0.00180628809           
       0.111043              0.0231045468             0.00173017011           
       0.111722              0.0243869399             0.00175581094           
       0.112401              0.0243225491             0.00175836758           
       0.113080              0.0262987482             0.00180745349           
       0.113760              0.0234983211             0.00173704868           
       0.114439              0.0208395674             0.00161248295           
       0.115118               0.021288242             0.00161746012           
       0.115797              0.0248084777             0.00176225424           
       0.116476              0.0252725647             0.00175203955           
       0.117155               0.021934758             0.00164541091           
       0.117835              0.0225303641             0.00163444916           
       0.118514              0.0217591476             0.00162659809           
       0.119193              0.0259916097             0.00177778418           
       0.119872              0.0194583488             0.00151897196           
       0.120551              0.0245444687             0.00169461494           
       0.121230              0.0230056388             0.00162412249           
       0.121910              0.0222383779             0.00161224252           
       0.122589              0.0237727503             0.00166865219           
       0.123268              0.0230430355             0.00161101523           
       0.123947              0.0242815373             0.00166443787           
       0.124626              0.0236048682             0.00162101678           
       0.125305              0.0203501054             0.00151250233           
       0.125985              0.0239086539             0.00162669916           
       0.126664              0.0213592056             0.00152287963           
       0.127343               0.024111752             0.00163678825           
       0.128022              0.0200144743             0.00147981127           
       0.128701               0.019025656             0.00143527731           
       0.129380               0.022161862             0.00152966186           
       0.130059              0.0200321079             0.00145768289           
       0.130739              0.0208421239             0.00149731821           
       0.131418              0.0211491917             0.00150408502           
       0.132097              0.0191248791             0.00141194924           
       0.132776              0.0188644908             0.00139597338           
       0.133455              0.0182451504             0.00138353253           
       0.134134              0.0197890333             0.00143629185           
       0.134814              0.0210222929             0.00146511727           
       0.135493              0.0212652646             0.00147952314           
       0.136172              0.0216653333             0.00148210199           
       0.136851              0.0198549345             0.00142707937           
       0.137530              0.0196979286             0.00138765503           
       0.138209              0.0201774545             0.00142093289           
       0.138889              0.0193691929             0.00139831917           
       0.139568              0.0213365889             0.00146698376           
       0.140247              0.0183887885             0.00136009692           
       0.140926              0.0193213115             0.00135429374           
       0.141605              0.0205525374             0.00143226387           
       0.142284              0.0214912257              0.0014403368           
       0.142964              0.0212780761             0.00143865797           
       0.143643              0.0199542027             0.00139142434           
       0.144322              0.0194799669             0.00134602256           
       0.145001               0.019730003              0.0013824389           
       0.145680              0.0204124832             0.00137287835           
       0.146359              0.0216977205             0.00142061675           
       0.147039              0.0196903126             0.00136444815           
       0.147718              0.0202390852             0.00136050452           
       0.148397              0.0197554622              0.0013650385           
       0.149076              0.0222234221               0.001402881           
       0.149755              0.0195800455             0.00133713958           
       0.150434              0.0228866897             0.00144623413           
       0.151114              0.0186446792             0.00129812281           
       0.151793              0.0175022252             0.00125773452           
       0.152472               0.019902484              0.0013175163           
       0.153151              0.0200217324              0.0013342331           
       0.153830              0.0193057842             0.00130061525           
       0.154509               0.019126458             0.00128915931           
       0.155188               0.019128231             0.00128874255           
       0.155868              0.0168910748             0.00120241913           
       0.156547              0.0181992528             0.00125613061           
       0.157226              0.0192113478             0.00125906401           
       0.157905              0.0199847035             0.00129494226           
       0.158584                 0.0189063             0.00125723107           
       0.159263              0.0182908836             0.00124114984           
       0.159943              0.0197685104             0.00129127169           
       0.160622              0.0206110966             0.00129305802           
       0.161301              0.0189220617             0.00125551524           
       0.161980              0.0162617085             0.00114412658           
       0.162659              0.0173125822             0.00119360074           
       0.163338               0.018699687             0.00123038509           
       0.164018               0.018111443             0.00120452271           
       0.164697              0.0173579555              0.0011943421           
       0.165376              0.0166688428             0.00114482258           
       0.166055              0.0188711534             0.00122613832           
       0.166734              0.0173808409             0.00117145558           
       0.167413              0.0165027405             0.00114227963           
       0.168093              0.0184709485             0.00121991008           
       0.168772              0.0154797143             0.00108411254           
       0.169451              0.0176337746             0.00117837417           
       0.170130              0.0191567554             0.00121208278           
       0.170809              0.0177127613             0.00117941492           
       0.171488              0.0156456829               0.001098357           
       0.172168              0.0152048509             0.00107237089           
       0.172847              0.0178335256             0.00117663096           
       0.173526              0.0179676252             0.00115851623           
       0.174205              0.0198875712              0.0012244561           
       0.174884              0.0184620185             0.00117360732           
       0.175563               0.019167543             0.00120092744           
       0.176243              0.0190321822             0.00120865547           
       0.176922              0.0180922603             0.00114772243           
       0.177601              0.0179994753             0.00115735647           
       0.178280              0.0176497793             0.00113326561           
       0.178959              0.0174246293             0.00113507104           
       0.179638              0.0171031319             0.00112131248           
       0.180317              0.0171959799             0.00111616114           
       0.180997              0.0193162038             0.00118939253           
       0.181676              0.0166799329             0.00109345078           
       0.182355              0.0165249804             0.00109489658           
       0.183034              0.0190653617             0.00115717362           
       0.183713              0.0195452349             0.00118591494           
       0.184392               0.017802533             0.00113146885           
       0.185072              0.0177952376             0.00111834471           
       0.185751              0.0174926064              0.0011118791           
       0.186430              0.0172867046             0.00109757418           
       0.187109              0.0159722642             0.00106677031           
       0.187788              0.0168533006             0.00109309559           
       0.188467              0.0171196639             0.00108866216           
       0.189147              0.0156021943             0.00104981868           
       0.189826              0.0160426762             0.00104570987           
       0.190505              0.0164294968             0.00107566194           
       0.191184               0.018155368             0.00111445229           
       0.191863              0.0149459057             0.00101329064           
       0.192542              0.0186403212              0.0011422888           
       0.193222              0.0158844984             0.00103084329           
       0.193901              0.0173864531             0.00109293373           
       0.194580              0.0163385581             0.00104095288           
       0.195259              0.0178701164               0.001101152           
       0.195938              0.0167982013             0.00107016441           
       0.196617              0.0167188007             0.00105272956           
       0.197297              0.0159303564             0.00103180273           
       0.197976              0.0168556763             0.00104504337           
       0.198655              0.0161228944             0.00103323885           
       0.199334              0.0158778663             0.00101631514           
       0.200013              0.0166979102             0.00104165167           
       0.200692              0.0167626876             0.00104994785           
       0.201371              0.0169105788             0.00104269259           
       0.202051              0.0149547326            0.000983591639           
       0.202730              0.0152727766            0.000984067779           
       0.203409              0.0168380453             0.00104020144           
       0.204088              0.0164019541             0.00102550735           
       0.204767              0.0161892759              0.0010134821           
       0.205446              0.0171327173             0.00104463198           
       0.206126              0.0170977819             0.00102938834           
       0.206805              0.0148380808            0.000976535013           
       0.207484              0.0162347177             0.00100309655           
       0.208163              0.0139733696            0.000936209068           
       0.208842              0.0162319623             0.00100630429           
       0.209521              0.0149566223            0.000957935414           
       0.210201              0.0146956631            0.000960137881           
       0.210880              0.0169347839             0.00101046654           
       0.211559              0.0157672813            0.000989428877           
       0.212238              0.0141932297             0.00093396636           
       0.212917              0.0148816777            0.000952796105           
       0.213596                0.01592043             0.00099131525           
       0.214276              0.0133042704            0.000887332644           
       0.214955              0.0153657417            0.000973656789           
       0.215634              0.0165397372             0.00100292779           
       0.216313              0.0150744508            0.000955461519           
       0.216992              0.0149297366            0.000950626131           
       0.217671              0.0162113431            0.000983878445           
       0.218351               0.016244285            0.000994509822           
       0.219030              0.0149550454            0.000939166826           
       0.219709              0.0149062291            0.000943481482           
       0.220388              0.0145716324            0.000931633945           
       0.221067               0.015668199             0.00096681842           
       0.221746              0.0136307778            0.000900846104           
       0.222426              0.0153292095            0.000941045652           
       0.223105               0.015468889            0.000958201935           
       0.223784              0.0156885535            0.000955409558           
       0.224463              0.0158139881            0.000966860253           
       0.225142              0.0147531165            0.000919090597           
       0.225821              0.0152576864            0.000938440237           
       0.226500               0.015879738            0.000963466464           
       0.227180              0.0155637439            0.000939137195           
       0.227859              0.0154766327            0.000940706611           
       0.228538              0.0164365014            0.000959704759           
       0.229217              0.0146603232            0.000913542715           
       0.229896              0.0159003519            0.000950936076           
       0.230575              0.0159907245            0.000938433074           
       0.231255              0.0151145542            0.000926021053           
       0.231934              0.0151351343            0.000920320427           
       0.232613              0.0148553834             0.00091513928           
       0.233292              0.0146575224            0.000900241559           
       0.233971              0.0148054768            0.000904351476           
       0.234650              0.0166924537            0.000971548934           
       0.235330              0.0146290578            0.000901578843           
       0.236009              0.0144018922            0.000892623203           
       0.236688              0.0141312732            0.000881032719           
       0.237367              0.0149959628            0.000908905823           
       0.238046              0.0143142642            0.000894260431           
       0.238725              0.0150113823            0.000901648787           
       0.239405              0.0156724825            0.000927002041           
       0.240084               0.015305352            0.000910246868           
       0.240763              0.0140180484            0.000879467965           
       0.241442              0.0147517184            0.000889476797           
       0.242121               0.013830015            0.000862866571           
       0.242800              0.0150673385            0.000904902478           
       0.243480              0.0151787143            0.000903988138           
       0.244159              0.0157513687            0.000921328439           
       0.244838              0.0146904955            0.000875120667           
       0.245517              0.0129863768            0.000834634551           
       0.246196              0.0149727811            0.000896629363           
       0.246875              0.0155913426            0.000902208485           
       0.247554               0.015225209            0.000900613255           
       0.248234              0.0138971959             0.00084739246           
       0.248913              0.0133056772             0.00083846301           
       0.249592              0.0138756662            0.000848097468           
       0.250271              0.0134485559            0.000832518269           
       0.250950              0.0147037164            0.000875833146           
       0.251629               0.012262838            0.000793042199           
       0.252309              0.0136962322            0.000839811645           
       0.252988              0.0147054616             0.00085521355           
       0.253667              0.0149637989            0.000872772373           
       0.254346               0.014946154            0.000872078149           
       0.255025              0.0142814737            0.000850598874           
       0.255704              0.0138284523            0.000833165743           
       0.256384              0.0136895761             0.00082610368           
       0.257063               0.012889906            0.000806182762           
       0.257742              0.0132454799             0.00081156416           
       0.258421              0.0139504842            0.000831279152           
       0.259100              0.0128474794            0.000799130848           
       0.259779              0.0112790743            0.000748130485           
       0.260459              0.0129755311            0.000803998466           
       0.261138              0.0126664966            0.000778842686           
       0.261817              0.0130943899            0.000807873602           
       0.262496              0.0133685267            0.000808280971           
       0.263175              0.0140045111            0.000829060771           
       0.263854              0.0138756568            0.000821403907           
       0.264534              0.0135814021            0.000805707021           
       0.265213              0.0126983056            0.000791349511           
       0.265892              0.0134347673            0.000803545544           
       0.266571              0.0117881158            0.000750980868           
       0.267250              0.0130771339            0.000792307828           
       0.267929               0.012608255            0.000777176402           
       0.268609              0.0133363939            0.000803679197           
       0.269288              0.0130704925            0.000782409839           
       0.269967              0.0130849985            0.000791278467           
       0.270646              0.0123332343            0.000764891017           
       0.271325              0.0122907141            0.000764846654           
       0.272004              0.0135905783            0.000796258087           
       0.272683              0.0112332595            0.000724809821           
       0.273363               0.012526266            0.000770270154           
       0.274042               0.011670375            0.000739102643           
       0.274721              0.0116082707            0.000736696413           
       0.275400               0.013018088            0.000774985103           
       0.276079              0.0110851946            0.000719201294           
       0.276758              0.0127056134             0.00077969177           
       0.277438              0.0123920683            0.000761367668           
       0.278117              0.0119923677            0.000762607589           
       0.278796              0.0131206754            0.000789579734           
       0.279475              0.0122268022             0.00077480076           
       0.280154              0.0113928009            0.000737151016           
       0.280833              0.0136638259            0.000812195257           
       0.281513              0.0127352946            0.000796414927           
       0.282192              0.0123119441            0.000769706356           
       0.282871              0.0124133129            0.000778269139           
       0.283550               0.010223908            0.000710093565           
       0.284229              0.0122570764            0.000788919736           
       0.284908              0.0106622279            0.000743567121           
       0.285588             0.00904307555            0.000676766175           
       0.286267              0.0101711735            0.000729230503           
       0.286946              0.0108750095            0.000749135969           
       0.287625             0.00980392229            0.000723399353           
       0.288304              0.0112948065            0.000766064761           
       0.288983              0.0116531407            0.000787975654           
       0.289663             0.00990700391            0.000730797278           
       0.290342              0.0101772081            0.000736753305           
       0.291021              0.0103064016            0.000745409239           
       0.291700              0.0104365729            0.000740302765           
       0.292379              0.0114981982            0.000794834686           
       0.293058              0.0102002748            0.000745803258           
       0.293738               0.010339429            0.000744567829           
       0.294417             0.00945685576            0.000720357624           
       0.295096              0.0102552953            0.000741904647           
       0.295775             0.00985109483            0.000738241819           
       0.296454             0.00958226381            0.000718681494           
       0.297133              0.0103339755            0.000749869887           
       0.297812             0.00990550719            0.000737841904           
       0.298492             0.00895894656            0.000703058914           
       0.299171              0.0109008499            0.000774053546           
       0.299850              0.0107876412            0.000764765485           
       0.300529               0.010114811            0.000748873854           
       0.301208             0.00965421905            0.000733405011           
       0.301887              0.0101219839             0.00075006989           
       0.302567             0.00826583282            0.000674421883           
       0.303246             0.00899843826            0.000708268822           
       0.303925              0.0103685142            0.000770040487           
       0.304604             0.00919925136            0.000709661345           
       0.305283              0.0105020686             0.00076949559           
       0.305962             0.00919234281            0.000715566862           
       0.306642             0.00934439405              0.0007312592           
       0.307321             0.00934733904            0.000729039001           
       0.308000             0.00956169993            0.000728611074           
       0.308679             0.00912281919            0.000727105228           
       0.309358             0.00959636718            0.000735650134           
       0.310037               0.010384451            0.000766966185           
       0.310717             0.00963002656              0.0007378705           
       0.311396             0.00976251776            0.000747911582           
       0.312075             0.00889609199            0.000723005669           
       0.312754             0.00942207344            0.000729187026           
       0.313433             0.00869961492            0.000706767331           
       0.314112             0.00932420607            0.000731530912           
       0.314792             0.00939764244            0.000739592159           
       0.315471             0.00859189535            0.000698430335           
       0.316150             0.00936898545            0.000736081246           
       0.316829             0.00858499303            0.000709263986           
       0.317508             0.00815969521            0.000683713326           
       0.318187             0.00915291159            0.000733682743           
       0.318866             0.00946832079            0.000736164669           
       0.319546             0.00993928331            0.000765557235           
       0.320225              0.0078799988            0.000681666099           
       0.320904              0.0088816904            0.000712506591           
       0.321583             0.00791613676            0.000687485202           
       0.322262             0.00912082503            0.000726760372           
       0.322941             0.00812268222            0.000694628498           
       0.323621             0.00818716864            0.000693124447           
       0.324300             0.00790680512            0.000681687174           
       0.324979             0.00715571095            0.000649673937           
       0.325658             0.00730669578            0.000657683174           
       0.326337             0.00858081058             0.00071365264           
       0.327016             0.00754686179            0.000665028032           
       0.327696             0.00764250543            0.000676671819           
       0.328375             0.00875368397            0.000718084176           
       0.329054             0.00897147802            0.000730905192           
       0.329733              0.0101053535            0.000778552568           
       0.330412             0.00805814022            0.000689535333           
       0.331091             0.00794051546             0.00069690043           
       0.331771             0.00841651195            0.000698683947           
       0.332450             0.00817104543            0.000701785861           
       0.333129             0.00736003255            0.000664329554           
       0.333808             0.00797842727            0.000692589623           
       0.334487             0.00694393534            0.000649193902           
       0.335166              0.0073945051            0.000660120405           
       0.335846             0.00644717499            0.000627218688           
       0.336525             0.00631198841            0.000614480685           
       0.337204             0.00780701392            0.000685180018           
       0.337883             0.00806747929            0.000697439334           
       0.338562             0.00558088725            0.000583300719           
       0.339241             0.00676050656            0.000643196311           
       0.339921             0.00637523017            0.000614125349           
       0.340600             0.00832819851            0.000715244862           
       0.341279             0.00679044346            0.000638929058           
       0.341958             0.00840178828            0.000720731934           
       0.342637             0.00563045238            0.000581675062           
       0.343316             0.00680972881            0.000641548179           
       0.343995             0.00791518456             0.00070298896           
       0.344675             0.00725648506            0.000660732301           
       0.345354             0.00760989209            0.000681093813           
       0.346033             0.00641097136            0.000623513724           
       0.346712             0.00589436762            0.000601679278           
       0.347391             0.00696769983            0.000658221299           
       0.348070             0.00567604939            0.000585650427           
       0.348750             0.00607974563            0.000614877374           
       0.349429              0.0072012484             0.00066055128           
       0.350108             0.00582880387            0.000601432973           
       0.350787             0.00677276462            0.000637292704           
       0.351466             0.00664710398            0.000642983194           
       0.352145             0.00647564383            0.000635162871           
       0.352825             0.00597956648            0.000607584736           
       0.353504             0.00622457468            0.000619755412           
       0.354183             0.00649684242            0.000625869882           
       0.354862              0.0059890386            0.000614876395           
       0.355541             0.00527948793            0.000569744138           
       0.356220             0.00604622783            0.000610865761           
       0.356900             0.00584184183            0.000606155531           
       0.357579             0.00545593504            0.000578609523           
       0.358258             0.00655759042            0.000643119844           
       0.358937             0.00625303943            0.000616201462           
       0.359616              0.0053703842            0.000579031889           
       0.360295             0.00605663033            0.000615427622           
       0.360975             0.00568582792            0.000593740878           
       0.361654             0.00552081232            0.000588077872           
       0.362333             0.00643445141            0.000631648094           
       0.363012             0.00572154731             0.00060329302           
       0.363691             0.00621794008            0.000616511149           
       0.364370             0.00556734844            0.000590604004           
       0.365050             0.00575394933            0.000597207204           
       0.365729             0.00473995475            0.000547205569           
       0.366408             0.00514243898            0.000571226749           
       0.367087             0.00521947653            0.000566259395           
       0.367766             0.00416359111            0.000516287851           
       0.368445             0.00541984095            0.000578590311           
       0.369124             0.00633318409            0.000630358046           
       0.369804             0.00525252063            0.000573145194           
       0.370483             0.00479201717            0.000549839608           
       0.371162             0.00503103832            0.000566651819           
       0.371841             0.00621338688            0.000618746457           
       0.372520             0.00449054732            0.000536558816           
       0.373199             0.00493740027            0.000555900347           
       0.373879             0.00539797486            0.000587979953           
       0.374558             0.00584625298            0.000602978498           
       0.375237             0.00492313892            0.000554236871           
       0.375916             0.00455446623            0.000543293309           
       0.376595             0.00535265411            0.000577468203           
       0.377274             0.00495557568            0.000564530259           
       0.377954             0.00417133719            0.000509801752           
       0.378633             0.00529780192            0.000581788907           
       0.379312             0.00403085678            0.000507348768           
       0.379991             0.00587616596            0.000609398374           
       0.380670             0.00446117552            0.000540365873           
       0.381349             0.00445479681            0.000532226215           
       0.382029             0.00446152725            0.000540259749           
       0.382708             0.00513643616            0.000567025846           
       0.383387             0.00479225816            0.000560111193           
       0.384066             0.00367089744            0.000485721188           
       0.384745             0.00447220765            0.000538227398           
       0.385424             0.00438301069            0.000534642691           
       0.386104             0.00409462306            0.000511043921           
       0.386783             0.00381519661            0.000503968405           
       0.387462             0.00398988455            0.000502555995           
       0.388141             0.00425511497            0.000527280304           
       0.388820             0.00496498438            0.000565449808           
       0.389499             0.00437737715            0.000533924824           
       0.390178             0.00416861305            0.000523112312           
       0.390858             0.00369751451             0.00048868119           
       0.391537             0.00357505077            0.000485427088           
       0.392216             0.00443765278            0.000534049642           
       0.392895             0.00512338194            0.000575763283           
       0.393574             0.00507849494             0.00057181463           
       0.394253             0.00449623547            0.000540457648           
       0.394933             0.00474001478            0.000561256824           
       0.395612             0.00412748244            0.000508525126           
       0.396291             0.00515575261            0.000579920819           
       0.396970             0.00359412015            0.000479903591           
       0.397649              0.0034843976            0.000473976306           
       0.398328             0.00390867256            0.000499797711           
       0.399008             0.00369584807            0.000484944236           
       0.399687             0.00366165415            0.000484572862           
       0.400366             0.00407029509            0.000508942951           
       0.401045             0.00405984335             0.00050732807           
       0.401724             0.00318261488            0.000449935868           
       0.402403             0.00330777549            0.000462272846           
       0.403083             0.00420301979            0.000513574123           
       0.403762             0.00430731918            0.000522471079           
       0.404441             0.00347795858            0.000472474303           
       0.405120              0.0047292563            0.000549143584           
       0.405799             0.00328722631            0.000455841092           
       0.406478             0.00360358206              0.0004772839           
       0.407158             0.00376317107             0.00048682259           
       0.407837             0.00429195272            0.000524490511           
       0.408516             0.00425836838            0.000517889545           
       0.409195             0.00424374804            0.000522864558           
       0.409874             0.00338236009            0.000473287591           
       0.410553             0.00346213879            0.000483986623           
       0.411233             0.00315922859            0.000459933952           
       0.411912              0.0026362591            0.000426097887           
       0.412591             0.00337237407            0.000485118704           
       0.413270             0.00299210111            0.000454778706           
       0.413949              0.0026578113            0.000433303032           
       0.414628             0.00320533558            0.000474991629           
       0.415307             0.00320881383            0.000480535722           
       0.415987             0.00350668492            0.000498205062           
       0.416666             0.00291280807            0.000451330668           
       0.417345             0.00374149296            0.000520060513           
       0.418024             0.00207400776            0.000387210981           
       0.418703              0.0030579754            0.000469311168           
       0.419382             0.00375226984            0.000517317878           
       0.420062             0.00334973476             0.00049015198           
       0.420741             0.00322050327            0.000483159918           
       0.421420             0.00295720254            0.000464743698           
       0.422099             0.00290397166            0.000460553883           
       0.422778             0.00308336337            0.000477135917           
       0.423457             0.00208575533            0.000394831271           
       0.424137             0.00279086168            0.000449275936           
       0.424816             0.00270278622            0.000451370055           
       0.425495             0.00329380062            0.000497811021           
       0.426174              0.0026920949            0.000450207864           
       0.426853             0.00310684476            0.000480708288           
       0.427532             0.00269971992            0.000451895053           
       0.428212             0.00252708994            0.000440094587           
       0.428891             0.00273846944            0.000457088925           
       0.429570              0.0033524134            0.000506083733           
       0.430249             0.00239902207            0.000425892512           
       0.430928             0.00300058284            0.000486721155           
       0.431607             0.00296073452             0.00047517117           
       0.432287             0.00161587349            0.000353608911           
       0.432966             0.00235523689            0.000430665598           
       0.433645             0.00362763745            0.000535042293           
       0.434324             0.00241451888            0.000433876034           
       0.435003             0.00203868043            0.000399361376           
       0.435682             0.00245801313            0.000442110642           
       0.436361             0.00205992024            0.000404187096           
       0.437041             0.00206364121            0.000404012097           
       0.437720             0.00176250016            0.000375173015           
       0.438399             0.00187061205            0.000388525258           
       0.439078             0.00284141253            0.000492730114           
       0.439757             0.00230825951            0.000441367702           
       0.440436             0.00206993983            0.000427381725           
       0.441116             0.00249155176            0.000476558457           
       0.441795              0.0025126807            0.000479151439           
       0.442474             0.00298087901            0.000523342055           
       0.443153             0.00142027074            0.000369670313           
       0.443832             0.00276841373            0.000516982596           
       0.444511             0.00207568531            0.000445635631           
       0.445191             0.00229990597            0.000480497577           
       0.445870             0.00158768666            0.000399236666           
       0.446549             0.00286008451            0.000541493379           
       0.447228             0.00211777557             0.00046332176           
       0.447907             0.00206739221            0.000463270237           
       0.448586             0.00196134922            0.000462089692           
       0.449266             0.00224415944            0.000489736468           
       0.449945             0.00223022322            0.000486222129           
       0.450624             0.00256857691            0.000530089759           
       0.451303             0.00225747035            0.000503393531           
       0.451982             0.00245653677            0.000521873372           
       0.452661             0.00175714662             0.00044959762           
       0.453341             0.00373065134            0.000657402921           
       0.454020             0.00200614232            0.000482815812           
       0.454699             0.00299567526            0.000595383086           
       0.455378             0.00274992603            0.000570745681           
       0.456057             0.00300013065            0.000606747578           
       0.456736             0.00126962039            0.000393476247           
       0.457416             0.00247495035            0.000549385451           
       0.458095              0.0018163157            0.000477451931           
       0.458774             0.00175174518            0.000475085067           
       0.459453             0.00175871753            0.000478430452           
       0.460132             0.00192809956            0.000490121423           
       0.460811             0.00168933168            0.000475888066           
       0.461490             0.00165471881            0.000466197416           
       0.462170             0.00251653603            0.000583894436           
       0.462849             0.00240713729            0.000574765762           
       0.463528             0.00298163069            0.000638203395           
       0.464207            0.000672515426            0.000308769472           
       0.464886             0.00176136846            0.000495807857           
       0.465565             0.00266283244            0.000616318186           
       0.466245            0.000834580637             0.00034610892           
       0.466924             0.00118228722             0.00042167678           
       0.467603             0.00255402063            0.000606623934           
       0.468282             0.00103764468            0.000395831125           
       0.468961             0.00288307427            0.000664136268           
       0.469640             0.00107113035            0.000406424183           
       0.470320            0.000765898964            0.000343909512           
       0.470999            0.000636613218            0.000316499708           
       0.471678             0.00159127322            0.000505198899           
       0.472357             0.00161228226            0.000509942601           
       0.473036             0.00147285776            0.000490471591           
       0.473715             0.00117226932            0.000440992652           
       0.474395             0.00104152335            0.000421419247           
       0.475074            0.000536128923            0.000302361945           
       0.475753             0.00151962559            0.000504657969           
       0.476432             0.00129201086            0.000482271747           
       0.477111             0.00125411956            0.000469401353           
       0.477790            0.000572642176            0.000318882569           
       0.478470            0.000595885656             0.00032959164           
       0.479149            0.000620604344            0.000339837324           
       0.479828             0.00207585115            0.000620066408           
       0.480507              0.0015476177            0.000539708548           
       0.481186            0.000670218858            0.000363175945           
       0.481865             0.00119254988              0.0004784488           
       0.482545            0.000462091811            0.000301323463           
       0.483224            8.38455083e-05             0.00012923084           
       0.483903            0.000698864396            0.000378974761           
       0.484582            0.000313625959            0.000258003417           
       0.485261             0.00106193512            0.000462725583           
       0.485940            0.000941780357            0.000453340869           
       0.486619            0.000528013622            0.000335713485           
       0.487299            0.000781486953            0.000414931024           
       0.487978            0.000332576948            0.000267925259           
       0.488657            0.000147447445             0.00018575804           
       0.489336            0.000134158928            0.000174083186           
       0.490015            0.000367912447             0.00029054871           
       0.490694           -8.25744451e-05                         0           
       0.491374            0.000393771264            0.000305133846           
       0.492053           -5.98997888e-05                         0           
       0.492732            0.000420655508             0.00032198254           
       0.493411           -0.000312068136                         0           
       0.494090           -0.000312087376                         0           
       0.494769           -0.000312106244                         0           
       0.495449           -5.35620112e-05                         0           
       0.496128            -4.7051648e-05                         0           
       0.496807           -0.000312163553                         0           
       0.497486           -4.95166862e-05                         0           
       0.498165           -0.000312202143                         0           
       0.498844           -0.000312221282                         0           
       0.499524           -0.000312240512                         0           
       0.500203           -0.000312260047                         0           
       0.500882           -0.000312279198                         0           
       0.501561           -0.000312298409                         0           
       0.502240           -1.73413967e-05                         0           
       0.502919           -6.93547858e-06                         0           
       0.503599           -0.000312356716                         0           
       0.504278           -0.000312376448                         0           
       0.504957           -0.000312395948                         0           
       0.505636            0.000325571786            0.000321671382           
       0.506315           -0.000312435018                         0           
       0.506994            -0.00031245436                         0           
       0.507673           -0.000312473663                         0           
       0.508353           -0.000312493372                         0           
       0.509032            4.58125964e-05            0.000127636632           
       0.509711           -0.000312532632                         0           
       0.510390           -0.000312552573                         0           
       0.511069            4.63263005e-05            0.000128167814           
       0.511748           -0.000312592246                         0           
       0.512428           -0.000312612183                         0           
       0.513107           -0.000312631813                         0           
       0.513786            8.16958083e-05            0.000179130199           
       0.514465           -0.000312671533                         0           
       0.515144           -0.000312691547                         0           
       0.515823            7.67074055e-05             0.00017301217           
       0.516503           -0.000312731397                         0           
       0.517182           -0.000312751413                         0           
       0.517861            0.000107318451            0.000211467841           
       0.518540            0.000125574278            0.000234676147           
       0.519219           -0.000312811424                         0           
       0.519898            -0.00031283159                         0           
       0.520578           -0.000312851876                         0           
       0.521257           -0.000312871901                         0           
       0.521936           -0.000312891974                         0           
       0.522615            0.000155953041            0.000270866533           
       0.523294           -0.000312932676                         0           
       0.523973           -0.000312952782                         0           
       0.524653            0.000192955304            0.000312840102           
       0.525332           -0.000312992997                         0           
       0.526011            0.000192964393            0.000312192884           
       0.526690             0.00016510775            0.000281023971           
       0.527369            0.000202450675            0.000324012846           
       0.528048           -0.000313075151                         0           
       0.528728            -0.00031309568                         0           
       0.529407           -0.000313116113                         0           
       0.530086            0.000200249926            0.000320872395           
       0.530765             0.00247427696             0.00117809069           
       0.531444             0.00069669026            0.000594642382           
       0.532123           -0.000313198316                         0           
       0.532802           -0.000313219086                         0           
       0.533482           -0.000313239784                         0           
       0.534161           -0.000313260516                         0           
       0.534840           -0.000313281071                         0           
       0.535519           -0.000313302006                         0           
       0.536198           -0.000313322724                         0           
       0.536877            0.000310734207            0.000441499918           
       0.537557           -0.000313363942                         0           
       0.538236           -0.000313384913                         0           
       0.538915           -0.000313405877                         0           
       0.539594           -0.000313426813                         0           
       0.540273            0.000884801392            0.000731562825           
       0.540952           -0.000313469102                         0           
       0.541632           -0.000313489744                         0           
       0.542311           -0.000313510575                         0           
       0.542990            -0.00031353164                         0           
       0.543669            -0.00031355288                         0           
       0.544348           -0.000313574095                         0           
       0.545027           -0.000313595265                         0           
       0.545707           -0.000313616498                         0           
       0.546386            0.000385915203            0.000519340613           
       0.547065           -0.000313658829                         0           
       0.547744           -0.000313679962                         0           
       0.548423            0.000393157041            0.000524243865           
       0.549102            0.000488846378            0.000627089525           
       0.549782           -0.000313743996                         0           
       0.550461           -0.000313765528                         0           
       0.551140           -0.000313787191                         0           
       0.551819           -0.000313808597                         0           
       0.552498           -0.000313830186                         0           
       0.553177           -0.000313851405                         0           
       0.553856            0.000566559502            0.000707490324           
       0.554536           -0.000313894064                         0           
       0.555215           -0.000313915755                         0           
       0.555894           -0.000313937394                         0           
       0.556573           -0.000313959162                         0           
       0.557252           -0.000313980912                         0           
       0.557931            0.000612406293            0.000758888904           
       0.558611           -0.000314024721                         0           
       0.559290           -0.000314046315                         0           
       0.559969           -0.000314067378                         0           
       0.560648           -0.000314088999                         0           
       0.561327           -0.000314111102                         0           
       0.562006           -0.000314133102                         0           
       0.562686           -0.000314155115                         0           
       0.563365           -0.000314177209                         0           
       0.564044           -0.000314199192                         0           
       0.564723            0.000789013353            0.000935736832           
       0.565402           -0.000314242651                         0           
       0.566081            -0.00031426432                         0           
       0.566761           -0.000314286221                         0           
       0.567440           -0.000314308568                         0           
       0.568119            0.000808678684            0.000961190793           
       0.568798            -0.00031435322                         0           
       0.569477           -0.000314375557                         0           
       0.570156           -0.000314398003                         0           
       0.570836           -0.000314420365                         0           
       0.571515           -0.000314442253                         0           
       0.572194           -0.000314464777                         0           
       0.572873           -0.000314486784                         0           
       0.573552           -0.000314508663                         0           
       0.574231           -0.000314530985                         0           
       0.574911            -0.00031455387                         0           
       0.575590           -0.000314576314                         0           
       0.576269           -0.000314598689                         0           
       0.576948           -0.000314621495                         0           
       0.577627           -0.000314643605                         0           
       0.578306           -0.000314666027                         0           
       0.578985           -0.000314688641                         0           
       0.579665           -0.000314711124                         0           
       0.580344           -0.000314733948                         0           
       0.581023           -0.000314756747                         0           
       0.581702           -0.000314779335                         0           
       0.582381           -0.000314801718                         0           
       0.583060           -0.000314824768                         0           
       0.583740           -0.000314847457                         0           
       0.584419           -0.000314870221                         0           
       0.585098           -0.000314892957                         0           
       0.585777           -0.000314915871                         0           
       0.586456           -0.000314939158                         0           
       0.587135           -0.000314961825                         0           
       0.587815           -0.000314984248                         0           
       0.588494            -0.00031500737                         0           
       0.589173           -0.000315031022                         0           
       0.589852           -0.000315053418                         0           
       0.590531           -0.000315076658                         0           
       0.591210           -0.000315099362                         0           
       0.591890           -0.000315122504                         0           
       0.592569           -0.000315144872                         0           
       0.593248           -0.000315169327                         0           
       0.593927           -0.000315192578                         0           
       0.594606           -0.000315216307                         0           
       0.595285           -0.000315238622                         0           
       0.595965           -0.000315259446                         0           
       0.596644           -0.000315280874                         0           
