################################################################################
# EDF_DataBlockID                     0.Image.Psd
# EDF_BinarySize                      4366944
# EDF_HeaderSize                      2560
# ByteOrder                           LowByteFirst
# DataType                            FloatValue
# Dim_1                               1028
# Dim_2                               1062
# Image                               0
# HeaderID                            EH:000000:000000:000000
# Size                                4366944
# Center_1                            607.5200
# Center_2                            651.5500
# Comment                             Xenocs_Cell_Window - 20251028_20perc_iodine_1.23mg
# DDummy                              0.6
# Date                                2025-10-30T01:14:12
# Delta                               0
# Dummy                               -1.5
# ExposureTime                        360
# Gamma                               0
# Intensity1                          8.44975e-10
# PSize_1                             7.5e-05
# PSize_2                             7.5e-05
# Pressure                            0.032588
# SampleDistance                      0.450002
# SampleEnvKind                       large
# SampleEnvPN                         ElectroChemical cell
# SampleEnvSN                         1141
# Thickness                           0
# Wavelength                          1.541891e-10
# Wavelength                          1.54189e-10
# aux                                 0
# aux_dial                            0.002375
# beamx                               588.434
# beamx_dial                          588.434
# beamz                               657.808
# beamz_dial                          657.808
# det0x                               0
# det0x_dial                          6.36945
# det0xvd                             0
# det0xvd_dial                        0
# det0y                               450.002
# det0y_dial                          481.635
# det0z                               0
# det0z_dial                          1.23302
# det0zvd                             0
# det0zvd_dial                        0
# mag                                 1.818
# mag_dial                            1.818
# om                                  0.2499
# om_dial                             -0.610199
# phi                                 -0.0120535
# phi_dial                            0
# ry                                  0.599993
# ry_dial                             0.599993
# s1bot                               0.8
# s1bot_dial                          -1.66094
# s1hl                                0.8
# s1hl_dial                           -0.608437
# s1hr                                0.8
# s1hr_dial                           0.970938
# s1top                               0.8
# s1top_dial                          -0.461562
# s2bot                               0.45
# s2bot_dial                          1.36109
# s2hl                                0.45
# s2hl_dial                           -0.83375
# s2hr                                0.45
# s2hr_dial                           -0.118594
# s2top                               0.45
# s2top_dial                          1.44734
# w2theta                             32
# w2theta_dial                        32
# waxsch                              19.2605
# waxsch_dial                         -32.7355
# waxsh                               137.085
# waxsh_dial                          -43.5338
# waxsth                              26.0607
# waxsth_dial                         -19.4086
# waxsz                               67.0407
# waxsz_dial                          -23.7954
# wind                                65.9854
# wind_dial                           66.0041
# wpsi                                124
# wpsi_dial                           124
# wstod                               115
# wstod_dial                          115
# x                                   0
# x_dial                              1.00969
# z                                   0
# z_dial                              13.3172
# CountCutoff                         15302352
# DetectorModel                       Dectris EIGER2 Si 1M, S/N E-02-0362
# ThresholdSetting                    4023.88989258
# Saturation                          0
# FlatField                           Corrected
# BackgroundReductionExtra            0.02
# BackgroundCorrectionConstant        0.0026712
# Detector                            0
# Monitor                             0
# Pil_Roi0                            0
# SumForIntensity1                    3.04191e+08
# TransmittedFlux                     844975
# det                                 0
# mon                                 0
# pilai0                              3.04191e+08
# pilai1                              769256
# pilct0                              5.27185e+08
# pilct1                              769256
# pilroi0                             0
# pilroi1                             0
# sec                                 1
# title                               20251028_20perc_iodine_1.23mg_0_00317.edf
# usaxs0                              0
# Operation                           Azimuthal average I(q)
# Error_model                         ErrorModel.poisson
# Geometrical_correction              True
# Transmission_correction             True
# Thickness_correction                False
# Binning mode                        Uniform
# Binning factor                      1.0
# Psi                                 0.0
# Omega                               0.2499
# MaskInvalidPixels                   True
# DetectorEdge                        3
# MaskFiles                           ['20251028_20perc_iodine_1.23mg_0_00012_mask.edf']
################################################################################
    q(A⁻¹)                Intensity(a.u.)            Sigma_I(a.u.)            
       0.000340                372414.545                121.208394           
       0.001019                359349.414                72.9110743           
       0.001698                349854.813                50.8702639           
       0.002377                330973.809                 44.254957           
       0.003056                308116.259                 36.087639           
       0.003735                  253370.9                28.8607348           
       0.004415                204988.236                25.9593366           
       0.005094                153401.676                19.4479992           
       0.005773                101520.438                14.6474954           
       0.006452                59203.5331                10.7174066           
       0.007131                32425.3892                7.68363827           
       0.007810                16213.1901                5.39192014           
       0.008490                8096.34749                3.37742976           
       0.009169                3900.72262                2.31688752           
       0.009848                 1196.1069                1.24043206           
       0.010527                460.653441               0.769795569           
       0.011206                115.451228               0.367807885           
       0.011885                53.7377207               0.233146792           
       0.012564                25.1120336               0.163629851           
       0.013244                 16.709535               0.124785392           
       0.013923                12.4079972               0.109265252           
       0.014602                9.40092488              0.0882066737           
       0.015281                7.49957667               0.080197975           
       0.015960                6.15037744              0.0721060724           
       0.016639                4.96387191              0.0611710394           
       0.017319                4.13654556              0.0549727243           
       0.017998                3.41975697              0.0478186531           
       0.018677                3.00913086              0.0464585235           
       0.019356                2.59920077              0.0426642273           
       0.020035                2.13661814              0.0362911462           
       0.020714                1.86056498              0.0342240881           
       0.021394                1.57899841              0.0298311615           
       0.022073                1.43663429              0.0296047768           
       0.022752                1.27336008              0.0266623127           
       0.023431                1.13134768              0.0243948157           
       0.024110               0.997923806              0.0238866308           
       0.024789               0.891670432              0.0209695247           
       0.025469               0.800992067              0.0204810672           
       0.026148               0.726572497              0.0183279076           
       0.026827               0.664179764              0.0178037337           
       0.027506               0.610396774              0.0173138007           
       0.028185               0.552547329              0.0157093188           
       0.028864                 0.5261899              0.0152440433           
       0.029544               0.469932681              0.0139698746           
       0.030223               0.436688397              0.0136597849           
       0.030902                0.41943581              0.0135097407           
       0.031581                0.39449421              0.0124547956           
       0.032260               0.351259076              0.0119527455           
       0.032939               0.315260734              0.0109185265           
       0.033619               0.290599308              0.0106368404           
       0.034298               0.262547471             0.00983907916           
       0.034977               0.248362214              0.0093815266           
       0.035656               0.227417955             0.00921483729           
       0.036335               0.222538203             0.00884083337           
       0.037014               0.212890839             0.00867287165           
       0.037693                 0.1872324             0.00782427418           
       0.038373               0.181471465             0.00777855387           
       0.039052               0.164884165             0.00744608579           
       0.039731               0.166225043             0.00730206965           
       0.040410               0.162801665             0.00717803579           
       0.041089               0.160316904             0.00701147031           
       0.041768               0.139437424             0.00657312951           
       0.042448               0.128454204             0.00625998958           
       0.043127               0.129996541             0.00614872604           
       0.043806               0.121556855             0.00599011496           
       0.044485               0.116928509             0.00575427826           
       0.045164               0.111258729             0.00572366217           
       0.045843               0.118712703             0.00567060072           
       0.046523               0.113967924             0.00557530829           
       0.047202               0.101604762             0.00530101247           
       0.047881              0.0965364269             0.00506746243           
       0.048560              0.0988526246             0.00517463341           
       0.049239              0.0870841209             0.00466345549           
       0.049918              0.0854557447             0.00470995829           
       0.050598                0.09641544             0.00492781684           
       0.051277              0.0883077414             0.00470110945           
       0.051956              0.0829847421             0.00452860337           
       0.052635              0.0787565814             0.00431810056           
       0.053314               0.082224817             0.00454115348           
       0.053993              0.0766189644             0.00426338935           
       0.054673              0.0741147003             0.00409973252           
       0.055352              0.0764472849             0.00422490679           
       0.056031               0.066374241             0.00385401602           
       0.056710              0.0704089025             0.00406669474           
       0.057389               0.075510344             0.00406114176           
       0.058068              0.0650148036             0.00380719384           
       0.058748              0.0712678236             0.00403579913           
       0.059427              0.0646610891             0.00377909969           
       0.060106              0.0584835732             0.00362806367           
       0.060785              0.0579296729             0.00350265275           
       0.061464              0.0576494349             0.00357839279           
       0.062143              0.0632240357             0.00370934626           
       0.062822              0.0585388408              0.0035273767           
       0.063502              0.0516690587             0.00330802243           
       0.064181              0.0504748767              0.0032350453           
       0.064860              0.0520754937             0.00333598673           
       0.065539              0.0534114718              0.0033454709           
       0.066218              0.0529110523             0.00325846574           
       0.066897              0.0555376469             0.00336413509           
       0.067577              0.0491081548             0.00319380901           
       0.068256               0.051733359             0.00335858848           
       0.068935              0.0422244526             0.00298520237           
       0.069614              0.0406965993             0.00295987086           
       0.070293              0.0483201914              0.0032549502           
       0.070972              0.0443656979             0.00309607979           
       0.071652              0.0363044825             0.00280585015           
       0.072331              0.0450062464             0.00306839163           
       0.073010              0.0439843838             0.00310266707           
       0.073689              0.0443727727             0.00309921078           
       0.074368              0.0410399599             0.00297512854           
       0.075047              0.0367648745             0.00278564363           
       0.075727              0.0350832148             0.00270438176           
       0.076406              0.0368986994             0.00282880953           
       0.077085              0.0366059274             0.00276490815           
       0.077764              0.0398169202             0.00287352104           
       0.078443              0.0373771626             0.00280133023           
       0.079122              0.0413397099             0.00291778017           
       0.079802              0.0391247728             0.00286864358           
       0.080481              0.0304393442             0.00244492766           
       0.081160              0.0342249149             0.00264570306           
       0.081839              0.0395961664             0.00280018899           
       0.082518              0.0309377805             0.00247725639           
       0.083197              0.0367795973             0.00265906456           
       0.083876              0.0362928207             0.00259751853           
       0.084556              0.0345681665              0.0026055522           
       0.085235              0.0351116628             0.00257522062           
       0.085914              0.0347192714              0.0025856666           
       0.086593              0.0266881582             0.00225238354           
       0.087272              0.0280666909             0.00227717277           
       0.087951               0.031746201             0.00247655149           
       0.088631               0.033720383             0.00246545823           
       0.089310               0.032330046             0.00246529766           
       0.089989              0.0277522469             0.00225739778           
       0.090668              0.0291336072             0.00233842645           
       0.091347              0.0313514615             0.00243938442           
       0.092026              0.0282366019             0.00221279904           
       0.092706              0.0296468017             0.00234968141           
       0.093385              0.0357498912             0.00254060134           
       0.094064              0.0275521796             0.00225632948           
       0.094743              0.0277640221             0.00223047069           
       0.095422              0.0274947557             0.00219487707           
       0.096101              0.0266527719             0.00220551502           
       0.096781              0.0294493403             0.00228514246           
       0.097460              0.0255750018              0.0020714373           
       0.098139              0.0250209027             0.00203310976           
       0.098818              0.0293419366             0.00217456429           
       0.099497              0.0278795634             0.00212403469           
       0.100176              0.0252422524             0.00196803233           
       0.100856              0.0250544328             0.00195944049           
       0.101535              0.0223642042             0.00184768575           
       0.102214              0.0261471794             0.00199786665           
       0.102893              0.0265885559             0.00199170393           
       0.103572              0.0229500825             0.00182308069           
       0.104251              0.0264330171             0.00196376069           
       0.104931              0.0258143666             0.00192297653           
       0.105610              0.0256011611             0.00192318781           
       0.106289              0.0224157741             0.00176962223           
       0.106968              0.0223795018             0.00177343748           
       0.107647              0.0226836576             0.00178651964           
       0.108326              0.0253735028             0.00186419921           
       0.109005              0.0216948662             0.00171292955           
       0.109685              0.0214511745              0.0016841763           
       0.110364              0.0212664715             0.00169595617           
       0.111043              0.0259176118             0.00186482903           
       0.111722              0.0267210018             0.00187036737           
       0.112401              0.0212133598             0.00167113412           
       0.113080              0.0213567157             0.00165755626           
       0.113760              0.0240806663             0.00178948999           
       0.114439              0.0241742231             0.00176737414           
       0.115118              0.0210369117             0.00163627437           
       0.115797              0.0217250273             0.00167822477           
       0.116476              0.0192767731              0.0015571766           
       0.117155              0.0238837377             0.00174727213           
       0.117835              0.0201445156              0.0015727771           
       0.118514              0.0215403806             0.00164697671           
       0.119193              0.0239124069             0.00173530392           
       0.119872               0.021139129             0.00161117147           
       0.120551              0.0192857439             0.00152867042           
       0.121230              0.0239888953             0.00168775036           
       0.121910              0.0220547596             0.00163392242           
       0.122589              0.0225405397               0.001653521           
       0.123268               0.019706847             0.00151614182           
       0.123947              0.0197323834             0.00152693561           
       0.124626              0.0190290979             0.00148114397           
       0.125305              0.0200061074             0.00152614386           
       0.125985               0.022556181             0.00160791808           
       0.126664              0.0192147586             0.00146991408           
       0.127343               0.020958921             0.00155297344           
       0.128022               0.020490036             0.00152372661           
       0.128701              0.0219815978              0.0015699907           
       0.129380              0.0198798757             0.00147435002           
       0.130059              0.0200647975             0.00148463117           
       0.130739              0.0175807008             0.00139946701           
       0.131418              0.0174839272             0.00139170263           
       0.132097              0.0188549467             0.00142670388           
       0.132776              0.0187906164             0.00141783782           
       0.133455              0.0178852666             0.00139400655           
       0.134134              0.0200579853             0.00147155167           
       0.134814               0.016781851             0.00133215184           
       0.135493              0.0191628316             0.00142928113           
       0.136172              0.0200241099             0.00145001824           
       0.136851              0.0192268187             0.00142912122           
       0.137530              0.0186034786             0.00137236542           
       0.138209              0.0187196971             0.00139280796           
       0.138889              0.0179476852             0.00136979704           
       0.139568              0.0195072479             0.00142745447           
       0.140247              0.0193602249             0.00142020145           
       0.140926              0.0177707341             0.00132174813           
       0.141605              0.0178758894             0.00135933218           
       0.142284              0.0228295089             0.00151071729           
       0.142964              0.0187870516             0.00137569496           
       0.143643              0.0197564926             0.00140896038           
       0.144322              0.0192993569             0.00136342453           
       0.145001               0.021010064             0.00145176897           
       0.145680              0.0172726169             0.00128518207           
       0.146359              0.0202644124             0.00139713488           
       0.147039              0.0163139741             0.00126389812           
       0.147718              0.0192657417             0.00135082431           
       0.148397              0.0191076131             0.00136617387           
       0.149076              0.0170853802             0.00125178327           
       0.149755               0.018212364              0.0013123646           
       0.150434              0.0202952709             0.00138594499           
       0.151114              0.0165924985             0.00124622273           
       0.151793              0.0191458351             0.00133869289           
       0.152472              0.0171953264             0.00124626104           
       0.153151              0.0174418125             0.00126729624           
       0.153830              0.0178306708             0.00127200966           
       0.154509              0.0165710061              0.0012211393           
       0.155188              0.0204558523             0.00135624768           
       0.155868              0.0169627509             0.00122624382           
       0.156547              0.0188669273             0.00130154761           
       0.157226              0.0170253576             0.00120619762           
       0.157905              0.0176555275             0.00123863501           
       0.158584              0.0194948215             0.00129919075           
       0.159263              0.0166788676             0.00120612301           
       0.159943              0.0169688316             0.00121746947           
       0.160622              0.0178038092             0.00122299697           
       0.161301              0.0162173007              0.0011828468           
       0.161980              0.0185089401             0.00124217624           
       0.162659              0.0157006619             0.00115674755           
       0.163338              0.0176230261             0.00121552973           
       0.164018              0.0187395004             0.00124686353           
       0.164697              0.0162832483             0.00117720319           
       0.165376              0.0158047541             0.00113443806           
       0.166055              0.0178079903             0.00121212986           
       0.166734              0.0175660076             0.00119847345           
       0.167413              0.0161159655               0.001148746           
       0.168093              0.0161906283             0.00116229541           
       0.168772              0.0177536696             0.00118151276           
       0.169451              0.0175291608             0.00119561839           
       0.170130              0.0162733963             0.00113687275           
       0.170809              0.0162452468             0.00114944473           
       0.171488               0.017716921             0.00118943807           
       0.172168              0.0176093205             0.00117442879           
       0.172847              0.0168769411             0.00116484996           
       0.173526              0.0168534974             0.00114183475           
       0.174205              0.0178809952              0.0011815433           
       0.174884              0.0169947897             0.00114588905           
       0.175563              0.0165038882             0.00113403938           
       0.176243               0.017869333             0.00119182874           
       0.176922              0.0159530887             0.00109676681           
       0.177601              0.0176312407             0.00116568206           
       0.178280              0.0176615776             0.00115366116           
       0.178959              0.0154264873             0.00108686661           
       0.179638              0.0168090562             0.00113125875           
       0.180317              0.0163382002             0.00110717684           
       0.180997              0.0155190794             0.00108492258           
       0.181676              0.0148107501             0.00104855706           
       0.182355              0.0165831231             0.00111618771           
       0.183034              0.0166983393             0.00110208247           
       0.183713              0.0169656348             0.00112439681           
       0.184392              0.0177692487             0.00115037037           
       0.185072               0.017487867             0.00112821966           
       0.185751              0.0160583007             0.00108413047           
       0.186430              0.0185699629             0.00115766991           
       0.187109              0.0163859509             0.00109957525           
       0.187788              0.0180314359             0.00115062092           
       0.188467              0.0172982801             0.00111364924           
       0.189147               0.015418585             0.00106205051           
       0.189826              0.0159693928             0.00106174067           
       0.190505              0.0161998696             0.00108697833           
       0.191184              0.0166020017             0.00108452766           
       0.191863              0.0177487244             0.00112371955           
       0.192542              0.0160615723             0.00107905779           
       0.193222              0.0156051285             0.00103977896           
       0.193901              0.0165019285             0.00108357041           
       0.194580              0.0143053226             0.00099123012           
       0.195259               0.014137998            0.000996733351           
       0.195938              0.0150649111             0.00103134473           
       0.196617              0.0173832474             0.00109239867           
       0.197297              0.0181565661             0.00112099128           
       0.197976               0.017653505             0.00108837398           
       0.198655              0.0133830777            0.000957984929           
       0.199334              0.0150243673             0.00100607851           
       0.200013              0.0186306269              0.0011197128           
       0.200692              0.0145795257            0.000996481069           
       0.201371              0.0146083493            0.000986231971           
       0.202051              0.0162141814             0.00104225616           
       0.202730              0.0156401452             0.00101341623           
       0.203409              0.0161178967             0.00103568396           
       0.204088              0.0156697043             0.00102005323           
       0.204767              0.0155810104              0.0010118162           
       0.205446              0.0145769277            0.000980583647           
       0.206126              0.0159188769             0.00101080417           
       0.206805              0.0164494972             0.00104634938           
       0.207484              0.0148394921            0.000975958468           
       0.208163              0.0160366659             0.00102065922           
       0.208842              0.0162987814             0.00102617831           
       0.209521              0.0170702286             0.00104145519           
       0.210201              0.0141004663            0.000957099747           
       0.210880              0.0154794785            0.000983131753           
       0.211559              0.0156720789             0.00100385487           
       0.212238              0.0144385302            0.000958635625           
       0.212917              0.0160350879             0.00100649391           
       0.213596               0.015775247             0.00100420858           
       0.214276               0.015173803            0.000964360915           
       0.214955              0.0142397846            0.000953854857           
       0.215634              0.0138567913            0.000934196326           
       0.216313              0.0169158469             0.00103000842           
       0.216992              0.0144613547             0.00095211546           
       0.217671              0.0150766665            0.000965575117           
       0.218351              0.0148074392            0.000966273809           
       0.219030              0.0157375746            0.000980435954           
       0.219709              0.0161254278            0.000998634489           
       0.220388              0.0158817204            0.000989786271           
       0.221067              0.0139983628            0.000929983946           
       0.221746              0.0141027781            0.000932489768           
       0.222426              0.0146788144            0.000937125502           
       0.223105              0.0145417433            0.000945446963           
       0.223784              0.0136620433             0.00090731358           
       0.224463               0.015823025            0.000984213261           
       0.225142              0.0149208097            0.000940619732           
       0.225821               0.014739378            0.000938649191           
       0.226500              0.0143798973            0.000933027147           
       0.227180              0.0158156872            0.000963424063           
       0.227859              0.0129427716            0.000875449413           
       0.228538              0.0146987977            0.000923581697           
       0.229217               0.015014631            0.000940840212           
       0.229896              0.0146443651            0.000928719752           
       0.230575              0.0149575853            0.000923637234           
       0.231255              0.0165936287            0.000987405006           
       0.231934              0.0148476904            0.000927634361           
       0.232613              0.0145020862            0.000920157052           
       0.233292              0.0156021915            0.000945198512           
       0.233971              0.0134084298            0.000875823244           
       0.234650              0.0145971833            0.000924571653           
       0.235330              0.0137776131              0.0008903976           
       0.236009              0.0142850598            0.000904692267           
       0.236688              0.0136074477             0.00087981463           
       0.237367              0.0141748452            0.000899274596           
       0.238046               0.015345857            0.000942272524           
       0.238725               0.013798665            0.000879725232           
       0.239405              0.0145299194            0.000908332488           
       0.240084              0.0140249889            0.000886727644           
       0.240763              0.0128188168            0.000855857914           
       0.241442              0.0153892085             0.00092453405           
       0.242121              0.0141652502            0.000888681001           
       0.242800              0.0146386739            0.000907686397           
       0.243480              0.0151518548            0.000919135608           
       0.244159              0.0141905578             0.00088993137           
       0.244838              0.0128412381            0.000832634918           
       0.245517               0.014555704            0.000899229237           
       0.246196              0.0142204793            0.000889242659           
       0.246875              0.0139956405            0.000869887304           
       0.247554              0.0133585463            0.000858494973           
       0.248234              0.0154054092            0.000907944029           
       0.248913              0.0140425437            0.000876576374           
       0.249592              0.0145941921             0.00088513666           
       0.250271              0.0127358569            0.000824463597           
       0.250950              0.0144331765            0.000883060037           
       0.251629              0.0149254346            0.000890360218           
       0.252309              0.0139108728            0.000861310974           
       0.252988              0.0148723268            0.000875237981           
       0.253667              0.0135388457            0.000844835843           
       0.254346               0.015158693            0.000893764314           
       0.255025              0.0130881846            0.000828665868           
       0.255704              0.0138617684            0.000848897765           
       0.256384              0.0116026662            0.000773962481           
       0.257063              0.0128352205            0.000818675421           
       0.257742              0.0129539155             0.00081675348           
       0.258421              0.0127018734            0.000807211964           
       0.259100              0.0118192648            0.000780019777           
       0.259779              0.0122093486            0.000792115159           
       0.260459              0.0131364017            0.000823251085           
       0.261138              0.0137659676            0.000826278236           
       0.261817              0.0128354597            0.000813969159           
       0.262496               0.013330983            0.000821397017           
       0.263175              0.0123730045            0.000793033305           
       0.263854              0.0122540121            0.000785544144           
       0.264534              0.0106130573            0.000724813964           
       0.265213               0.013524768            0.000831116329           
       0.265892              0.0125266975            0.000789614602           
       0.266571              0.0122088824             0.00077776086           
       0.267250              0.0130805372             0.00080640257           
       0.267929              0.0133199319            0.000812913937           
       0.268609              0.0130009073            0.000807517241           
       0.269288              0.0127246496            0.000785620299           
       0.269967               0.010667095            0.000727054625           
       0.270646              0.0120534185            0.000769515975           
       0.271325              0.0130161401            0.000800992357           
       0.272004              0.0129475407             0.00079091531           
       0.272683              0.0116284679            0.000750470934           
       0.273363              0.0130647318            0.000800541701           
       0.274042              0.0129156305            0.000791264368           
       0.274721              0.0124957978            0.000777836358           
       0.275400              0.0122353773            0.000764592244           
       0.276079              0.0120044009            0.000761641321           
       0.276758              0.0119958479             0.00077097813           
       0.277438              0.0116219082            0.000750347956           
       0.278117              0.0122680384            0.000784942185           
       0.278796               0.010985703            0.000735247025           
       0.279475              0.0115081696            0.000764959027           
       0.280154                0.01097051            0.000736132644           
       0.280833              0.0116209075             0.00076224707           
       0.281513              0.0115243251            0.000770981747           
       0.282192              0.0104041101            0.000720055012           
       0.282871              0.0123099575            0.000788706989           
       0.283550              0.0122163239            0.000789912223           
       0.284229              0.0108501814            0.000755369292           
       0.284908                0.01052583            0.000751840689           
       0.285588              0.0103658915            0.000737369801           
       0.286267              0.0115748654            0.000791660038           
       0.286946              0.0115857358            0.000786881056           
       0.287625              0.0113738663              0.0007929279           
       0.288304             0.00997970358            0.000732801519           
       0.288983              0.0101874157            0.000749764325           
       0.289663              0.0100998357            0.000750903903           
       0.290342              0.0107141006            0.000769284669           
       0.291021              0.0102179153            0.000755307576           
       0.291700              0.0107956619            0.000766225333           
       0.292379              0.0104801053            0.000772229153           
       0.293058              0.0106765508            0.000776488949           
       0.293738               0.011268184            0.000791014436           
       0.294417               0.010189716            0.000760952007           
       0.295096              0.0113410191            0.000793965256           
       0.295775             0.00907389881            0.000721032452           
       0.296454             0.00976144722            0.000738177763           
       0.297133              0.0102698216            0.000760737985           
       0.297812             0.00979832569            0.000746796624           
       0.298492              0.0104659758            0.000773311666           
       0.299171              0.0103207311            0.000766474145           
       0.299850             0.00910671488            0.000715068019           
       0.300529             0.00931851556            0.000731483615           
       0.301208              0.0109805631            0.000795974323           
       0.301887              0.0100823277             0.00076181719           
       0.302567              0.0104324053            0.000771049079           
       0.303246             0.00948755099             0.00074010454           
       0.303925              0.0113781548            0.000820904562           
       0.304604             0.00986607118            0.000747908523           
       0.305283             0.00966060602            0.000751056049           
       0.305962             0.00993118732             0.00075690113           
       0.306642             0.00920317957             0.00073852665           
       0.307321             0.00884360667            0.000721643869           
       0.308000             0.00903528365            0.000720776405           
       0.308679             0.00878994935            0.000726318945           
       0.309358             0.00888520126             0.00072036562           
       0.310037             0.00881570134            0.000719141471           
       0.310717             0.00966099267            0.000752105448           
       0.311396             0.00864060051            0.000716049023           
       0.312075             0.00861400571            0.000724012561           
       0.312754             0.00936821094            0.000739938243           
       0.313433             0.00848673649             0.00071039233           
       0.314112             0.00928231106            0.000742773264           
       0.314792             0.00829741145            0.000707221746           
       0.315471              0.0088458885            0.000721191813           
       0.316150             0.00799816111            0.000692111392           
       0.316829              0.0085135744             0.00071877896           
       0.317508              0.0082642188            0.000700227935           
       0.318187             0.00765606672            0.000682862051           
       0.318866             0.00879771218            0.000722145678           
       0.319546              0.0104798854            0.000799981328           
       0.320225             0.00797082077            0.000697688549           
       0.320904             0.00879762046            0.000721647539           
       0.321583               0.007896603            0.000698760449           
       0.322262             0.00753861674            0.000672390334           
       0.322941             0.00785179174             0.00069500624           
       0.323621             0.00818448572            0.000705247409           
       0.324300              0.0080024071             0.00069790511           
       0.324979             0.00901135958            0.000741934664           
       0.325658             0.00923661169            0.000752513013           
       0.326337               0.008087236            0.000705057002           
       0.327016             0.00834731595            0.000711756812           
       0.327696             0.00867573054            0.000733693535           
       0.328375             0.00759979069            0.000680898211           
       0.329054             0.00843418703            0.000721194016           
       0.329733             0.00620348839            0.000620771296           
       0.330412             0.00864113611            0.000726651193           
       0.331091             0.00721847694            0.000676192928           
       0.331771              0.0069349669            0.000645413941           
       0.332450             0.00722657192            0.000671635154           
       0.333129             0.00637812046            0.000629348958           
       0.333808             0.00770973264            0.000692848765           
       0.334487             0.00821266964            0.000718480899           
       0.335166             0.00601868325            0.000606067224           
       0.335846             0.00699896393            0.000665047386           
       0.336525             0.00746116552            0.000679876344           
       0.337204             0.00659052645            0.000640654261           
       0.337883             0.00706291347            0.000664096059           
       0.338562             0.00755571708            0.000690685255           
       0.339241             0.00612548862            0.000623054084           
       0.339921             0.00703149426            0.000656348286           
       0.340600             0.00653326334            0.000644682301           
       0.341279               0.006706222            0.000646165828           
       0.341958             0.00608473137            0.000624180297           
       0.342637             0.00714193073            0.000666680986           
       0.343316             0.00731343487            0.000676591473           
       0.343995             0.00580637477            0.000612733982           
       0.344675             0.00678705943             0.00065028639           
       0.345354              0.0059200294            0.000611337548           
       0.346033             0.00777629668            0.000698830678           
       0.346712             0.00699077735            0.000666823095           
       0.347391              0.0066954551            0.000656626973           
       0.348070             0.00730986437            0.000676349999           
       0.348750             0.00636506095            0.000640248462           
       0.349429             0.00607412303             0.00061737052           
       0.350108             0.00557663557            0.000598666695           
       0.350787             0.00653094712            0.000636862228           
       0.351466              0.0048366396             0.00055815742           
       0.352145             0.00594810616            0.000619490191           
       0.352825             0.00701490282            0.000669706152           
       0.353504             0.00575094383            0.000606228713           
       0.354183              0.0057884399            0.000601194645           
       0.354862             0.00504472236            0.000574287486           
       0.355541             0.00629884656            0.000633309398           
       0.356220             0.00503664598            0.000567382185           
       0.356900             0.00559866463             0.00060388307           
       0.357579             0.00450285505            0.000534929339           
       0.358258             0.00542264996            0.000595150777           
       0.358937             0.00502230043            0.000561991747           
       0.359616             0.00678954552            0.000662554502           
       0.360295             0.00517869794            0.000579126174           
       0.360975             0.00532197293            0.000584571823           
       0.361654             0.00499875353            0.000569463196           
       0.362333             0.00519438939            0.000577548063           
       0.363012             0.00585289621            0.000620952555           
       0.363691             0.00493106512            0.000558713919           
       0.364370             0.00589287039            0.000618353869           
       0.365050             0.00462597309            0.000544935404           
       0.365729             0.00509477081            0.000577334073           
       0.366408             0.00538813093            0.000595037704           
       0.367087             0.00521109432            0.000575794969           
       0.367766             0.00478593593            0.000563303906           
       0.368445             0.00478436607            0.000553211933           
       0.369124             0.00565006734            0.000605904963           
       0.369804             0.00595447229            0.000621017536           
       0.370483             0.00476618187            0.000558037773           
       0.371162             0.00594923805            0.000627075165           
       0.371841             0.00471774479            0.000548677564           
       0.372520             0.00625746367            0.000644567372           
       0.373199             0.00486305806            0.000561440784           
       0.373879             0.00477101797            0.000562540855           
       0.374558             0.00513690886            0.000575195404           
       0.375237             0.00375114848            0.000492331869           
       0.375916             0.00617901759            0.000643986528           
       0.376595             0.00400126761            0.000508093615           
       0.377274             0.00447587912            0.000545985106           
       0.377954             0.00515446015             0.00057670899           
       0.378633             0.00477094401            0.000561851043           
       0.379312             0.00404095433            0.000516953345           
       0.379991             0.00437697059            0.000535232568           
       0.380670             0.00475621739            0.000567800223           
       0.381349             0.00468244574             0.00055529037           
       0.382029             0.00441512987            0.000546932879           
       0.382708             0.00421390591            0.000522655804           
       0.383387             0.00394487959            0.000517157084           
       0.384066             0.00498098969            0.000575784802           
       0.384745             0.00477533811            0.000565989452           
       0.385424             0.00493247528            0.000577180009           
       0.386104             0.00443145939            0.000541035924           
       0.386783             0.00429044881            0.000543873206           
       0.387462             0.00386123329             0.00050311674           
       0.388141             0.00426996157            0.000537525826           
       0.388820             0.00441202435            0.000542444763           
       0.389499             0.00520728597            0.000592625449           
       0.390178             0.00504610406            0.000585704692           
       0.390858              0.0047492372            0.000563616972           
       0.391537             0.00445152875             0.00055123774           
       0.392216             0.00499201139            0.000576426856           
       0.392895             0.00470422862            0.000561450227           
       0.393574              0.0038053699              0.0005037182           
       0.394253             0.00398039439            0.000517489626           
       0.394933             0.00304777396            0.000457999091           
       0.395612             0.00441419575            0.000535176514           
       0.396291             0.00413194661            0.000528325373           
       0.396970             0.00379090095            0.000501568641           
       0.397649             0.00453857907            0.000550496022           
       0.398328              0.0039230355            0.000509556317           
       0.399008             0.00466756208            0.000554601769           
       0.399687             0.00379876115            0.000502276517           
       0.400366              0.0042887895            0.000531648966           
       0.401045             0.00453283864            0.000545532761           
       0.401724             0.00329873113            0.000466158366           
       0.402403             0.00382349344            0.000505780403           
       0.403083             0.00410061876            0.000516236331           
       0.403762             0.00406676273             0.00051663592           
       0.404441             0.00466057517             0.00055659231           
       0.405120             0.00429623591            0.000532641501           
       0.405799             0.00360192711            0.000485587594           
       0.406478             0.00373078441            0.000494209519           
       0.407158             0.00371571213            0.000492284571           
       0.407837             0.00344881625            0.000478461119           
       0.408516              0.0033688769            0.000468769722           
       0.409195             0.00377255851            0.000501688163           
       0.409874             0.00301920422            0.000455053957           
       0.410553             0.00310321419            0.000466303259           
       0.411233             0.00312704652             0.00046566497           
       0.411912              0.0028738042            0.000452736359           
       0.412591             0.00227636491            0.000405604293           
       0.413270             0.00303389806            0.000466030064           
       0.413949             0.00354749834            0.000509439024           
       0.414628             0.00324705936             0.00048651448           
       0.415307             0.00369652167            0.000524869695           
       0.415987             0.00434937598            0.000564643965           
       0.416666             0.00380131966            0.000524695764           
       0.417345             0.00363597282            0.000521726842           
       0.418024             0.00272859814            0.000451974277           
       0.418703             0.00406973054            0.000550970284           
       0.419382             0.00269981199            0.000446558818           
       0.420062              0.0026497841            0.000443641586           
       0.420741             0.00251976681            0.000434921278           
       0.421420             0.00186907594            0.000376000047           
       0.422099             0.00284007875            0.000463501245           
       0.422778             0.00341227494            0.000510802738           
       0.423457             0.00284663202            0.000469404208           
       0.424137             0.00304553753            0.000477614422           
       0.424816             0.00239827096            0.000432690612           
       0.425495             0.00295208619            0.000479602924           
       0.426174             0.00263760503            0.000453496801           
       0.426853             0.00137349859            0.000325265046           
       0.427532             0.00232131973            0.000426429426           
       0.428212             0.00276114915            0.000468146805           
       0.428891             0.00284817867            0.000474385949           
       0.429570             0.00165212308            0.000361548235           
       0.430249             0.00240814622            0.000434235937           
       0.430928             0.00326404152            0.000516602737           
       0.431607             0.00291475002            0.000479791399           
       0.432287             0.00279472964            0.000473250276           
       0.432966             0.00236819519            0.000439473897           
       0.433645             0.00220480675            0.000424485532           
       0.434324             0.00200806747            0.000402662293           
       0.435003             0.00250339787            0.000450357993           
       0.435682             0.00246715535            0.000450752944           
       0.436361             0.00189304025            0.000394310751           
       0.437041             0.00269707792            0.000470029886           
       0.437720             0.00149592308            0.000351741081           
       0.438399             0.00192339281            0.000400924725           
       0.439078             0.00232955579            0.000454025213           
       0.439757             0.00263774946            0.000480149474           
       0.440436             0.00141028469            0.000358997922           
       0.441116             0.00248330137            0.000484169459           
       0.441795             0.00193818124            0.000428255343           
       0.442474             0.00224461587            0.000462153161           
       0.443153             0.00326348598            0.000570257929           
       0.443832             0.00266385525            0.000516080191           
       0.444511             0.00205340806            0.000451064072           
       0.445191             0.00237222764            0.000496610384           
       0.445870             0.00195901761            0.000451303441           
       0.446549             0.00137024659            0.000381420943           
       0.447228             0.00187976048            0.000444217273           
       0.447907             0.00192826007            0.000455310032           
       0.448586             0.00216318341            0.000493852141           
       0.449266             0.00210501198            0.000482685585           
       0.449945             0.00142473075            0.000395483534           
       0.450624             0.00161379671             0.00042759143           
       0.451303             0.00176198759            0.000452584293           
       0.451982             0.00218622176             0.00050101654           
       0.452661             0.00275770614            0.000573185833           
       0.453341             0.00232190425            0.000527792123           
       0.454020             0.00293005112            0.000593799279           
       0.454699             0.00380100125            0.000682495176           
       0.455378             0.00259313798            0.000564022454           
       0.456057             0.00233188767            0.000544368809           
       0.456736             0.00131311914            0.000407225622           
       0.457416             0.00244984758            0.000556243429           
       0.458095             0.00136745483            0.000421591585           
       0.458774             0.00100437352            0.000366087578           
       0.459453             0.00194683996            0.000512256346           
       0.460132              0.0016051826            0.000455095596           
       0.460811              0.0024395851            0.000581978297           
       0.461490             0.00143790659            0.000442256831           
       0.462170             0.00205199767            0.000536565377           
       0.462849             0.00222710598            0.000562616357           
       0.463528             0.00165885235            0.000484437221           
       0.464207            0.000996181689            0.000382431766           
       0.464886             0.00255871504            0.000608135997           
       0.465565               0.000407376            0.000245319593           
       0.466245             0.00219125474            0.000570724514           
       0.466924             0.00137988676            0.000463597799           
       0.467603             0.00145668413            0.000466220632           
       0.468282             0.00108045853            0.000411046648           
       0.468961             0.00173528873            0.000524344368           
       0.469640             0.00191187515            0.000552572918           
       0.470320            0.000957558443            0.000391329461           
       0.470999               0.001604778            0.000511380805           
       0.471678             0.00117282735            0.000441375797           
       0.472357            0.000675699844             0.00033595346           
       0.473036             0.00187152531            0.000562642791           
       0.473715             0.00139344379            0.000489287176           
       0.474395             0.00143442982             0.00050329309           
       0.475074              0.0024786347            0.000661607206           
       0.475753             0.00157760749            0.000523274738           
       0.476432             0.00152159608            0.000532610693           
       0.477111            0.000408464765            0.000272617429           
       0.477790             0.00169456165            0.000558237817           
       0.478470            0.000626123275            0.000343816012           
       0.479149            0.000820383308            0.000397624861           
       0.479828             0.00175993692            0.000581018692           
       0.480507            0.000843147512            0.000405397147           
       0.481186            0.000690812148            0.000375223638           
       0.481865            0.000863614821            0.000414341743           
       0.482545            0.000272071059            0.000235294318           
       0.483224             0.00109699337            0.000475696241           
       0.483903           -0.000114464419                         0           
       0.484582            0.000108636595             0.00015452864           
       0.485261            0.000490451687            0.000320017766           
       0.485940             0.00123727074             0.00052879079           
       0.486619           -0.000101239856                         0           
       0.487299            0.000136881238            0.000176721121           
       0.487978            0.000329940491            0.000271573162           
       0.488657           -8.55365815e-05                         0           
       0.489336            0.000139829169             0.00018086202           
       0.490015            0.000371616487            0.000297163627           
       0.490694            0.000181355631            0.000213335051           
       0.491374           -0.000323126831                         0           
       0.492053           -8.20349333e-05                         0           
       0.492732           -0.000323166051                         0           
       0.493411           -0.000323185847                         0           
       0.494090           -0.000323205772                         0           
       0.494769           -0.000323225312                         0           
       0.495449           -6.11889794e-05                         0           
       0.496128            -4.8871393e-05                         0           
       0.496807           -0.000323284662                         0           
       0.497486           -0.000323304501                         0           
       0.498165           -0.000323324627                         0           
       0.498844           -3.76887143e-05                         0           
       0.499524           -0.000323364363                         0           
       0.500203           -0.000323384595                         0           
       0.500882           -0.000323404427                         0           
       0.501561           -1.80477714e-05                         0           
       0.502240           -0.000323444484                         0           
       0.502919           -0.000323464555                         0           
       0.503599           -2.09400019e-05                         0           
       0.504278           -0.000323505142                         0           
       0.504957           -0.000323525337                         0           
       0.505636           -0.000323545402                         0           
       0.506315           -0.000323565798                         0           
       0.506994            1.83476929e-05            7.93496317e-05           
       0.507673            -0.00032360582                         0           
       0.508353           -0.000323626232                         0           
       0.509032           -0.000323646557                         0           
       0.509711            -0.00032366689                         0           
       0.510390           -0.000323687542                         0           
       0.511069           -0.000323708127                         0           
       0.511748           -0.000323728628                         0           
       0.512428           -0.000323749275                         0           
       0.513107           -0.000323769605                         0           
       0.513786           -0.000323789999                         0           
       0.514465            -0.00032381074                         0           
       0.515144           -0.000323831467                         0           
       0.515823           -0.000323852006                         0           
       0.516503           -0.000323872737                         0           
       0.517182            0.000104914454            0.000212017802           
       0.517861           -0.000323914144                         0           
       0.518540            0.000599004699            0.000521597103           
       0.519219           -0.000323955615                         0           
       0.519898           -0.000323976499                         0           
       0.520578           -0.000323997508                         0           
       0.521257           -0.000324018246                         0           
       0.521936           -0.000324039034                         0           
       0.522615           -0.000324060071                         0           
       0.523294           -0.000324081186                         0           
       0.523973           -0.000324102009                         0           
       0.524653           -0.000324122682                         0           
       0.525332           -0.000324143656                         0           
       0.526011           -0.000324165007                         0           
       0.526690            0.000178229098            0.000297132662           
       0.527369           -0.000324207452                         0           
       0.528048           -0.000324228737                         0           
       0.528728           -0.000324249997                         0           
       0.529407           -0.000324271159                         0           
       0.530086           -0.000324292211                         0           
       0.530765           -0.000324313293                         0           
       0.531444            0.000198245903             0.00032280448           
       0.532123           -0.000324356289                         0           
       0.532802           -0.000324377799                         0           
       0.533482           -0.000324399236                         0           
       0.534161           -0.000324420706                         0           
       0.534840           -0.000324441993                         0           
       0.535519           -0.000324463674                         0           
       0.536198            -0.00032448513                         0           
       0.536877           -0.000324506291                         0           
       0.537557           -0.000324527816                         0           
       0.538236           -0.000324549535                         0           
       0.538915           -0.000324571246                         0           
       0.539594           -0.000324592927                         0           
       0.540273           -0.000324614948                         0           
       0.540952           -0.000324636723                         0           
       0.541632             -0.0003246581                         0           
       0.542311             0.00225414717             0.00120722035           
       0.542990           -0.000324701488                         0           
       0.543669           -0.000324723485                         0           
       0.544348           -0.000324745457                         0           
       0.545027            -0.00032476738                         0           
       0.545707            -0.00032478937                         0           
       0.546386           -0.000324811422                         0           
       0.547065           -0.000324833209                         0           
       0.547744           -0.000324855095                         0           
       0.548423             0.00039189778            0.000532645402           
       0.549102           -0.000324899372                         0           
       0.549782            -0.00032492141                         0           
       0.550461            -0.00032494371                         0           
       0.551140           -0.000324966144                         0           
       0.551819           -0.000324988313                         0           
       0.552498           -0.000325010671                         0           
       0.553177           -0.000325032646                         0           
       0.553856           -0.000325054699                         0           
       0.554536           -0.000325076825                         0           
       0.555215           -0.000325099288                         0           
       0.555894           -0.000325121698                         0           
       0.556573           -0.000325144242                         0           
       0.557252           -0.000325166767                         0           
       0.557931           -0.000325189189                         0           
       0.558611           -0.000325212136                         0           
       0.559290           -0.000325234499                         0           
       0.559969           -0.000325256312                         0           
       0.560648           -0.000325278704                         0           
       0.561327           -0.000325301594                         0           
       0.562006           -0.000325324379                         0           
       0.562686           -0.000325347176                         0           
       0.563365           -0.000325370057                         0           
       0.564044           -0.000325392823                         0           
       0.564723           -0.000325415538                         0           
       0.565402            -0.00032543783                         0           
       0.566081           -0.000325460271                         0           
       0.566761           -0.000325482953                         0           
       0.567440           -0.000325506096                         0           
       0.568119           -0.000325529056                         0           
       0.568798           -0.000325552338                         0           
       0.569477           -0.000325575472                         0           
       0.570156           -0.000325598717                         0           
       0.570836           -0.000325621875                         0           
       0.571515           -0.000325644544                         0           
       0.572194           -0.000325667869                         0           
       0.572873           -0.000325690661                         0           
       0.573552           -0.000325713319                         0           
       0.574231           -0.000325736436                         0           
       0.574911           -0.000325760136                         0           
       0.575590            -0.00032578338                         0           
       0.576269           -0.000325806553                         0           
       0.576948           -0.000325830171                         0           
       0.577627           -0.000325853069                         0           
       0.578306            -0.00032587629                         0           
       0.578985           -0.000325899709                         0           
       0.579665           -0.000325922993                         0           
       0.580344            -0.00032594663                         0           
       0.581023           -0.000325970241                         0           
       0.581702           -0.000325993634                         0           
       0.582381           -0.000326016814                         0           
       0.583060           -0.000326040686                         0           
       0.583740           -0.000326064183                         0           
       0.584419             0.00281218503             0.00296690527           
       0.585098           -0.000326111304                         0           
       0.585777           -0.000326135035                         0           
       0.586456           -0.000326159151                         0           
       0.587135           -0.000326182626                         0           
       0.587815           -0.000326205848                         0           
       0.588494           -0.000326229793                         0           
       0.589173           -0.000326254288                         0           
       0.589852           -0.000326277481                         0           
       0.590531           -0.000326301549                         0           
       0.591210           -0.000326325062                         0           
       0.591890           -0.000326349029                         0           
       0.592569           -0.000326372194                         0           
       0.593248            -0.00032639752                         0           
       0.593927           -0.000326421599                         0           
       0.594606           -0.000326446173                         0           
       0.595285           -0.000326469284                         0           
       0.595965           -0.000326490849                         0           
       0.596644           -0.000326513041                         0           
