################################################################################
# EDF_DataBlockID                     0.Image.Psd
# EDF_BinarySize                      4366944
# EDF_HeaderSize                      2560
# ByteOrder                           LowByteFirst
# DataType                            FloatValue
# Dim_1                               1028
# Dim_2                               1062
# Image                               0
# HeaderID                            EH:000000:000000:000000
# Size                                4366944
# Center_1                            607.5200
# Center_2                            651.5500
# Comment                             Xenocs_Cell_Window - 20251028_20perc_iodine_1.23mg
# DDummy                              0.6
# Date                                2025-11-01T21:14:18
# Delta                               0
# Dummy                               -1.5
# ExposureTime                        360
# Gamma                               0
# Intensity1                          8.82142e-10
# PSize_1                             7.5e-05
# PSize_2                             7.5e-05
# Pressure                            0.0326891
# SampleDistance                      0.450002
# SampleEnvKind                       large
# SampleEnvPN                         ElectroChemical cell
# SampleEnvSN                         1141
# Thickness                           0
# Wavelength                          1.541891e-10
# Wavelength                          1.54189e-10
# aux                                 0
# aux_dial                            0.002375
# beamx                               588.434
# beamx_dial                          588.434
# beamz                               657.808
# beamz_dial                          657.808
# det0x                               0
# det0x_dial                          6.36945
# det0xvd                             0
# det0xvd_dial                        0
# det0y                               450.002
# det0y_dial                          481.635
# det0z                               0
# det0z_dial                          1.23302
# det0zvd                             0
# det0zvd_dial                        0
# mag                                 1.818
# mag_dial                            1.818
# om                                  0.2499
# om_dial                             -0.610199
# phi                                 -0.0120535
# phi_dial                            0
# ry                                  0.599993
# ry_dial                             0.599993
# s1bot                               0.8
# s1bot_dial                          -1.66094
# s1hl                                0.8
# s1hl_dial                           -0.608437
# s1hr                                0.8
# s1hr_dial                           0.970938
# s1top                               0.8
# s1top_dial                          -0.461562
# s2bot                               0.45
# s2bot_dial                          1.36109
# s2hl                                0.45
# s2hl_dial                           -0.83375
# s2hr                                0.45
# s2hr_dial                           -0.118594
# s2top                               0.45
# s2top_dial                          1.44734
# w2theta                             32
# w2theta_dial                        32
# waxsch                              19.2605
# waxsch_dial                         -32.7355
# waxsh                               137.085
# waxsh_dial                          -43.5338
# waxsth                              26.0607
# waxsth_dial                         -19.4086
# waxsz                               67.0407
# waxsz_dial                          -23.7954
# wind                                65.9854
# wind_dial                           66.0041
# wpsi                                124
# wpsi_dial                           124
# wstod                               115
# wstod_dial                          115
# x                                   0
# x_dial                              1.00969
# z                                   0
# z_dial                              13.3172
# CountCutoff                         15302352
# DetectorModel                       Dectris EIGER2 Si 1M, S/N E-02-0362
# ThresholdSetting                    4023.88989258
# Saturation                          0
# FlatField                           Corrected
# BackgroundReductionExtra            0.02
# BackgroundCorrectionConstant        0.0026712
# Detector                            0
# Monitor                             0
# Pil_Roi0                            0
# SumForIntensity1                    3.17571e+08
# TransmittedFlux                     882142
# det                                 0
# mon                                 0
# pilai0                              3.17571e+08
# pilai1                              794709
# pilct0                              5.47722e+08
# pilct1                              794709
# pilroi0                             0
# pilroi1                             0
# sec                                 1
# title                               20251028_20perc_iodine_1.23mg_0_00935.edf
# usaxs0                              0
# Operation                           Azimuthal average I(q)
# Error_model                         ErrorModel.poisson
# Geometrical_correction              True
# Transmission_correction             True
# Thickness_correction                False
# Binning mode                        Uniform
# Binning factor                      1.0
# Psi                                 0.0
# Omega                               0.2499
# MaskInvalidPixels                   True
# DetectorEdge                        3
# MaskFiles                           ['20251028_20perc_iodine_1.23mg_0_00012_mask.edf']
################################################################################
    q(A⁻¹)                Intensity(a.u.)            Sigma_I(a.u.)            
       0.000340                372260.535                118.602968           
       0.001019                359565.009                71.3799793           
       0.001698                350060.804                49.8017366           
       0.002377                331040.512                 43.316999           
       0.003056                307432.062                35.2799873           
       0.003735                253755.152                28.2676126           
       0.004415                204254.632                25.3610808           
       0.005094                 151693.97                18.9276508           
       0.005773                99386.7394                 14.184157           
       0.006452                57583.7811                10.3447182           
       0.007131                32138.2921                 7.4866648           
       0.007810                16303.4825                 5.2917837           
       0.008490                8287.99333                3.34440706           
       0.009169                4041.01452                2.30797075           
       0.009848                1258.11156                1.24508856           
       0.010527                492.181965               0.778760249           
       0.011206                  122.7822               0.371229211           
       0.011885                 56.311342               0.233582576           
       0.012564                  25.20373               0.160437794           
       0.013244                16.9952534               0.123168051           
       0.013923                12.4169835               0.106977381           
       0.014602                 9.3204551              0.0859582159           
       0.015281                7.54344669              0.0787195531           
       0.015960                6.08344509              0.0701856671           
       0.016639                5.01443976              0.0601726954           
       0.017319                4.04834856              0.0532255285           
       0.017998                3.40015454              0.0466661235           
       0.018677                2.89800794              0.0446218253           
       0.019356                2.49021893              0.0408710144           
       0.020035                2.15342177               0.035657793           
       0.020714                1.87644703              0.0336380102           
       0.021394                 1.6132635              0.0295110492           
       0.022073                1.42904098               0.028897728           
       0.022752                1.25006059              0.0258547543           
       0.023431                1.11237587              0.0236743442           
       0.024110               0.979044748              0.0231558196           
       0.024789               0.881081319              0.0204007945           
       0.025469               0.782249709              0.0198090596           
       0.026148               0.740096424              0.0181038208           
       0.026827               0.663357034              0.0174138428           
       0.027506                0.61964707              0.0170730526           
       0.028185               0.568941715              0.0156012422           
       0.028864               0.552379806              0.0152862337           
       0.029544               0.456050986                0.01346896           
       0.030223               0.437076238               0.013374862           
       0.030902               0.381133088              0.0126039093           
       0.031581                0.37031314              0.0118100988           
       0.032260                0.35203876              0.0117112113           
       0.032939               0.314089273              0.0106661656           
       0.033619               0.283946242               0.010290491           
       0.034298               0.256467272             0.00951741903           
       0.034977               0.239628692             0.00901888484           
       0.035656               0.242623253             0.00931524297           
       0.036335               0.230317946             0.00880252945           
       0.037014               0.203226061             0.00829328925           
       0.037693               0.200989243             0.00793400822           
       0.038373                0.18672207             0.00772227384           
       0.039052               0.162510697             0.00723489475           
       0.039731               0.169108917             0.00720831368           
       0.040410               0.159034053             0.00694342809           
       0.041089               0.144864128             0.00652307767           
       0.041768               0.128806118             0.00618305968           
       0.042448               0.123070111             0.00599692235           
       0.043127               0.121492222             0.00581763088           
       0.043806               0.118234072             0.00578188477           
       0.044485               0.112599841             0.00552652604           
       0.045164               0.117363996             0.00575343313           
       0.045843               0.110792164             0.00536151683           
       0.046523              0.0940705318             0.00495743521           
       0.047202               0.101230153             0.00517856486           
       0.047881               0.105461036             0.00518374494           
       0.048560              0.0944886166             0.00495139885           
       0.049239              0.0893850038             0.00462405895           
       0.049918               0.084801623             0.00459199273           
       0.050598              0.0885919787             0.00462307719           
       0.051277              0.0992109847             0.00487678415           
       0.051956              0.0820489265             0.00440711408           
       0.052635              0.0886887455             0.00448472957           
       0.053314              0.0775816512             0.00431714774           
       0.053993              0.0756541483             0.00414625407           
       0.054673               0.075355035             0.00404587222           
       0.055352              0.0761679101             0.00412738327           
       0.056031               0.071720851             0.00392093036           
       0.056710              0.0690215011             0.00394069359           
       0.057389              0.0649661079             0.00368672743           
       0.058068              0.0655387468             0.00374111112           
       0.058748              0.0638102319             0.00373749513           
       0.059427              0.0652981837             0.00371680752           
       0.060106              0.0670116976              0.0038008956           
       0.060785              0.0609574384             0.00351651585           
       0.061464               0.059703196             0.00356403494           
       0.062143               0.060960489             0.00356478358           
       0.062822              0.0557894695             0.00337022254           
       0.063502              0.0545571526             0.00332683834           
       0.064181              0.0605625699              0.0034681475           
       0.064860              0.0589545936             0.00347391446           
       0.065539               0.051602653             0.00321831596           
       0.066218              0.0558627296             0.00327682853           
       0.066897              0.0510586475             0.00315694505           
       0.067577              0.0525470494             0.00323339662           
       0.068256              0.0501623425             0.00323677894           
       0.068935              0.0430972964             0.00295168125           
       0.069614               0.043510909             0.00299533541           
       0.070293              0.0506543523             0.00326167803           
       0.070972               0.043314961             0.00299405745           
       0.071652              0.0387329077             0.00283646271           
       0.072331              0.0432604578             0.00294423606           
       0.073010              0.0446226365             0.00305855443           
       0.073689              0.0450182741             0.00305520201           
       0.074368              0.0442431107             0.00302327586           
       0.075047              0.0390840594             0.00281100439           
       0.075727              0.0435592502             0.00294924726           
       0.076406              0.0366063365             0.00275758552           
       0.077085              0.0392804684             0.00280314789           
       0.077764              0.0433441875             0.00293426047           
       0.078443              0.0384777494             0.00278175356           
       0.079122              0.0341288843             0.00259467269           
       0.079802              0.0391326536             0.00280784421           
       0.080481              0.0340947021              0.0025324711           
       0.081160              0.0378264844             0.00272220345           
       0.081839              0.0345728682             0.00256083242           
       0.082518              0.0389420406             0.00272012218           
       0.083197              0.0297897128             0.00234213128           
       0.083876              0.0401252964             0.00267306857           
       0.084556               0.036696519             0.00262740317           
       0.085235              0.0318882915             0.00240191176           
       0.085914              0.0341461118             0.00250963483           
       0.086593              0.0346421103             0.00251152724           
       0.087272              0.0327452761              0.0024072843           
       0.087951              0.0331961025             0.00247855014           
       0.088631              0.0322945214             0.00236139427           
       0.089310              0.0338414824             0.00246855935           
       0.089989              0.0307541733             0.00232575373           
       0.090668              0.0321969491             0.00240595015           
       0.091347              0.0285513903             0.00227833541           
       0.092026              0.0338332572             0.00237061126           
       0.092706              0.0314366405             0.00236804963           
       0.093385              0.0291540914             0.00224544072           
       0.094064              0.0306685479             0.00232982781           
       0.094743              0.0319047321             0.00234010616           
       0.095422              0.0285127837             0.00218754884           
       0.096101              0.0331629242             0.00240778619           
       0.096781              0.0276924169             0.00216874557           
       0.097460              0.0297818657             0.00218772427           
       0.098139              0.0290586185              0.0021443689           
       0.098818              0.0268746305             0.00203681599           
       0.099497              0.0295414954             0.00213987074           
       0.100176              0.0272323042             0.00200061283           
       0.100856              0.0280921777             0.00203065046           
       0.101535               0.022733418              0.0018232089           
       0.102214              0.0271398675             0.00199209761           
       0.102893              0.0247768631              0.0018817124           
       0.103572              0.0282184518             0.00197848625           
       0.104251              0.0267258909             0.00193256437           
       0.104931              0.0270775344             0.00192752706           
       0.105610              0.0273097687             0.00194403267           
       0.106289              0.0242666336             0.00180202636           
       0.106968              0.0275329661             0.00192517341           
       0.107647              0.0233511842              0.0017740195           
       0.108326              0.0278599452             0.00191181082           
       0.109005              0.0250225878             0.00180044478           
       0.109685              0.0239153387             0.00174041558           
       0.110364               0.026853507             0.00186517717           
       0.111043              0.0259830852             0.00182742503           
       0.111722                0.02759817             0.00186034449           
       0.112401              0.0215582684             0.00164879323           
       0.113080              0.0248833002             0.00175108696           
       0.113760              0.0256252503             0.00180668219           
       0.114439              0.0237715879             0.00171527599           
       0.115118              0.0235366222             0.00169390826           
       0.115797              0.0247507972             0.00175314257           
       0.116476              0.0220292348             0.00162919507           
       0.117155              0.0247616429             0.00174121264           
       0.117835              0.0195362326             0.00151586963           
       0.118514              0.0246042627              0.0017227356           
       0.119193              0.0250578497             0.00173855519           
       0.119872              0.0223270805             0.00162056654           
       0.120551              0.0216810611             0.00158631201           
       0.121230              0.0219397418             0.00157968873           
       0.121910               0.022517836             0.00161583226           
       0.122589              0.0232232792             0.00164263856           
       0.123268              0.0217876871             0.00156023314           
       0.123947              0.0221763002             0.00158426628           
       0.124626              0.0247319108             0.00165260739           
       0.125305              0.0239355795             0.00163376214           
       0.125985              0.0209628306             0.00151708102           
       0.126664              0.0213152072             0.00151520691           
       0.127343              0.0207970504             0.00151402525           
       0.128022              0.0232093675             0.00158715749           
       0.128701              0.0208183376             0.00149535103           
       0.129380              0.0233038684              0.0015622857           
       0.130059              0.0196448349             0.00143773238           
       0.130739              0.0239642148              0.0015991119           
       0.131418              0.0219531542              0.0015262585           
       0.132097              0.0225154708             0.00152585893           
       0.132776              0.0194360776             0.00141127951           
       0.133455              0.0210902607             0.00148153106           
       0.134134              0.0209896719             0.00147328703           
       0.134814              0.0195101029             0.00140577643           
       0.135493              0.0205072249             0.00144708469           
       0.136172              0.0217156517              0.0014778691           
       0.136851              0.0208501672             0.00145654129           
       0.137530               0.021298292             0.00143713563           
       0.138209              0.0197157287             0.00139894593           
       0.138889              0.0180970861             0.00134619821           
       0.139568              0.0203687726             0.00142757645           
       0.140247               0.020432267             0.00142792603           
       0.140926              0.0199227275             0.00136969257           
       0.141605              0.0195981407             0.00139300246           
       0.142284              0.0181699522             0.00131905981           
       0.142964              0.0187959493             0.00134672103           
       0.143643              0.0202747411             0.00139692856           
       0.144322              0.0190440441              0.0013255373           
       0.145001              0.0204138517             0.00140055117           
       0.145680              0.0189119927             0.00131615463           
       0.146359              0.0192316919              0.0013320875           
       0.147039              0.0183382091             0.00131148499           
       0.147718              0.0194484314             0.00132831468           
       0.148397              0.0185879474             0.00131877636           
       0.149076              0.0189003594             0.00128855966           
       0.149755              0.0173374759             0.00125319012           
       0.150434              0.0176190316             0.00126384049           
       0.151114              0.0200420521             0.00134048991           
       0.151793              0.0208330059             0.00136669765           
       0.152472              0.0197538776             0.00130732229           
       0.153151              0.0177705443             0.00125194538           
       0.153830              0.0197782187             0.00131115138           
       0.154509               0.018473722             0.00126188754           
       0.155188              0.0190538509             0.00128107418           
       0.155868              0.0191202189             0.00127417124           
       0.156547              0.0182667019             0.00125340731           
       0.157226              0.0189153856             0.00124431583           
       0.157905              0.0204084131             0.00130334773           
       0.158584              0.0184272817             0.00123622239           
       0.159263              0.0187246477             0.00125074228           
       0.159943              0.0199253131             0.00129118171           
       0.160622              0.0191638942              0.0012418338           
       0.161301              0.0209912381             0.00131707626           
       0.161980              0.0162244431             0.00113822998           
       0.162659              0.0181216522             0.00121627333           
       0.163338              0.0178454869             0.00119713251           
       0.164018              0.0150890815             0.00109502491           
       0.164697              0.0176740404             0.00120033235           
       0.165376              0.0181531196             0.00118991306           
       0.166055              0.0167484266             0.00115048612           
       0.166734              0.0184860343             0.00120327929           
       0.167413              0.0172284871             0.00116244416           
       0.168093              0.0160712657             0.00113334568           
       0.168772              0.0183848756              0.0011767315           
       0.169451              0.0189649728             0.00121714079           
       0.170130              0.0196688345             0.00122324866           
       0.170809              0.0195533109             0.00123420633           
       0.171488              0.0194013685             0.00121819433           
       0.172168              0.0180512474             0.00116375531           
       0.172847              0.0182426862             0.00118527792           
       0.173526               0.016718853             0.00111304867           
       0.174205              0.0175549412             0.00114579301           
       0.174884              0.0147794859             0.00104584426           
       0.175563               0.018212666             0.00116593527           
       0.176243               0.017109733             0.00114138978           
       0.176922              0.0167434578             0.00109968212           
       0.177601              0.0183462126             0.00116376305           
       0.178280              0.0172396652             0.00111552837           
       0.178959              0.0185879163             0.00116764482           
       0.179638              0.0163893446             0.00109326076           
       0.180317              0.0165911201              0.0010919567           
       0.180997              0.0166110192              0.0010985418           
       0.181676              0.0186057906             0.00115021833           
       0.182355              0.0182752868             0.00114680309           
       0.183034              0.0171694638             0.00109372591           
       0.183713              0.0178846084             0.00112986601           
       0.184392              0.0180212419             0.00113383065           
       0.185072              0.0167607776             0.00108099828           
       0.185751              0.0162433287             0.00106714136           
       0.186430              0.0155597984             0.00103713166           
       0.187109              0.0184799976              0.0011428593           
       0.187788              0.0162105933             0.00106774917           
       0.188467              0.0173427206             0.00109133544           
       0.189147              0.0164979298             0.00107520262           
       0.189826              0.0160560253             0.00104194777           
       0.190505              0.0153315879             0.00103493095           
       0.191184              0.0167259046             0.00106538823           
       0.191863              0.0178735448              0.0011036526           
       0.192542              0.0168991423             0.00108326744           
       0.193222               0.017795452              0.0010867122           
       0.193901              0.0166424835             0.00106500472           
       0.194580              0.0175717235             0.00107519076           
       0.195259              0.0161009911             0.00104103185           
       0.195938              0.0188256093             0.00112836022           
       0.196617              0.0173798807             0.00106903466           
       0.197297              0.0160623477             0.00103191178           
       0.197976              0.0149160141            0.000979133141           
       0.198655              0.0149290123            0.000990259221           
       0.199334              0.0173198434             0.00105720312           
       0.200013               0.018436115             0.00109013502           
       0.200692              0.0165853534             0.00104018934           
       0.201371              0.0174018296             0.00105348569           
       0.202051               0.015146706            0.000985913316           
       0.202730              0.0148364228            0.000966016947           
       0.203409              0.0170699094             0.00104313701           
       0.204088               0.017930074             0.00106791369           
       0.204767              0.0158118517            0.000997580309           
       0.205446              0.0184514575             0.00107974118           
       0.206126              0.0162698553             0.00100012743           
       0.206805              0.0133922281            0.000924016029           
       0.207484              0.0142632391            0.000936447813           
       0.208163              0.0154296513            0.000979838406           
       0.208842              0.0157221343            0.000986401436           
       0.209521               0.015869533            0.000982778558           
       0.210201              0.0142001879              0.0009400267           
       0.210880              0.0163814014             0.00098983263           
       0.211559              0.0161367585            0.000996938701           
       0.212238              0.0161049923            0.000990889012           
       0.212917              0.0161561462            0.000988774015           
       0.213596              0.0175027756             0.00103524225           
       0.214276              0.0159605699            0.000967986403           
       0.214955              0.0147401978            0.000949806028           
       0.215634              0.0155547469            0.000968703727           
       0.216313              0.0168158378             0.00100509205           
       0.216992              0.0146680477            0.000938477715           
       0.217671              0.0138012919            0.000904161378           
       0.218351              0.0149670074            0.000950780782           
       0.219030              0.0174154111             0.00100941528           
       0.219709               0.016280347            0.000982054174           
       0.220388               0.016532325            0.000988353489           
       0.221067              0.0148511183            0.000937495275           
       0.221746              0.0140945007            0.000912366364           
       0.222426              0.0161390673            0.000961710067           
       0.223105               0.016695182            0.000991464557           
       0.223784              0.0164949871            0.000975726844           
       0.224463              0.0158115555            0.000962907201           
       0.225142              0.0148580509            0.000918652987           
       0.225821              0.0160018126            0.000957196278           
       0.226500              0.0140026429            0.000901102252           
       0.227180              0.0154271978            0.000931257234           
       0.227859              0.0151121838            0.000925835234           
       0.228538              0.0146936571            0.000903757763           
       0.229217              0.0154309327            0.000933484922           
       0.229896              0.0136202992            0.000876587779           
       0.230575              0.0142280763            0.000881650505           
       0.231255              0.0148890216            0.000915398932           
       0.231934              0.0152199582            0.000919193161           
       0.232613              0.0154088661            0.000928292279           
       0.233292              0.0138300894            0.000870954368           
       0.233971              0.0155103224            0.000921914399           
       0.234650              0.0134916143            0.000869942768           
       0.235330              0.0162613325            0.000946733474           
       0.236009              0.0157141451            0.000928662494           
       0.236688              0.0155975687            0.000921900343           
       0.237367              0.0142747688            0.000883223026           
       0.238046              0.0157621554              0.0009346337           
       0.238725              0.0142266789            0.000874244598           
       0.239405              0.0143536251            0.000883581727           
       0.240084              0.0149419316            0.000895766956           
       0.240763              0.0152860421            0.000914698369           
       0.241442              0.0151125958            0.000896678967           
       0.242121              0.0142089467            0.000871098757           
       0.242800              0.0158615313            0.000924719881           
       0.243480               0.014962921            0.000893938337           
       0.244159              0.0141303784            0.000869133237           
       0.244838              0.0148333541            0.000875837493           
       0.245517              0.0151822642            0.000898824213           
       0.246196              0.0140553672            0.000865240719           
       0.246875              0.0139088056            0.000848719541           
       0.247554              0.0147937693            0.000884199482           
       0.248234              0.0154636409            0.000890289019           
       0.248913              0.0137348726            0.000848460964           
       0.249592              0.0142439263            0.000855830653           
       0.250271              0.0138872786            0.000842594564           
       0.250950              0.0128805992            0.000816450735           
       0.251629              0.0141924264            0.000849734515           
       0.252309              0.0127153953            0.000805935719           
       0.252988              0.0127659346            0.000793625627           
       0.253667               0.013562409            0.000827565946           
       0.254346               0.014122491            0.000844307146           
       0.255025              0.0135021774            0.000823747918           
       0.255704              0.0127855412            0.000797918085           
       0.256384              0.0140198322            0.000832655004           
       0.257063              0.0138349587            0.000831862791           
       0.257742              0.0139280104             0.00082887241           
       0.258421              0.0128663165            0.000795121499           
       0.259100               0.013624996            0.000819655307           
       0.259779              0.0123397707            0.000779378285           
       0.260459              0.0122944608            0.000779473806           
       0.261138              0.0130282281            0.000786716573           
       0.261817              0.0121349266            0.000774592867           
       0.262496              0.0139931821            0.000823631515           
       0.263175               0.013166265            0.000800640985           
       0.263854              0.0119325756            0.000758667045           
       0.264534               0.012998634             0.00078506901           
       0.265213              0.0130401891            0.000798714427           
       0.265892              0.0126252526            0.000775835402           
       0.266571              0.0137424716            0.000807594275           
       0.267250              0.0130680599            0.000788855308           
       0.267929              0.0134583875            0.000799728848           
       0.268609              0.0111178965            0.000730851201           
       0.269288              0.0124170045            0.000759540399           
       0.269967              0.0125332641              0.0007713096           
       0.270646              0.0145005246            0.000826051379           
       0.271325               0.011875142            0.000748788818           
       0.272004              0.0113450134            0.000724588651           
       0.272683               0.013874408            0.000802292141           
       0.273363              0.0118470812            0.000746091464           
       0.274042              0.0127328892            0.000768917884           
       0.274721              0.0123444509            0.000756649609           
       0.275400              0.0116078168            0.000728868462           
       0.276079              0.0116581354            0.000734594176           
       0.276758              0.0114151042            0.000736070146           
       0.277438              0.0120630303            0.000748177894           
       0.278117              0.0124150806            0.000772818588           
       0.278796              0.0116037972            0.000739557755           
       0.279475              0.0109713441            0.000731000452           
       0.280154              0.0115558956            0.000739430148           
       0.280833              0.0114074236            0.000739132342           
       0.281513              0.0140854051            0.000834206744           
       0.282192               0.012734355            0.000779658402           
       0.282871              0.0106807625            0.000719020415           
       0.283550              0.0114640878            0.000748912358           
       0.284229               0.011643904            0.000765848407           
       0.284908              0.0125799379            0.000804432446           
       0.285588              0.0103242405            0.000720217639           
       0.286267              0.0114384639            0.000770224415           
       0.286946              0.0112950187            0.000760402328           
       0.287625              0.0102204849            0.000735644632           
       0.288304             0.00962646913            0.000704390891           
       0.288983              0.0126130759            0.000816499536           
       0.289663              0.0112718173            0.000776384501           
       0.290342              0.0122152331            0.000803919896           
       0.291021              0.0109693809            0.000765925329           
       0.291700              0.0108830453            0.000752938954           
       0.292379              0.0104148945            0.000753431004           
       0.293058             0.00936625159            0.000711795739           
       0.293738              0.0102705018            0.000739104686           
       0.294417              0.0101342436            0.000742719072           
       0.295096              0.0104330463            0.000745304435           
       0.295775              0.0104300851            0.000756579294           
       0.296454              0.0113848502            0.000780225594           
       0.297133              0.0103651179            0.000747985976           
       0.297812              0.0102593965            0.000747893913           
       0.298492              0.0104674742            0.000756899692           
       0.299171             0.00938795478            0.000715451918           
       0.299850             0.00984656107            0.000727715214           
       0.300529             0.00927617746            0.000714279917           
       0.301208              0.0105147789            0.000762323844           
       0.301887             0.00992428184            0.000739728902           
       0.302567              0.0104952075            0.000756899106           
       0.303246             0.00879947375            0.000697584845           
       0.303925             0.00915769101            0.000720779494           
       0.304604             0.00895893917            0.000697521075           
       0.305283             0.00996678296            0.000746621244           
       0.305962               0.010245257            0.000752406737           
       0.306642             0.00847705706            0.000693701218           
       0.307321             0.00914733785            0.000718303954           
       0.308000             0.00937911059            0.000718725699           
       0.308679             0.00917134929            0.000726111781           
       0.309358             0.00924376882            0.000719112041           
       0.310037             0.00929446071            0.000722687724           
       0.310717               0.010558635            0.000769528001           
       0.311396             0.00956945302              0.0007375085           
       0.312075             0.00859978425            0.000708010961           
       0.312754             0.00936762425            0.000724160037           
       0.313433             0.00924921484            0.000725826831           
       0.314112             0.00759810732            0.000657708714           
       0.314792             0.00937867365            0.000735881161           
       0.315471             0.00918849915            0.000719374481           
       0.316150             0.00777927921            0.000668041255           
       0.316829             0.00786095572            0.000675973612           
       0.317508             0.00951627323            0.000735401752           
       0.318187             0.00907095795            0.000727460439           
       0.318866             0.00904940528            0.000716807665           
       0.319546             0.00840553154            0.000701191841           
       0.320225              0.0086207075            0.000710124028           
       0.320904              0.0088151683            0.000706985502           
       0.321583             0.00737874991            0.000661077291           
       0.322262             0.00899146403            0.000718693165           
       0.322941             0.00875698041            0.000718346842           
       0.323621             0.00760191635            0.000665211923           
       0.324300             0.00778531859             0.00067371611           
       0.324979             0.00781191658            0.000676086059           
       0.325658             0.00910234632            0.000731117246           
       0.326337             0.00821945714            0.000695662222           
       0.327016             0.00828807699            0.000694125141           
       0.327696             0.00674810648            0.000633293905           
       0.328375             0.00780308398            0.000675254051           
       0.329054             0.00879291707            0.000720691947           
       0.329733             0.00920444507            0.000740056922           
       0.330412             0.00846063106            0.000703711465           
       0.331091             0.00725832659            0.000663618936           
       0.331771             0.00835932391            0.000693512675           
       0.332450             0.00803502704             0.00069312826           
       0.333129             0.00801241074            0.000690366073           
       0.333808             0.00778561212            0.000681424666           
       0.334487             0.00744532974            0.000669526388           
       0.335166             0.00669485794            0.000625595213           
       0.335846             0.00664269818            0.000634104234           
       0.336525             0.00721684331            0.000654414496           
       0.337204             0.00690047947            0.000641587626           
       0.337883             0.00674284895            0.000635057948           
       0.338562             0.00736750449            0.000667506079           
       0.339241             0.00757200273            0.000677974625           
       0.339921             0.00797195858            0.000683983679           
       0.340600             0.00638095481             0.00062355703           
       0.341279             0.00732970133             0.00066115128           
       0.341958             0.00691556865            0.000651262361           
       0.342637             0.00730435799            0.000659863274           
       0.343316             0.00717329733            0.000655809823           
       0.343995             0.00618003131            0.000618681959           
       0.344675             0.00583406389            0.000590068062           
       0.345354             0.00706185571            0.000653478403           
       0.346033             0.00659822616            0.000630016364           
       0.346712             0.00590226686            0.000599666791           
       0.347391             0.00567973163            0.000591895796           
       0.348070             0.00502568279            0.000548866912           
       0.348750             0.00659383771            0.000637777315           
       0.349429             0.00640501735            0.000620464489           
       0.350108             0.00688897335            0.000651221752           
       0.350787             0.00662026324            0.000627549109           
       0.351466              0.0059318082            0.000604966141           
       0.352145             0.00556157109            0.000586268426           
       0.352825             0.00648239924             0.00063007758           
       0.353504             0.00526356591            0.000567622565           
       0.354183             0.00651021534            0.000624000153           
       0.354862             0.00602234108            0.000614109862           
       0.355541             0.00572558528            0.000590946332           
       0.356220              0.0065960328            0.000635475872           
       0.356900             0.00604740962            0.000614254011           
       0.357579             0.00712171053            0.000658411296           
       0.358258             0.00701346321            0.000662430257           
       0.358937             0.00536200028             0.00056832229           
       0.359616             0.00538846818            0.000577679024           
       0.360295             0.00626838052            0.000623581554           
       0.360975             0.00553511029            0.000583468436           
       0.361654             0.00515612626            0.000566042775           
       0.362333             0.00393693082            0.000492098965           
       0.363012             0.00530376382            0.000578519198           
       0.363691             0.00586994695            0.000596607748           
       0.364370             0.00559661263            0.000589778508           
       0.365050             0.00589559623            0.000602088067           
       0.365729             0.00575957147            0.000600776075           
       0.366408             0.00439950019            0.000526235043           
       0.367087             0.00555118684            0.000581632949           
       0.367766             0.00520043804            0.000574687784           
       0.368445             0.00587423352            0.000599939728           
       0.369124             0.00584697334            0.000603248061           
       0.369804             0.00514292376            0.000564858863           
       0.370483             0.00463729043            0.000538720025           
       0.371162             0.00456333475            0.000537505326           
       0.371841             0.00469263365            0.000535563517           
       0.372520             0.00515371297            0.000572508506           
       0.373199             0.00533059536            0.000575293899           
       0.373879             0.00481798812            0.000553266132           
       0.374558             0.00424831874            0.000511947826           
       0.375237             0.00439757394            0.000521717105           
       0.375916             0.00405314781            0.000510464996           
       0.376595             0.00456171299            0.000530959746           
       0.377274             0.00561157384            0.000598324302           
       0.377954             0.00390377699            0.000491202205           
       0.378633             0.00488325099               0.000556322           
       0.379312             0.00539416776            0.000584553524           
       0.379991             0.00439890015            0.000525146468           
       0.380670             0.00566623811            0.000606547478           
       0.381349             0.00428533501            0.000519910795           
       0.382029             0.00410832283             0.00051635365           
       0.382708             0.00340335146            0.000459705226           
       0.383387             0.00423802652            0.000524614291           
       0.384066             0.00370137397            0.000485776542           
       0.384745             0.00469404332            0.000549202494           
       0.385424             0.00446453562            0.000537427206           
       0.386104             0.00448980589            0.000532990144           
       0.386783             0.00463401796             0.00055319448           
       0.387462             0.00439985578            0.000525626977           
       0.388141             0.00473137313            0.000553775365           
       0.388820             0.00433891955            0.000526477783           
       0.389499             0.00388152281            0.000500758504           
       0.390178             0.00509796835            0.000576171603           
       0.390858             0.00308901597            0.000444871811           
       0.391537             0.00492047499            0.000567205648           
       0.392216             0.00453212438            0.000537539042           
       0.392895             0.00457525686            0.000541910384           
       0.393574             0.00504171951            0.000567454734           
       0.394253             0.00412156049            0.000515373537           
       0.394933             0.00424084023             0.00052875182           
       0.395612             0.00311006412            0.000439651545           
       0.396291             0.00389423759            0.000501981856           
       0.396970             0.00370111397             0.00048504057           
       0.397649             0.00410474435            0.000512377404           
       0.398328             0.00330272059            0.000457582775           
       0.399008             0.00410283515            0.000508898198           
       0.399687             0.00343605006            0.000467524421           
       0.400366             0.00310040043             0.00044240414           
       0.401045             0.00364708105            0.000478917927           
       0.401724             0.00505116072            0.000564557651           
       0.402403             0.00513359921            0.000573581959           
       0.403083             0.00292425142            0.000426661939           
       0.403762             0.00402033321            0.000502740515           
       0.404441             0.00440074751            0.000529338338           
       0.405120             0.00316101277            0.000447153616           
       0.405799             0.00438575224            0.000524414691           
       0.406478             0.00388331547            0.000493474876           
       0.407158             0.00360618501            0.000474648242           
       0.407837             0.00444980185            0.000531905694           
       0.408516              0.0045231526            0.000531606499           
       0.409195             0.00419945432            0.000518042001           
       0.409874              0.0041983342            0.000525179582           
       0.410553              0.0029683552            0.000446347584           
       0.411233             0.00347003383            0.000480093617           
       0.411912             0.00371193052            0.000503581058           
       0.412591             0.00334005787            0.000480851835           
       0.413270             0.00414119964            0.000532879737           
       0.413949             0.00415793414            0.000539787212           
       0.414628                 0.0032496            0.000476341356           
       0.415307             0.00197371305            0.000375361354           
       0.415987             0.00354677494            0.000499034661           
       0.416666             0.00350199225             0.00049289071           
       0.417345             0.00370071926            0.000515143966           
       0.418024             0.00334131659            0.000489503074           
       0.418703             0.00290057685            0.000455239792           
       0.419382             0.00328939425            0.000482416944           
       0.420062             0.00281328246            0.000447390083           
       0.420741             0.00326616646            0.000484621098           
       0.421420             0.00200880493            0.000381501271           
       0.422099             0.00315168889            0.000477870328           
       0.422778              0.0017432881             0.00035732917           
       0.423457             0.00316571206            0.000484473134           
       0.424137             0.00320299081            0.000479375661           
       0.424816             0.00267761178            0.000447460634           
       0.425495             0.00296791692            0.000470647608           
       0.426174             0.00312057503            0.000482768963           
       0.426853             0.00338379552            0.000499663955           
       0.427532             0.00292132575            0.000468190242           
       0.428212             0.00257494416            0.000442459697           
       0.428891             0.00248724348            0.000433870411           
       0.429570             0.00355641657            0.000519163365           
       0.430249             0.00252630072            0.000435290851           
       0.430928             0.00195587578              0.0003913832           
       0.431607             0.00271011209            0.000452791336           
       0.432287             0.00199231324            0.000391068167           
       0.432966             0.00320604293            0.000500451141           
       0.433645             0.00179413727            0.000374764238           
       0.434324             0.00269956196            0.000456931546           
       0.435003             0.00247754191            0.000438486393           
       0.435682             0.00196802977            0.000394011443           
       0.436361             0.00235976556             0.00043086955           
       0.437041             0.00243251765            0.000436877225           
       0.437720             0.00238219474            0.000434419963           
       0.438399             0.00185080886            0.000384912763           
       0.439078             0.00264923536             0.00047386689           
       0.439757             0.00194918137            0.000403960119           
       0.440436             0.00197391965            0.000415676961           
       0.441116             0.00292326619            0.000514125966           
       0.441795             0.00340898061            0.000555866553           
       0.442474             0.00287024358            0.000511478015           
       0.443153             0.00217359428            0.000455483216           
       0.443832             0.00208247042            0.000446584843           
       0.444511             0.00195901214            0.000431193145           
       0.445191             0.00177865375            0.000420858402           
       0.445870               0.002275514            0.000476038317           
       0.446549             0.00171260096            0.000417336089           
       0.447228             0.00169872759            0.000413293651           
       0.447907             0.00215367291            0.000470941505           
       0.448586             0.00248705726            0.000518257794           
       0.449266             0.00158959785            0.000410519089           
       0.449945             0.00231955882            0.000493875386           
       0.450624             0.00409494846             0.00066662482           
       0.451303             0.00168323501            0.000432935415           
       0.451982             0.00199304978            0.000468184153           
       0.452661              0.0030004209            0.000585147328           
       0.453341             0.00345375695            0.000629998212           
       0.454020              0.0046416295            0.000731458992           
       0.454699             0.00204057473            0.000489417519           
       0.455378             0.00156591858            0.000428964003           
       0.456057             0.00174852521            0.000461347371           
       0.456736             0.00162042452            0.000442741378           
       0.457416             0.00233632153            0.000531635958           
       0.458095             0.00242405545            0.000549362985           
       0.458774             0.00121440652             0.00039397811           
       0.459453             0.00318009003            0.000640758843           
       0.460132             0.00142103081            0.000419077976           
       0.460811             0.00140484962             0.00043223149           
       0.461490             0.00228082275            0.000545139512           
       0.462170             0.00129925673            0.000417863446           
       0.462849             0.00158667294            0.000464770227           
       0.463528             0.00172988642            0.000484166919           
       0.464207              0.0022161713            0.000558263232           
       0.464886             0.00134294741            0.000431193229           
       0.465565              0.0022337227            0.000562214219           
       0.466245             0.00125606662            0.000422901387           
       0.466924             0.00146826156            0.000468030371           
       0.467603             0.00241183068            0.000587130824           
       0.468282             0.00221344637            0.000575803423           
       0.468961            0.000297413063            0.000212453277           
       0.469640             0.00075559602             0.00033998311           
       0.470320             0.00244369946            0.000611838041           
       0.470999             0.00170877234            0.000516454092           
       0.471678             0.00143922669            0.000478529542           
       0.472357             0.00175316383            0.000529622151           
       0.473036             0.00128720634            0.000456679661           
       0.473715             0.00131463188             0.00046512948           
       0.474395            0.000697807405            0.000343559357           
       0.475074             0.00101850539            0.000415076657           
       0.475753            0.000346584543            0.000240042181           
       0.476432            0.000762602107            0.000369030169           
       0.477111             0.00123923146            0.000464734821           
       0.477790            0.000742072873            0.000361548467           
       0.478470            0.000595227582            0.000328088025           
       0.479149             0.00115446895            0.000461645844           
       0.479828             0.00131297207            0.000491158854           
       0.480507             0.00119262311            0.000471881767           
       0.481186            0.000644174035            0.000354621036           
       0.481865             0.00176796896            0.000580214588           
       0.482545            0.000270606778             0.00022966366           
       0.483224            0.000670390205            0.000363952099           
       0.483903            0.000504283882            0.000320630998           
       0.484582            0.000519939864            0.000330864481           
       0.485261            0.000282533694            0.000237718936           
       0.485940            0.000761185909            0.000405928516           
       0.486619            0.000312821748            0.000257364609           
       0.487299           -9.97060473e-05                         0           
       0.487978            0.000752984021            0.000401526858           
       0.488657           -8.35195123e-05                         0           
       0.489336           -8.26503358e-05                         0           
       0.490015            0.000142634949            0.000180183002           
       0.490694           -6.88318023e-05                         0           
       0.491374           -0.000309512634                         0           
       0.492053           -0.000309531484                         0           
       0.492732           -0.000309550202                         0           
       0.493411           -0.000309569163                         0           
       0.494090            0.000176440889            0.000210386397           
       0.494769           -0.000309606966                         0           
       0.495449           -0.000309625946                         0           
       0.496128            0.000212773944            0.000235427956           
       0.496807           -3.46096274e-05                         0           
       0.497486           -5.37357336e-05                         0           
       0.498165           -0.000309702096                         0           
       0.498844           -0.000309721082                         0           
       0.499524           -0.000309740159                         0           
       0.500203           -2.90104973e-05                         0           
       0.500882           -1.61704681e-05                         0           
       0.501561           -2.12014191e-05                         0           
       0.502240            -2.2118103e-05                         0           
       0.502919           -0.000309836129                         0           
       0.503599           -0.000309855432                         0           
       0.504278           -0.000309875006                         0           
       0.504957            -0.00030989435                         0           
       0.505636            -0.00030991357                         0           
       0.506315           -0.000309933106                         0           
       0.506994           -0.000309952294                         0           
       0.507673           -0.000309971442                         0           
       0.508353           -0.000309990994                         0           
       0.509032             0.00110524884            0.000624405976           
       0.509711           -0.000310029939                         0           
       0.510390           -0.000310049721                         0           
       0.511069            4.08699268e-05            0.000119900565           
       0.511748           -0.000310089076                         0           
       0.512428            4.96718298e-05            0.000135517109           
       0.513107            0.000399937582            0.000383935561           
       0.513786             7.9713389e-05            0.000176233591           
       0.514465            4.87552914e-05            0.000133426598           
       0.515144           -0.000310187582                         0           
       0.515823           -0.000310207255                         0           
       0.516503            0.000100523341            0.000202394028           
       0.517182           -0.000310246968                         0           
       0.517861            0.000101890892            0.000205224378           
       0.518540           -0.000310286695                         0           
       0.519219            0.000109612855            0.000215182339           
       0.519898           -0.000310326503                         0           
       0.520578           -0.000310346627                         0           
       0.521257           -0.000310366492                         0           
       0.521936            0.000142414011            0.000251799138           
       0.522615           -0.000310406554                         0           
       0.523294            0.000647757642            0.000549835756           
       0.523973           -0.000310446725                         0           
       0.524653           -0.000310466527                         0           
       0.525332            0.000608547331            0.000528755811           
       0.526011            0.000185389537            0.000304776273           
       0.526690           -0.000310527482                         0           
       0.527369           -0.000310547726                         0           
       0.528048           -0.000310568114                         0           
       0.528728           -0.000310588478                         0           
       0.529407           -0.000310608748                         0           
       0.530086           -0.000310628914                         0           
       0.530765            0.000239404518             0.00036498488           
       0.531444           -0.000310669519                         0           
       0.532123           -0.000310690292                         0           
       0.532802           -0.000310710896                         0           
       0.533482           -0.000310731429                         0           
       0.534161           -0.000310751995                         0           
       0.534840           -0.000310772385                         0           
       0.535519           -0.000310793152                         0           
       0.536198           -0.000310813705                         0           
       0.536877            0.000314343193            0.000442274864           
       0.537557           -0.000310854592                         0           
       0.538236           -0.000310875396                         0           
       0.538915           -0.000310896192                         0           
       0.539594            0.000304464506            0.000438862447           
       0.540273           -0.000310938052                         0           
       0.540952            -0.00031095891                         0           
       0.541632           -0.000310979387                         0           
       0.542311            0.000301022656            0.000431765251           
       0.542990           -0.000311020947                         0           
       0.543669           -0.000311042017                         0           
       0.544348             0.00115109843            0.000909640389           
       0.545027            0.000319640166            0.000456026236           
       0.545707           -0.000311105126                         0           
       0.546386            0.000386292406            0.000517509779           
       0.547065           -0.000311147118                         0           
       0.547744           -0.000311168082                         0           
       0.548423           -0.000311189277                         0           
       0.549102           -0.000311210493                         0           
       0.549782            0.000403424736            0.000537002237           
       0.550461            0.000496282184            0.000629348863           
       0.551140           -0.000311274452                         0           
       0.551819           -0.000311295686                         0           
       0.552498           -0.000311317103                         0           
       0.553177           -0.000311338152                         0           
       0.553856           -0.000311359276                         0           
       0.554536           -0.000311380469                         0           
       0.555215           -0.000311401986                         0           
       0.555894           -0.000311423452                         0           
       0.556573           -0.000311445046                         0           
       0.557252           -0.000311466622                         0           
       0.557931           -0.000311488099                         0           
       0.558611            -0.00031151008                         0           
       0.559290           -0.000311531501                         0           
       0.559969           -0.000311552395                         0           
       0.560648           -0.000311573843                         0           
       0.561327           -0.000311595769                         0           
       0.562006           -0.000311617593                         0           
       0.562686            -0.00031163943                         0           
       0.563365           -0.000311661347                         0           
       0.564044           -0.000311683154                         0           
       0.564723           -0.000311704912                         0           
       0.565402           -0.000311726265                         0           
       0.566081            -0.00031174776                         0           
       0.566761            0.000783453303            0.000928789333           
       0.567440           -0.000311791654                         0           
       0.568119           -0.000311813646                         0           
       0.568798           -0.000311835948                         0           
       0.569477           -0.000311858107                         0           
       0.570156           -0.000311880373                         0           
       0.570836           -0.000311902555                         0           
       0.571515           -0.000311924269                         0           
       0.572194           -0.000311946612                         0           
       0.572873           -0.000311968443                         0           
       0.573552           -0.000311990146                         0           
       0.574231            -0.00031201229                         0           
       0.574911           -0.000312034991                         0           
       0.575590             0.00129906827             0.00146201136           
       0.576269           -0.000312079452                         0           
       0.576948           -0.000312102075                         0           
       0.577627           -0.000312124008                         0           
       0.578306           -0.000312146251                         0           
       0.578985           -0.000312168683                         0           
       0.579665           -0.000312190987                         0           
       0.580344           -0.000312213627                         0           
       0.581023           -0.000312236244                         0           
       0.581702           -0.000312258651                         0           
       0.582381           -0.000312280854                         0           
       0.583060              0.0022831701             0.00243555671           
       0.583740           -0.000312326227                         0           
       0.584419           -0.000312348809                         0           
       0.585098           -0.000312371364                         0           
       0.585777           -0.000312394094                         0           
       0.586456           -0.000312417194                         0           
       0.587135            -0.00031243968                         0           
       0.587815           -0.000312461923                         0           
       0.588494            -0.00031248486                         0           
       0.589173           -0.000312508323                         0           
       0.589852           -0.000312530539                         0           
       0.590531           -0.000312553593                         0           
       0.591210           -0.000312576115                         0           
       0.591890           -0.000312599072                         0           
       0.592569           -0.000312621261                         0           
       0.593248            -0.00031264552                         0           
       0.593927           -0.000312668585                         0           
       0.594606           -0.000312692124                         0           
       0.595285            -0.00031271426                         0           
       0.595965           -0.000312734917                         0           
       0.596644           -0.000312756174                         0           
