################################################################################
# EDF_DataBlockID                     0.Image.Psd
# EDF_BinarySize                      2105344
# EDF_HeaderSize                      2560
# ByteOrder                           LowByteFirst
# DataType                            FloatValue
# Dim_1                               512
# Dim_2                               1028
# Image                               0
# HeaderID                            EH:000000:000000:000000
# Size                                2105344
# Center_1                            304.9000
# Center_2                            588.7000
# Comment                             Xenocs_Cell_Window - 20251028_20perc_iodine_1.23mg
# DDummy                              0.6
# Date                                2025-10-29T06:13:32
# Delta                               21.910000
# Dummy                               -1.5
# ExposureTime                        360
# Gamma                               15.360000
# Intensity1                          8.48585e-10
# PSize_1                             7.5e-05
# PSize_2                             7.5e-05
# Pressure                            0.0333872
# SampleDistance                      0.115750
# SampleEnvKind                       large
# SampleEnvPN                         ElectroChemical cell
# SampleEnvSN                         1141
# Thickness                           0
# Wavelength                          1.541891e-10
# Wavelength                          1.54189e-10
# aux                                 0
# aux_dial                            0.002375
# beamx                               588.434
# beamx_dial                          588.434
# beamz                               657.808
# beamz_dial                          657.808
# det0x                               0
# det0x_dial                          6.36945
# det0xvd                             0
# det0xvd_dial                        0
# det0y                               450.002
# det0y_dial                          481.635
# det0z                               0
# det0z_dial                          1.23302
# det0zvd                             0
# det0zvd_dial                        0
# mag                                 1.818
# mag_dial                            1.818
# om                                  0.2499
# om_dial                             -0.610199
# phi                                 -0.0120535
# phi_dial                            0
# ry                                  0.599993
# ry_dial                             0.599993
# s1bot                               0.8
# s1bot_dial                          -1.66094
# s1hl                                0.8
# s1hl_dial                           -0.608437
# s1hr                                0.8
# s1hr_dial                           0.970938
# s1top                               0.8
# s1top_dial                          -0.461562
# s2bot                               0.45
# s2bot_dial                          1.36109
# s2hl                                0.45
# s2hl_dial                           -0.83375
# s2hr                                0.45
# s2hr_dial                           -0.118594
# s2top                               0.45
# s2top_dial                          1.44734
# w2theta                             32
# w2theta_dial                        32
# waxsch                              19.2605
# waxsch_dial                         -32.7355
# waxsh                               137.085
# waxsh_dial                          -43.5338
# waxsth                              26.0607
# waxsth_dial                         -19.4086
# waxsz                               67.0407
# waxsz_dial                          -23.7954
# wind                                65.9854
# wind_dial                           66.0041
# wpsi                                124
# wpsi_dial                           124
# wstod                               115
# wstod_dial                          115
# x                                   0
# x_dial                              1.00969
# z                                   0
# z_dial                              13.3172
# CountCutoff                         6807993
# DetectorModel                       Dectris EIGER2 Si 500K, S/N E-01-0554
# ThresholdSetting                    4023.88989258
# Saturation                          0
# FlatField                           Corrected
# BackgroundReductionExtra            0.02
# BackgroundCorrectionConstant        0.0026712
# Detector                            0
# Monitor                             0
# Pil_Roi0                            0
# SumForIntensity1                    3.05491e+08
# TransmittedFlux                     848585
# det                                 0
# mon                                 0
# pilai0                              3.05491e+08
# pilai1                              768350
# pilct0                              5.29657e+08
# pilct1                              768350
# pilroi0                             0
# pilroi1                             0
# sec                                 1
# title                               20251028_20perc_iodine_1.23mg_1_00144.edf
# usaxs0                              0
# Operation                           Azimuthal average I(q)
# Error_model                         ErrorModel.poisson
# Geometrical_correction              True
# Transmission_correction             True
# Thickness_correction                False
# Binning mode                        Uniform
# Binning factor                      1.0
# Psi                                 0.0
# Omega                               0.2499
# MaskInvalidPixels                   True
# DetectorEdge                        3
# MaskFiles                           ['WAXS_corrected.edf']
################################################################################
    q(A⁻¹)                Intensity(a.u.)            Sigma_I(a.u.)            
       0.693100             0.00833907683             0.00611118429           
       0.695741             0.00563870187             0.00410075364           
       0.698381             0.00420379574             0.00433718326           
       0.701021             0.00888285719             0.00891282735           
       0.703662              0.0028172521              0.0028972867           
       0.706302             0.00679995221             0.00348488701           
       0.708942                0.02589879             0.00877801996           
       0.711583            -2.3837003e-05                         0           
       0.714223             0.00290228429             0.00293773431           
       0.716864             0.00500551848             0.00252428193           
       0.719504             0.00444683539             0.00256747785           
       0.722144             0.00887838529             0.00335965739           
       0.724785             0.00647447642             0.00228855697           
       0.727425             0.00294624655             0.00208849765           
       0.730065             0.00807370205             0.00244555269           
       0.732706             0.00679640406              0.0018842087           
       0.735346             0.00264912112             0.00153343167           
       0.737987             0.00791183703             0.00187261828           
       0.740627             0.00776173047             0.00276742815           
       0.743267             0.00616912368             0.00165253617           
       0.745908             0.00572534862             0.00172722505           
       0.748548             0.00748122047             0.00181990459           
       0.751189             0.00644487118             0.00227607224           
       0.753829             0.00883911927             0.00245023943           
       0.756469             0.00659892978             0.00170715961           
       0.759110             0.00539480489             0.00162665623           
       0.761750             0.00840385923             0.00179517982           
       0.764390             0.00709870922             0.00172688625           
       0.767031             0.00526518544             0.00128789375           
       0.769671             0.00787176729             0.00196437303           
       0.772312             0.00679172985             0.00138908683           
       0.774952             0.00515581762             0.00163435983           
       0.777592             0.00713398843              0.0014003039           
       0.780233             0.00600312839             0.00154977512           
       0.782873             0.00691681352             0.00159101961           
       0.785513             0.00627140048             0.00161960289           
       0.788154             0.00522316789             0.00123645165           
       0.790794             0.00668862634             0.00167277546           
       0.793435             0.00675393368             0.00151007248           
       0.796075             0.00718735281             0.00150061762           
       0.798715             0.00609401569             0.00163286428           
       0.801356             0.00801159648             0.00161136436           
       0.803996             0.00706633555             0.00154285128           
       0.806637               0.007233679             0.00124227794           
       0.809277             0.00675209053             0.00129909113           
       0.811917             0.00589060162              0.0011343262           
       0.814558             0.00684377594             0.00127073762           
       0.817198             0.00448680936            0.000977511425           
       0.819838             0.00587425027             0.00113198708           
       0.822479             0.00844999728             0.00159427278           
       0.825119             0.00715974144             0.00124904112           
       0.827760              0.0064805437             0.00120372319           
       0.830400             0.00688652455             0.00116787446           
       0.833040             0.00628180719             0.00116861665           
       0.835681             0.00673118715             0.00137521529           
       0.838321              0.0073270699             0.00120426966           
       0.840961             0.00703329783             0.00128553549           
       0.843602             0.00765565565             0.00122994147           
       0.846242             0.00569061565             0.00106024954           
       0.848883              0.0060076246             0.00111482484           
       0.851523             0.00642361726             0.00113845676           
       0.854163             0.00727977794             0.00128885764           
       0.856804             0.00679781237             0.00111984111           
       0.859444             0.00670288824             0.00108954019           
       0.862085             0.00498075158            0.000978885148           
       0.864725             0.00950799642             0.00138411716           
       0.867365             0.00677292261               0.001083259           
       0.870006             0.00801781709             0.00112313045           
       0.872646             0.00759113864             0.00114599137           
       0.875286             0.00639588894             0.00101200195           
       0.877927             0.00656070102             0.00098903656           
       0.880567             0.00802038368             0.00113292997           
       0.883208             0.00846452192             0.00115291124           
       0.885848             0.00793889546              0.0011593056           
       0.888488              0.0086066251             0.00113216205           
       0.891129             0.00639114698             0.00100176012           
       0.893769             0.00732382939             0.00102628312           
       0.896410              0.0079768791            0.000998605022           
       0.899050              0.0093888211             0.00119142883           
       0.901690             0.00680980127             0.00110528312           
       0.904331             0.00705500991            0.000997380436           
       0.906971              0.0073397624             0.00108224957           
       0.909611             0.00835232896             0.00105095551           
       0.912252             0.00774166726             0.00104509062           
       0.914892              0.0085952725             0.00120337776           
       0.917533             0.00719407939              0.0010414759           
       0.920173             0.00622162921            0.000898606659           
       0.922813             0.00638881298            0.000955572145           
       0.925454             0.00731557862            0.000920763645           
       0.928094             0.00870085346             0.00107202999           
       0.930734             0.00760508214             0.00107903768           
       0.933375             0.00629020364            0.000971687233           
       0.936015             0.00603976551            0.000864753473           
       0.938656             0.00584625912            0.000912694388           
       0.941296             0.00608901637            0.000844150912           
       0.943936             0.00945432484              0.0010315209           
       0.946577             0.00810466281            0.000948745049           
       0.949217             0.00664445061            0.000789961915           
       0.951858             0.00687829782            0.000841358317           
       0.954498             0.00787635136             0.00104211925           
       0.957138             0.00879865688             0.00104346899           
       0.959779             0.00744946597            0.000946499316           
       0.962419             0.00794148036            0.000970755888           
       0.965059             0.00746768608            0.000990056633           
       0.967700             0.00618796922            0.000923049929           
       0.970340             0.00754349328            0.000901845362           
       0.972981             0.00857784775             0.00087619164           
       0.975621             0.00860925434            0.000933821775           
       0.978261             0.00813125317            0.000862311065           
       0.980902             0.00611868446            0.000894970752           
       0.983542             0.00801104004            0.000906869493           
       0.986182             0.00850497802            0.000917396861           
       0.988823              0.0095256927            0.000942733501           
       0.991463             0.00860099581            0.000955733867           
       0.994104             0.00827909798            0.000914720154           
       0.996744             0.00811811347            0.000923891693           
       0.999384             0.00740099894             0.00078893036           
       1.002025             0.00806479181            0.000919190828           
       1.004665             0.00762271755            0.000816679054           
       1.007306             0.00831584777            0.000848635315           
       1.009946             0.00881888049            0.000891282055           
       1.012586             0.00913958779            0.000883699146           
       1.015227             0.00809195202            0.000893302684           
       1.017867             0.00856967575            0.000883504616           
       1.020507             0.00829518397            0.000841976943           
       1.023148             0.00685614076            0.000825960922           
       1.025788              0.0084450487            0.000840529006           
       1.028429             0.00872180983            0.000894905433           
       1.031069             0.00936212817            0.000872506144           
       1.033709             0.00713990006            0.000809956211           
       1.036350              0.0081451976             0.00077697802           
       1.038990             0.00690602765            0.000728585286           
       1.041630             0.00794898422            0.000815287106           
       1.044271             0.00739788526            0.000739691417           
       1.046911             0.00802952352            0.000810594316           
       1.049552             0.00787162705            0.000843217146           
       1.052192              0.0072407214             0.00073846372           
       1.054832              0.0086691956            0.000815380832           
       1.057473              0.0093242174            0.000833606715           
       1.060113             0.00737548089            0.000723062605           
       1.062754             0.00914252331             0.00082192466           
       1.065394             0.00973938308            0.000896903838           
       1.068034             0.00703548545            0.000693590505           
       1.070675             0.00820042469             0.00078110558           
       1.073315             0.00866122504            0.000814258079           
       1.075955             0.00926718621            0.000795141927           
       1.078596             0.00993143171            0.000874840426           
       1.081236             0.00805700493            0.000754532777           
       1.083877             0.00839843079            0.000763443487           
       1.086517             0.00924772913            0.000859030728           
       1.089157             0.00928491029            0.000893130671           
       1.091798             0.00829594023            0.000740147243           
       1.094438             0.00951875983            0.000790262771           
       1.097078             0.00887591518            0.000731903853           
       1.099719             0.00825402265            0.000763428213           
       1.102359             0.00861916026             0.00073060255           
       1.105000             0.00750963874            0.000762562998           
       1.107640             0.00813666462            0.000758963989           
       1.110280             0.00799477222            0.000686432096           
       1.112921             0.00762520223            0.000720131694           
       1.115561             0.00837546076            0.000717305996           
       1.118202             0.00930579303            0.000756808204           
       1.120842             0.00964395761            0.000809733626           
       1.123482             0.00869431457            0.000765475357           
       1.126123             0.00736074952            0.000675567947           
       1.128763              0.0101160422            0.000797408447           
       1.131403             0.00833467536            0.000697445349           
       1.134044             0.00908747726            0.000749383126           
       1.136684             0.00828959913            0.000763091906           
       1.139325             0.00815850079            0.000697378672           
       1.141965             0.00959750793            0.000761385046           
       1.144605             0.00972344588            0.000730730522           
       1.147246             0.00877662425            0.000710496662           
       1.149886             0.00954359054            0.000738260654           
       1.152527              0.0111114014            0.000808180325           
       1.155167             0.00830313318            0.000664499907           
       1.157807             0.00904885645            0.000743768413           
       1.160448             0.00939417473            0.000740037678           
       1.163088             0.00806026248            0.000653853551           
       1.165728             0.00899293938            0.000709101306           
       1.168369             0.00943067798            0.000732862934           
       1.171009             0.00899779352            0.000694708658           
       1.173650             0.00796283393            0.000670682237           
       1.176290             0.00873511793            0.000686454301           
       1.178930             0.00974969611            0.000710786556           
       1.181571             0.00850962651             0.00067721544           
       1.184211              0.0106744091            0.000761168182           
       1.186851             0.00881701838            0.000676345788           
       1.189492             0.00983473444            0.000709508558           
       1.192132             0.00929533932            0.000682038058           
       1.194773             0.00863481098            0.000660230851           
       1.197413             0.00881754197            0.000639253113           
       1.200053              0.0105419246            0.000716730588           
       1.202694              0.0101370712            0.000668354102           
       1.205334              0.0084835547             0.00065891888           
       1.207975             0.00936197371            0.000660717017           
       1.210615              0.0103806288            0.000767513495           
       1.213255              0.0108825658            0.000703710885           
       1.215896             0.00957428633            0.000672017158           
       1.218536              0.0111286425            0.000696653574           
       1.221176             0.00937293412            0.000695096442           
       1.223817             0.00920204241             0.00064652313           
       1.226457             0.00915816207            0.000657973745           
       1.229098             0.00959018563            0.000673281607           
       1.231738              0.0106294965            0.000712314504           
       1.234378              0.0102974704            0.000658789962           
       1.237019             0.00915986633            0.000640280494           
       1.239659              0.0108692159            0.000691393184           
       1.242299              0.0101300197            0.000658988766           
       1.244940              0.0106416162            0.000656892448           
       1.247580              0.0101180001            0.000660116012           
       1.250221              0.0107910898            0.000677512833           
       1.252861              0.0100219801            0.000621585366           
       1.255501              0.0102854866            0.000683738158           
       1.258142              0.0104613678            0.000647964698           
       1.260782              0.0097953768            0.000640566769           
       1.263423              0.0107836294            0.000645815669           
       1.266063             0.00884284223            0.000599423494           
       1.268703              0.0108543925            0.000658600033           
       1.271344              0.0106281322            0.000673786185           
       1.273984              0.0106337001             0.00065091497           
       1.276624              0.0112766757            0.000657712507           
       1.279265              0.0104246854            0.000642880043           
       1.281905             0.00966251638            0.000621679844           
       1.284546              0.0110964641            0.000643956568           
       1.287186             0.00985041116            0.000595261002           
       1.289826              0.0105071098            0.000647930998           
       1.292467              0.0106766283            0.000638750971           
       1.295107              0.0108513569            0.000637559701           
       1.297747             0.00976681892            0.000578801499           
       1.300388              0.0115137517            0.000685075289           
       1.303028              0.0102256955            0.000616346645           
       1.305669              0.0105884254            0.000642116833           
       1.308309              0.0114796107            0.000662009111           
       1.310949              0.0102022583            0.000623464704           
       1.313590             0.00970493079            0.000589071041           
       1.316230              0.0105726372             0.00065612117           
       1.318871              0.0103728699            0.000636490386           
       1.321511              0.0103872584            0.000625125974           
       1.324151              0.0114684198            0.000637380724           
       1.326792              0.0114319496            0.000640300735           
       1.329432              0.0107587652            0.000616778846           
       1.332072              0.0101066508            0.000588885491           
       1.334713              0.0106073752            0.000622662413           
       1.337353              0.0113783475            0.000618466131           
       1.339994              0.0111599676            0.000642760247           
       1.342634             0.00996414393            0.000582408497           
       1.345274               0.011766592            0.000654988945           
       1.347915               0.011572554            0.000631628237           
       1.350555              0.0106461934            0.000616430942           
       1.353195              0.0113275065            0.000638972591           
       1.355836              0.0105834355            0.000607999251           
       1.358476                0.01036164            0.000584239735           
       1.361117              0.0116010231             0.00061904283           
       1.363757              0.0111339969            0.000624972137           
       1.366397              0.0106885222            0.000593811642           
       1.369038              0.0125873162            0.000650817808           
       1.371678              0.0108942963            0.000600131893           
       1.374319              0.0115943873            0.000613783453           
       1.376959              0.0107837674             0.00058598557           
       1.379599              0.0113671499            0.000644762164           
       1.382240              0.0109809993            0.000595597925           
       1.384880               0.010674831            0.000622016466           
       1.387520              0.0110504701            0.000601052354           
       1.390161              0.0116091127             0.00058510689           
       1.392801              0.0120839898            0.000621968212           
       1.395442              0.0114614604            0.000614008411           
       1.398082              0.0117619038            0.000582479611           
       1.400722              0.0122424647            0.000622473487           
       1.403363               0.011676092            0.000639893088           
       1.406003               0.011882888            0.000604133875           
       1.408644              0.0113008945            0.000617176791           
       1.411284               0.010582213            0.000565523575           
       1.413924              0.0127604546              0.0006187034           
       1.416565               0.010712193            0.000564649964           
       1.419205              0.0118824344             0.00062035969           
       1.421845             0.00959554487            0.000557148022           
       1.424486              0.0103975069            0.000557477876           
       1.427126              0.0105674852            0.000583826168           
       1.429767              0.0108620546            0.000556912855           
       1.432407              0.0110350816            0.000587446004           
       1.435047              0.0112180796             0.00055626507           
       1.437688              0.0115365021            0.000572538906           
       1.440328              0.0126683133            0.000612333618           
       1.442968              0.0114015533            0.000593928168           
       1.445609              0.0101411114            0.000542368486           
       1.448249              0.0106918338            0.000571001059           
       1.450890              0.0116481443            0.000592100285           
       1.453530              0.0109518542            0.000600656127           
       1.456170             0.00997942232            0.000556468805           
       1.458811              0.0118594077            0.000580066813           
       1.461451              0.0110261208            0.000560784064           
       1.464092              0.0101634801            0.000541920534           
       1.466732              0.0119396022            0.000582319304           
       1.469372              0.0104754169             0.00053268108           
       1.472013              0.0109598538            0.000587641137           
       1.474653              0.0110605066            0.000581226711           
       1.477293              0.0109062218             0.00058932324           
       1.479934              0.0102662903            0.000545590301           
       1.482574              0.0105487248            0.000534983868           
       1.485215              0.0115398192            0.000569973464           
       1.487855               0.011184918            0.000568542767           
       1.490495              0.0112680465            0.000568549956           
       1.493136               0.011235438            0.000559944936           
       1.495776              0.0114667076            0.000563102797           
       1.498416              0.0118856293            0.000592053288           
       1.501057              0.0118454552             0.00057802595           
       1.503697              0.0108289527            0.000540321579           
       1.506338              0.0106738291             0.00054624019           
       1.508978              0.0106061677            0.000539151293           
       1.511618              0.0118312856            0.000606449991           
       1.514259               0.010255559            0.000545117219           
       1.516899              0.0102351392            0.000530234805           
       1.519540              0.0103566088             0.00054197293           
       1.522180              0.0107146382            0.000556103925           
       1.524820              0.0107536076            0.000553988616           
       1.527461              0.0097963305            0.000531371244           
       1.530101              0.0109855046            0.000557071658           
       1.532741              0.0105296651            0.000542226354           
       1.535382              0.0104345487            0.000548461446           
       1.538022              0.0103941068            0.000515677479           
       1.540663              0.0107908349            0.000565128816           
       1.543303              0.0107389389            0.000523468019           
       1.545943              0.0103810501             0.00054474177           
       1.548584              0.0112871366            0.000578214043           
       1.551224              0.0100021982            0.000503263902           
       1.553864              0.0102634304            0.000538692132           
       1.556505              0.0106242336            0.000529458509           
       1.559145              0.0106626232            0.000536911741           
       1.561786              0.0108319611            0.000541575192           
       1.564426              0.0102650364            0.000510813739           
       1.567066             0.00985946726            0.000524554668           
       1.569707              0.0104651909            0.000530719928           
       1.572347              0.0101897573            0.000541023449           
       1.574988             0.00970123749            0.000502467749           
       1.577628              0.0100941757            0.000534455659           
       1.580268             0.00940821242            0.000499926145           
       1.582909             0.00990045399            0.000543587447           
       1.585549              0.0113941061            0.000566222247           
       1.588189             0.00895866776            0.000491116928           
       1.590830             0.00949579741            0.000504990816           
       1.593470             0.00886978575            0.000507386463           
       1.596111             0.00928669995            0.000506875205           
       1.598751             0.00958629882            0.000499004631           
       1.601391             0.00936326093            0.000504046057           
       1.604032             0.00957324533            0.000520321359           
       1.606672             0.00967035854            0.000508099292           
       1.609312             0.00845238494            0.000495871081           
       1.611953              0.0089338376            0.000498869175           
       1.614593             0.00890371574            0.000488525492           
       1.617234             0.00913311329            0.000512777153           
       1.619874             0.00949281108            0.000520712127           
       1.622514             0.00955277039            0.000515228344           
       1.625155             0.00950311135            0.000516923207           
       1.627795             0.00931936882             0.00049935896           
       1.630436             0.00851780775            0.000474908378           
       1.633076             0.00806098067            0.000468057028           
       1.635716             0.00927161264            0.000494165131           
       1.638357             0.00903058586            0.000488985125           
       1.640997             0.00932993209            0.000512079354           
       1.643637             0.00850432141            0.000475752418           
       1.646278             0.00869969558            0.000496305159           
       1.648918             0.00896152061             0.00050509228           
       1.651559             0.00829528105            0.000489726024           
       1.654199             0.00807743068            0.000470005657           
       1.656839             0.00864389402             0.00048637669           
       1.659480             0.00795494168            0.000484112564           
       1.662120             0.00915098564             0.00048903139           
       1.664761             0.00896950977            0.000502915241           
       1.667401             0.00810946312            0.000457053572           
       1.670041             0.00913156957             0.00049239746           
       1.672682             0.00877139574            0.000480605501           
       1.675322             0.00828812634            0.000464174016           
       1.677962             0.00915430911            0.000482445195           
       1.680603             0.00831383681            0.000461179853           
       1.683243             0.00885352504            0.000496526597           
       1.685884             0.00908275589            0.000506627258           
       1.688524             0.00837485249            0.000477079926           
       1.691164             0.00908248698            0.000496939496           
       1.693805             0.00912188464            0.000503487036           
       1.696445             0.00879909589            0.000497367004           
       1.699085             0.00904288233            0.000487314794           
       1.701726             0.00828154567            0.000449246687           
       1.704366             0.00844185164            0.000477827652           
       1.707007             0.00860913337             0.00047178238           
       1.709647             0.00928115131            0.000495381704           
       1.712287             0.00831431961            0.000472951103           
       1.714928              0.0094665683            0.000508729205           
       1.717568             0.00887487257            0.000464006623           
       1.720209              0.0090458831            0.000490674937           
       1.722849             0.00878074944            0.000480945284           
       1.725489             0.00906487322            0.000489074777           
       1.728130             0.00948123031            0.000531551696           
       1.730770             0.00832576296            0.000473070543           
       1.733410             0.00872123567            0.000476564826           
       1.736051             0.00887745403            0.000484160779           
       1.738691             0.00878971608            0.000471996356           
       1.741332             0.00897852493            0.000490987744           
       1.743972             0.00826884577             0.00048657757           
       1.746612             0.00832107893            0.000468711929           
       1.749253             0.00828185917            0.000476840499           
       1.751893             0.00881934711            0.000488458729           
       1.754533             0.00820113895            0.000470588135           
       1.757174             0.00855761294            0.000476205163           
       1.759814             0.00839581806              0.0004645322           
       1.762455             0.00854685196            0.000477298027           
       1.765095             0.00890086635            0.000465953805           
       1.767735             0.00845327293            0.000468095684           
       1.770376             0.00831174108             0.00046538417           
       1.773016             0.00920529717            0.000486480797           
       1.775657             0.00848672439            0.000460386465           
       1.778297             0.00932622822            0.000478464445           
       1.780937             0.00894126704            0.000494486309           
       1.783578             0.00834446988            0.000465754268           
       1.786218             0.00893902956            0.000503084155           
       1.788858             0.00904224724            0.000480559233           
       1.791499             0.00788366612            0.000443677825           
       1.794139             0.00879656369            0.000464860082           
       1.796780              0.0095045738            0.000480876215           
       1.799420             0.00819578993             0.00044406923           
       1.802060             0.00972387592            0.000487605743           
       1.804701             0.00883011457            0.000445905788           
       1.807341             0.00947342331            0.000485317823           
       1.809981             0.00963315981            0.000491023975           
       1.812622             0.00883739445            0.000461838878           
       1.815262             0.00928213494            0.000483371571           
       1.817903             0.00833312678            0.000451209386           
       1.820543             0.00935863716            0.000485618854           
       1.823183             0.00877686823            0.000470024186           
       1.825824             0.00897399286            0.000454056711           
       1.828464             0.00970754319            0.000492340973           
       1.831105             0.00896207758            0.000459980303           
       1.833745             0.00906623435            0.000472526221           
       1.836385             0.00884494139            0.000480043343           
       1.839026             0.00885654891            0.000478840561           
       1.841666             0.00924695848            0.000487545787           
       1.844306             0.00877697062            0.000462033719           
       1.846947             0.00978360696            0.000492086181           
       1.849587             0.00899147444            0.000520920626           
       1.852228             0.00907127646            0.000473127035           
       1.854868             0.00922194603            0.000503922271           
       1.857508             0.00963206177            0.000509954411           
       1.860149             0.00861775486             0.00049112097           
       1.862789             0.00797809145            0.000456112837           
       1.865429             0.00999619397            0.000532938352           
       1.868070             0.00890471393            0.000496297765           
       1.870710             0.00923696102            0.000493818309           
       1.873351             0.00894910448            0.000492071688           
       1.875991             0.00942460438            0.000513216623           
       1.878631             0.00858727047            0.000480505474           
       1.881272             0.00921650806            0.000494463553           
       1.883912             0.00838848906            0.000490933111           
       1.886553             0.00873426973            0.000495348655           
       1.889193             0.00826117087            0.000480923272           
       1.891833             0.00879949263            0.000515473823           
       1.894474             0.00896119392             0.00051565817           
       1.897114             0.00849870991             0.00048594469           
       1.899754             0.00918042761            0.000507171833           
       1.902395             0.00928599197             0.00050010678           
       1.905035             0.00874782924            0.000514118732           
       1.907676             0.00923005783            0.000497735029           
       1.910316             0.00845050572            0.000488897903           
       1.912956             0.00884443288            0.000489159644           
       1.915597             0.00886354722            0.000492424737           
       1.918237             0.00747089088            0.000466896147           
       1.920878             0.00887415442            0.000506776056           
       1.923518             0.00851448687            0.000496610693           
       1.926158             0.00857111694            0.000491793787           
       1.928799             0.00792969963            0.000467558865           
       1.931439             0.00890668107            0.000508522475           
       1.934079             0.00794645727             0.00050073136           
       1.936720             0.00793001437            0.000463461905           
       1.939360             0.00878394329            0.000520390638           
       1.942001             0.00832939477            0.000464459856           
       1.944641             0.00851659436            0.000478901178           
       1.947281             0.00752900603             0.00044612861           
       1.949922             0.00887930055             0.00050043049           
       1.952562             0.00851437282            0.000505399659           
       1.955202              0.0077702337            0.000482220802           
       1.957843              0.0088448769            0.000501145323           
       1.960483             0.00845795515             0.00051235851           
       1.963124             0.00797177845            0.000487210318           
       1.965764             0.00824976645            0.000467395243           
       1.968404             0.00744681729            0.000439871596           
       1.971045             0.00835112578            0.000474922463           
       1.973685             0.00749325581            0.000471878358           
       1.976326             0.00776582337            0.000473781732           
       1.978966             0.00803033031            0.000486010821           
       1.981606             0.00769977348            0.000485828001           
       1.984247             0.00789599886            0.000488745086           
       1.986887             0.00832060762            0.000495704241           
       1.989527             0.00790765508            0.000478042513           
       1.992168             0.00739918226            0.000479797637           
       1.994808             0.00795110592            0.000495238469           
       1.997449             0.00699188892            0.000454868756           
       2.000089             0.00848654276            0.000499147605           
       2.002729             0.00875894569            0.000507399227           
       2.005370             0.00877093782             0.00050228326           
       2.008010             0.00794726242            0.000498983944           
       2.010650             0.00765853676             0.00049349107           
       2.013291             0.00722752642            0.000459961167           
       2.015931             0.00819096153             0.00048619768           
       2.018572             0.00791068488             0.00051105974           
       2.021212             0.00697394554            0.000471226935           
       2.023852             0.00769199957             0.00046839199           
       2.026493              0.0077141635            0.000490023228           
       2.029133             0.00760917742            0.000476883403           
       2.031774             0.00853765121            0.000530134177           
       2.034414             0.00741011159            0.000454446092           
       2.037054             0.00855328055             0.00050061874           
       2.039695             0.00817550076            0.000485741758           
       2.042335              0.0081040531            0.000502581732           
       2.044975             0.00788356725            0.000489686294           
       2.047616             0.00766152213            0.000481541735           
       2.050256             0.00733127243            0.000475506797           
       2.052897             0.00709418625             0.00047637823           
       2.055537             0.00782748435            0.000483611358           
       2.058177             0.00833783612            0.000488781051           
       2.060818             0.00804471444            0.000502955014           
       2.063458             0.00777330539            0.000515211809           
       2.066098             0.00759383628            0.000480374008           
       2.068739             0.00748192169              0.0004842328           
       2.071379             0.00795204107            0.000512233869           
       2.074020             0.00792130612            0.000500132275           
       2.076660              0.0069592393            0.000472567739           
       2.079300             0.00771256404            0.000509677416           
       2.081941             0.00682767539            0.000439081175           
       2.084581             0.00738411175            0.000481969737           
       2.087222             0.00804510819            0.000485172054           
       2.089862             0.00745181838            0.000508568774           
       2.092502             0.00626297977            0.000451952636           
       2.095143             0.00796559997            0.000526337885           
       2.097783             0.00828174478            0.000519597644           
       2.100423             0.00771762378            0.000483327227           
       2.103064             0.00697278607            0.000476702011           
       2.105704             0.00751496246             0.00049243703           
       2.108345             0.00708402249            0.000459335265           
       2.110985             0.00771750552            0.000512069579           
       2.113625             0.00719538309            0.000498759145           
       2.116266             0.00735718463            0.000511491066           
       2.118906             0.00752572614            0.000482110106           
       2.121546              0.0074455171            0.000470378283           
       2.124187             0.00804687618            0.000513304448           
       2.126827             0.00767135793            0.000506777928           
       2.129468             0.00788238481            0.000515013134           
       2.132108             0.00829517018            0.000514021175           
       2.134748             0.00777848189            0.000495823992           
       2.137389             0.00804131973            0.000525934311           
       2.140029             0.00712258408            0.000443135265           
       2.142670             0.00762113897            0.000489882615           
       2.145310             0.00785468518            0.000484062227           
       2.147950              0.0076498634            0.000491692992           
       2.150591             0.00759275567            0.000484903763           
       2.153231             0.00715853926            0.000484650659           
       2.155871             0.00713180272            0.000467329597           
       2.158512              0.0083332275            0.000527100206           
       2.161152             0.00759847268            0.000487553364           
       2.163793             0.00766232289            0.000487393424           
       2.166433              0.0074811437            0.000494549003           
       2.169073             0.00731378989            0.000478099673           
       2.171714             0.00717812165            0.000470103907           
       2.174354             0.00671764015            0.000475198127           
       2.176995             0.00733517325            0.000494470377           
       2.179635             0.00689809742            0.000506707928           
       2.182275             0.00718856769            0.000488381506           
       2.184916             0.00669509201            0.000455234357           
       2.187556             0.00746352629            0.000475832345           
       2.190196             0.00782135982            0.000509018717           
       2.192837             0.00761124726            0.000499403021           
       2.195477             0.00735386811             0.00046800206           
       2.198118             0.00801254162            0.000501029128           
       2.200758             0.00702914082            0.000481449361           
       2.203398             0.00764313164            0.000505248052           
       2.206039             0.00651930869            0.000441622836           
       2.208679             0.00752241208            0.000485423427           
       2.211319             0.00696732651             0.00046986403           
       2.213960             0.00709780624             0.00048059735           
       2.216600             0.00704862673            0.000495441853           
       2.219241             0.00844095095            0.000518168782           
       2.221881               0.007601109            0.000492726652           
       2.224521             0.00788193528            0.000507894421           
       2.227162             0.00766650845            0.000490876225           
       2.229802             0.00694254486            0.000481747231           
       2.232443             0.00721699563            0.000483429799           
       2.235083              0.0069755915            0.000489295153           
       2.237723             0.00837271379            0.000514427534           
       2.240364             0.00737309323            0.000494635688           
       2.243004             0.00725217244            0.000486646917           
       2.245644             0.00763826542            0.000504432102           
       2.248285             0.00688329346            0.000469261534           
       2.250925             0.00722703576            0.000483756819           
       2.253566             0.00784743033            0.000538914088           
       2.256206             0.00689366839            0.000495004625           
       2.258846             0.00731148489             0.00048494633           
       2.261487             0.00728565571            0.000508096302           
       2.264127             0.00700471426            0.000481157221           
       2.266767             0.00793826996             0.00052586476           
       2.269408             0.00692513451            0.000493173869           
       2.272048             0.00871838869            0.000550052241           
       2.274689             0.00744200495            0.000514891635           
       2.277329             0.00621581564            0.000443067579           
       2.279969             0.00687963134            0.000496164622           
       2.282610             0.00746411766            0.000502437888           
       2.285250              0.0071963407            0.000472196324           
       2.287891             0.00702885642            0.000500339776           
       2.290531             0.00672168902            0.000495862306           
       2.293171             0.00672980807             0.00048330635           
       2.295812             0.00640801832             0.00046971432           
       2.298452             0.00741049603            0.000528222505           
       2.301092             0.00731775689            0.000487702972           
       2.303733             0.00749411656            0.000513459068           
       2.306373             0.00715917629             0.00050975715           
       2.309014             0.00689790623            0.000490607982           
       2.311654             0.00717867561            0.000522288346           
       2.314294             0.00706797441            0.000477461618           
       2.316935             0.00739612727            0.000490437564           
       2.319575             0.00699639521            0.000499785973           
       2.322215             0.00751901936            0.000539964953           
       2.324856             0.00732095137            0.000489859437           
       2.327496             0.00715438195            0.000514914732           
       2.330137             0.00801787297            0.000521623116           
       2.332777             0.00688106599            0.000498263045           
       2.335417             0.00672954831            0.000478038029           
       2.338058             0.00680107504            0.000494927519           
       2.340698             0.00787278958            0.000528312391           
       2.343339              0.0082362013             0.00055225972           
       2.345979              0.0061700242             0.00045222126           
       2.348619             0.00715282283            0.000504705493           
       2.351260             0.00646372908            0.000476983289           
       2.353900             0.00629983158            0.000469405445           
       2.356540             0.00624357442            0.000466641512           
       2.359181              0.0071520408            0.000492436281           
       2.361821             0.00728485666             0.00048007678           
       2.364462             0.00838854541            0.000538794628           
       2.367102             0.00738039706            0.000519360872           
       2.369742              0.0072987082            0.000543629439           
       2.372383             0.00767788131            0.000504879731           
       2.375023             0.00719737357            0.000513862008           
       2.377663             0.00714655897            0.000489590035           
       2.380304             0.00724580164             0.00050119754           
       2.382944             0.00723878566            0.000477143621           
       2.385585             0.00708319078            0.000503383077           
       2.388225             0.00716751718            0.000503991222           
       2.390865             0.00749535456            0.000510094273           
       2.393506             0.00717520329            0.000489665732           
       2.396146              0.0074310238             0.00053880435           
       2.398787              0.0072663609            0.000491017715           
       2.401427             0.00641927514            0.000445464121           
       2.404067             0.00607335214            0.000442960198           
       2.406708             0.00628005119            0.000445033486           
       2.409348             0.00683381301            0.000492417434           
       2.411988             0.00800317311            0.000522108798           
       2.414629             0.00622620979            0.000474855019           
       2.417269             0.00678220999            0.000501390278           
       2.419910             0.00674293282            0.000501096421           
       2.422550             0.00688179914            0.000484329653           
       2.425190             0.00735983457            0.000527968152           
       2.427831             0.00764613309            0.000535114128           
       2.430471             0.00653518253            0.000471310811           
       2.433112             0.00683696897            0.000469421529           
       2.435752             0.00736436485            0.000515599697           
       2.438392             0.00630544925            0.000460492214           
       2.441033             0.00752055582            0.000532982252           
       2.443673             0.00809583724            0.000553416891           
       2.446313             0.00745337442            0.000531472431           
       2.448954             0.00782694732            0.000518562599           
       2.451594             0.00590503694            0.000484305221           
       2.454235             0.00656760693             0.00047921726           
       2.456875             0.00719507756            0.000524840194           
       2.459515             0.00736743798             0.00054483784           
       2.462156             0.00800660383            0.000536252402           
       2.464796             0.00686356412            0.000490095092           
       2.467436             0.00767306406            0.000535870418           
       2.470077             0.00810787216            0.000522100364           
       2.472717             0.00776558179            0.000513174134           
       2.475358             0.00705536068            0.000494245062           
       2.477998             0.00769692367            0.000507524855           
       2.480638             0.00754947325            0.000511571452           
       2.483279               0.007529639              0.0005339709           
       2.485919             0.00738032918            0.000509475309           
       2.488560             0.00727405301            0.000504380539           
       2.491200             0.00730644143            0.000520533666           
       2.493840             0.00697372985            0.000538106018           
       2.496481             0.00702158105            0.000531116618           
       2.499121             0.00754978756            0.000535674195           
       2.501761             0.00713412654             0.00052761868           
       2.504402             0.00684863033            0.000509401004           
       2.507042             0.00697834122            0.000510393152           
       2.509683             0.00654354612            0.000486683403           
       2.512323             0.00761353904            0.000551347343           
       2.514963             0.00723344823            0.000530769292           
       2.517604              0.0081338074            0.000584026453           
       2.520244             0.00762936264            0.000530275825           
       2.522884             0.00723483416             0.00052376783           
       2.525525             0.00720745069             0.00052870928           
       2.528165             0.00679785353            0.000505462604           
       2.530806              0.0103159016            0.000633521509           
       2.533446             0.00864127155            0.000567448576           
       2.536086             0.00841407343             0.00055492748           
       2.538727             0.00747745693            0.000501864199           
       2.541367             0.00747593781            0.000506756316           
       2.544008              0.0064400296            0.000485744558           
       2.546648             0.00694193669            0.000512968253           
       2.549288             0.00725987832            0.000535272583           
       2.551929             0.00779832868            0.000545924525           
       2.554569              0.0071949245            0.000505194889           
       2.557209             0.00733013697            0.000514602785           
       2.559850             0.00787352971             0.00053504856           
       2.562490             0.00675489777            0.000512213356           
       2.565131             0.00672324805            0.000529840223           
       2.567771              0.0069773929            0.000520411178           
       2.570411             0.00766695355            0.000539618498           
       2.573052              0.0067831629             0.00051395692           
       2.575692             0.00722691182            0.000527289481           
       2.578332             0.00807231692            0.000559582402           
       2.580973             0.00789713858             0.00054821116           
       2.583613             0.00709975099             0.00050742106           
       2.586254             0.00726845104            0.000512700663           
       2.588894             0.00756945146            0.000543327501           
       2.591534             0.00769038774            0.000566921181           
       2.594175              0.0078464262            0.000561837633           
       2.596815             0.00719708009            0.000541260375           
       2.599456             0.00776091243            0.000533001071           
       2.602096             0.00661035168            0.000495651677           
       2.604736             0.00661793841            0.000507695754           
       2.607377             0.00804495685            0.000545011218           
       2.610017              0.0071230489             0.00050385928           
       2.612657             0.00645081922            0.000510014825           
       2.615298             0.00621871501            0.000488894859           
       2.617938             0.00748661003            0.000573835996           
       2.620579             0.00607297421            0.000496149494           
       2.623219             0.00651227014            0.000513048616           
       2.625859             0.00794974921            0.000551138313           
       2.628500             0.00814676522            0.000554268874           
       2.631140             0.00675096912            0.000512332208           
       2.633780             0.00726134962            0.000530883914           
       2.636421             0.00667248562            0.000521417544           
       2.639061             0.00703461505            0.000503998549           
       2.641702             0.00663873954            0.000500946681           
       2.644342               0.007805075            0.000545486258           
       2.646982               0.007398032            0.000523132563           
       2.649623             0.00820377027            0.000577304628           
       2.652263             0.00683421975            0.000521630072           
       2.654904             0.00686080681            0.000523169528           
       2.657544              0.0068957301            0.000494024005           
       2.660184             0.00745458228             0.00054359414           
       2.662825             0.00680704142            0.000531499388           
       2.665465             0.00800208081            0.000557346759           
       2.668105             0.00719101483            0.000556897813           
       2.670746             0.00794425759            0.000540727935           
       2.673386              0.0085988933            0.000579769292           
       2.676027             0.00844743183            0.000565417989           
       2.678667             0.00916482693            0.000574656038           
       2.681307              0.0112778488            0.000626349409           
       2.683948              0.0157126886            0.000759610622           
       2.686588              0.0117039937            0.000644718698           
       2.689229              0.0116060601            0.000627351172           
       2.691869               0.010136908            0.000619662461           
       2.694509             0.00861795373            0.000571666955           
       2.697150             0.00792534987             0.00053931991           
       2.699790              0.0074947408             0.00054982498           
       2.702430              0.0076699969             0.00053167597           
       2.705071             0.00718206139            0.000531624714           
       2.707711             0.00686851406             0.00050459283           
       2.710352             0.00720049263            0.000545898288           
       2.712992             0.00704357208            0.000549900214           
       2.715632              0.0072789086            0.000518651524           
       2.718273             0.00678822671            0.000519079176           
       2.720913             0.00681162408            0.000518493483           
       2.723553             0.00588245695            0.000485066763           
       2.726194             0.00743249255            0.000569957714           
       2.728834             0.00703816245            0.000554892363           
       2.731475             0.00833593717            0.000557335571           
       2.734115              0.0069154859            0.000523388872           
       2.736755             0.00866179733            0.000590577783           
       2.739396             0.00731599996            0.000539617953           
       2.742036             0.00763182344            0.000576805352           
       2.744677             0.00716924341            0.000542434029           
       2.747317             0.00747600041            0.000549967453           
       2.749957             0.00675054936            0.000526270527           
       2.752598             0.00783257576            0.000573032962           
       2.755238             0.00659249839            0.000535207745           
       2.757878             0.00742977788            0.000563211417           
       2.760519             0.00805480783            0.000580205197           
       2.763159             0.00723766539            0.000544491911           
       2.765800             0.00807061799            0.000547937936           
       2.768440              0.0080328195            0.000550680438           
       2.771080             0.00812151887            0.000558334327           
       2.773721             0.00803757883            0.000569769785           
       2.776361             0.00725719834            0.000548872987           
       2.779001             0.00680030794            0.000550229976           
       2.781642             0.00635304584            0.000527908388           
       2.784282             0.00624162867            0.000531863227           
       2.786923             0.00770407263            0.000596098899           
       2.789563              0.0055482153            0.000487207585           
       2.792203             0.00776197526            0.000550499246           
       2.794844             0.00660505836             0.00055656131           
       2.797484             0.00646260313            0.000519562936           
       2.800125             0.00650081199            0.000547933237           
       2.802765              0.0073941361            0.000574316397           
       2.805405             0.00713182312            0.000565946285           
       2.808046             0.00612533922            0.000533713715           
       2.810686             0.00631551639            0.000497975844           
       2.813326             0.00512463194             0.00046594575           
       2.815967              0.0067615732            0.000550432219           
       2.818607             0.00722041372             0.00054279291           
       2.821248              0.0068693198            0.000518440262           
       2.823888             0.00686305083            0.000537908515           
       2.826528             0.00574877048            0.000476776416           
       2.829169             0.00741752981            0.000567267265           
       2.831809             0.00731738702             0.00057108877           
       2.834449             0.00699214489            0.000561780674           
       2.837090             0.00650702647            0.000523430095           
       2.839730             0.00738332616            0.000554840073           
       2.842371             0.00773793952            0.000568827784           
       2.845011             0.00725567923            0.000555207348           
       2.847651             0.00625837719            0.000516273802           
       2.850292             0.00599052738            0.000510062265           
       2.852932             0.00711526913            0.000568001393           
       2.855573             0.00724297992            0.000555900076           
       2.858213             0.00747796555            0.000593156483           
       2.860853             0.00656861578            0.000517135914           
       2.863494             0.00643064663            0.000529769163           
       2.866134              0.0070095941            0.000574881708           
       2.868774             0.00655265144            0.000546265202           
       2.871415             0.00727323896            0.000584482557           
       2.874055             0.00678614614            0.000539660499           
       2.876696             0.00697123856            0.000561765407           
       2.879336             0.00751153582             0.00056202392           
       2.881976             0.00746876147            0.000578036056           
       2.884617             0.00724349922            0.000560892027           
       2.887257              0.0073275587            0.000567048992           
       2.889897             0.00731490983            0.000554899009           
       2.892538             0.00681651815            0.000586819567           
       2.895178             0.00648082515            0.000516933369           
       2.897819              0.0074963652            0.000567133944           
       2.900459             0.00708593517            0.000540663691           
       2.903099             0.00807969726            0.000571423053           
       2.905740             0.00658872188            0.000529363592           
       2.908380             0.00684083855            0.000545525328           
       2.911021               0.007094317            0.000564572456           
       2.913661             0.00709638203            0.000564485451           
       2.916301             0.00688727701            0.000556636907           
       2.918942             0.00761387935            0.000559818644           
       2.921582             0.00621968248            0.000529394901           
       2.924222             0.00625169839            0.000514200182           
       2.926863             0.00748528784            0.000586063766           
       2.929503             0.00695202735            0.000571493622           
       2.932144             0.00666236805            0.000537048525           
       2.934784             0.00682682109             0.00053472226           
       2.937424              0.0061572783            0.000513037934           
       2.940065             0.00739688972             0.00053639537           
       2.942705             0.00585861937            0.000476774355           
       2.945346             0.00647462965            0.000531914311           
       2.947986             0.00704219231             0.00056564109           
       2.950626             0.00664954796            0.000546551297           
       2.953267             0.00800876148            0.000590123899           
       2.955907             0.00640857458            0.000547610565           
       2.958547             0.00666584341            0.000527247158           
       2.961188             0.00744113817            0.000581175008           
       2.963828             0.00756494544            0.000573206469           
       2.966469             0.00769745602            0.000567217035           
       2.969109             0.00683869376            0.000542562492           
       2.971749             0.00653425466             0.00052703985           
       2.974390             0.00759741814            0.000558459756           
       2.977030             0.00634670302            0.000521833314           
       2.979670             0.00897669247            0.000603658713           
       2.982311             0.00902422766             0.00062731626           
       2.984951             0.00777053192            0.000553640165           
       2.987592             0.00694259231            0.000533796398           
       2.990232             0.00750654342            0.000577249611           
       2.992872             0.00775008375             0.00055248653           
       2.995513             0.00991707462            0.000611427941           
       2.998153              0.0147183548             0.00075738937           
       3.000794              0.0105000635            0.000619628269           
       3.003434             0.00942729077            0.000588008966           
       3.006074              0.0218608214             0.00088286365           
       3.008715              0.0774951214             0.00160459706           
       3.011355               0.254978941             0.00280674854           
       3.013995               0.193957465             0.00245462188           
       3.016636                0.10817189             0.00179504915           
       3.019276               0.144803681             0.00204151917           
       3.021917               0.534070316             0.00376993683           
       3.024557                1.19890287             0.00555337284           
       3.027197                1.08432818             0.00514904127           
       3.029838               0.676967904             0.00412616925           
       3.032478               0.267327695             0.00259553168           
       3.035118              0.0724182661             0.00136904021           
       3.037759              0.0688875635             0.00133352714           
       3.040399              0.0913727278             0.00158423461           
       3.043040               0.319205996             0.00299735144           
       3.045680               0.367367957             0.00302535916           
       3.048320               0.131392431             0.00184866681           
       3.050961               0.149073502             0.00200382334           
       3.053601               0.113603593             0.00168475284           
       3.056242               0.105072047             0.00172267685           
       3.058882               0.117712414             0.00195591904           
       3.061522              0.0897566552             0.00167569453           
       3.064163               0.111949694             0.00184786162           
       3.066803               0.172955848             0.00241804939           
       3.069443              0.0951502533             0.00187646535           
       3.072084              0.0414869206              0.0012065105           
       3.074724              0.0421501798             0.00135812455           
       3.077365              0.0294597744             0.00117535261           
       3.080005             0.00932949144            0.000665175788           
       3.082645              0.0151027884             0.00088908183           
       3.085286              0.0144430141             0.00087630456           
       3.087926              0.0111986895            0.000765684072           
       3.090566               0.011985111            0.000776117679           
       3.093207              0.0127280554            0.000832286499           
       3.095847             0.00904731084            0.000672568848           
       3.098488             0.00774476688            0.000689994586           
       3.101128             0.00882841086            0.000741424302           
       3.103768             0.00958948002            0.000758184012           
       3.106409             0.00826895817            0.000749296835           
       3.109049             0.00992908288             0.00078794545           
       3.111690             0.00948359978            0.000756846809           
       3.114330             0.00773539361            0.000698078976           
       3.116970             0.00677117878            0.000658137887           
       3.119611             0.00884916196            0.000800856267           
       3.122251              0.0138884753             0.00104948543           
       3.124891              0.0351916997             0.00168614864           
       3.127532              0.0241988203             0.00136785773           
       3.130172              0.0176616805             0.00118877617           
       3.132813              0.0110444141            0.000925456318           
       3.135453             0.00821355958            0.000791513101           
       3.138093             0.00731601172            0.000809417697           
       3.140734             0.00640254108            0.000698577033           
       3.143374             0.00646340047            0.000742278674           
       3.146014             0.00661009177            0.000808113991           
       3.148655             0.00810115431            0.000831639274           
       3.151295             0.00581183849            0.000750646507           
       3.153936             0.00686445036            0.000788034357           
       3.156576             0.00509633366            0.000669766407           
       3.159216             0.00595389707            0.000727548475           
       3.161857             0.00578951165            0.000714514669           
       3.164497             0.00748806675            0.000853804954           
       3.167138             0.00776979045             0.00089863098           
       3.169778             0.00651210433            0.000809124967           
       3.172418             0.00728065859            0.000846837658           
       3.175059             0.00642024838            0.000705001794           
       3.177699             0.00606093982            0.000725363076           
       3.180339               0.008179075            0.000902814029           
       3.182980             0.00563748944            0.000774937955           
       3.185620             0.00574648739            0.000796801281           
       3.188261             0.00594040006             0.00082459073           
       3.190901             0.00482257545            0.000683314942           
       3.193541             0.00542439633            0.000761482903           
       3.196182             0.00428018645            0.000704925625           
       3.198822             0.00544445895            0.000795307097           
       3.201463             0.00674436789            0.000869922638           
       3.204103              0.0066625303            0.000859368112           
       3.206743             0.00632997627            0.000837567683           
       3.209384             0.00554934419             0.00084728624           
       3.212024             0.00537846734            0.000777679455           
       3.214664             0.00537543449            0.000884082975           
       3.217305             0.00600641013            0.000888336303           
       3.219945             0.00527874704            0.000857155551           
       3.222586             0.00618798225            0.000883946855           
       3.225226             0.00606036405            0.000970436924           
       3.227866             0.00387021537             0.00070880528           
       3.230507             0.00694920229            0.000984559386           
       3.233147             0.00624211194            0.000940660698           
       3.235787             0.00531400668            0.000888204758           
       3.238428             0.00570980418            0.000993539255           
       3.241068             0.00437746022            0.000813430061           
       3.243709             0.00660526424             0.00103233661           
       3.246349             0.00616883673            0.000909450284           
       3.248989             0.00654768105             0.00110634119           
       3.251630             0.00555534349            0.000981329309           
       3.254270             0.00470249521            0.000806917742           
       3.256911             0.00542206615            0.000945401776           
       3.259551             0.00477353595            0.000955001646           
       3.262191             0.00516790535             0.00101498222           
       3.264832             0.00564035031             0.00110791953           
       3.267472             0.00649423835             0.00111524917           
       3.270112             0.00370258764            0.000930620964           
       3.272753             0.00567466504             0.00105454486           
       3.275393              0.0048826983             0.00099809841           
       3.278034             0.00384043924            0.000885682999           
       3.280674             0.00456269289             0.00104757178           
       3.283314             0.00540508884             0.00101972767           
       3.285955             0.00575107944             0.00108528738           
       3.288595             0.00430658948             0.00104484398           
       3.291235              0.0048175477             0.00113602325           
       3.293876             0.00468179986              0.0011359965           
       3.296516             0.00559168159              0.0011918543           
       3.299157             0.00840038928             0.00144248102           
       3.301797             0.00515814719             0.00128935623           
       3.304437             0.00556624091             0.00116042196           
       3.307078             0.00292277775            0.000926278586           
       3.309718             0.00591204965             0.00135977817           
       3.312359             0.00502374024             0.00125376392           
       3.314999             0.00667309269             0.00142271393           
       3.317639             0.00527738011              0.0012100195           
       3.320280             0.00626401979              0.0014016104           
       3.322920             0.00685239101             0.00149063249           
       3.325560             0.00741192256              0.0015513504           
       3.328201             0.00787851926             0.00144048456           
       3.330841             0.00545367942             0.00145862616           
       3.333482             0.00415248007             0.00120306827           
       3.336122             0.00655338651             0.00151205983           
       3.338762              0.0079075037             0.00191865109           
       3.341403             0.00591639774             0.00158581989           
       3.344043             0.00429248201             0.00129684467           
       3.346683             0.00649152237             0.00162816369           
       3.349324             0.00463332208             0.00154655173           
       3.351964             0.00631648607             0.00190950604           
       3.354605              0.0037763923             0.00168855817           
       3.357245             0.00610705314             0.00193709573           
       3.359885             0.00435141782             0.00130868824           
       3.362526              0.0079498278             0.00221206508           
       3.365166             0.00439784787              0.0015518151           
       3.367807              0.0080579107             0.00268826514           
       3.370447             0.00491748086             0.00174203083           
       3.373087             0.00982792791             0.00263355708           
       3.375728             0.00808630909             0.00269603889           
       3.378368             0.00193962694             0.00195965665           
       3.381008               0.006535751             0.00268192586           
       3.383649             0.00494912692             0.00187218074           
       3.386289             0.00591408221             0.00242218717           
       3.388930             0.00250412225             0.00249307359           
       3.391570             0.00487407302             0.00246045734           
       3.394210             0.00601919574             0.00346026232           
       3.396851             0.00989563212              0.0049628981           
       3.399491             0.00242397035             0.00245696703           
       3.402131             0.00484962397              0.0049168414           
       3.404772           -2.66446678e-05                         0           
       3.407412                       nan                       nan           
       3.410053           -2.67102938e-05                         0           
       3.412693                       nan                       nan           
       3.415333             0.00906751005             0.00953113704           
