################################################################################
# EDF_DataBlockID                     0.Image.Psd
# EDF_BinarySize                      2105344
# EDF_HeaderSize                      2560
# ByteOrder                           LowByteFirst
# DataType                            FloatValue
# Dim_1                               512
# Dim_2                               1028
# Image                               0
# HeaderID                            EH:000000:000000:000000
# Size                                2105344
# Center_1                            304.9000
# Center_2                            588.7000
# Comment                             Xenocs_Cell_Window - 20251028_20perc_iodine_1.23mg
# DDummy                              0.6
# Date                                2025-10-30T12:40:29
# Delta                               21.910000
# Dummy                               -1.5
# ExposureTime                        360
# Gamma                               15.360000
# Intensity1                          8.59441e-10
# PSize_1                             7.5e-05
# PSize_2                             7.5e-05
# Pressure                            0.0326319
# SampleDistance                      0.115750
# SampleEnvKind                       large
# SampleEnvPN                         ElectroChemical cell
# SampleEnvSN                         1141
# Thickness                           0
# Wavelength                          1.541891e-10
# Wavelength                          1.54189e-10
# aux                                 0
# aux_dial                            0.002375
# beamx                               588.434
# beamx_dial                          588.434
# beamz                               657.808
# beamz_dial                          657.808
# det0x                               0
# det0x_dial                          6.36945
# det0xvd                             0
# det0xvd_dial                        0
# det0y                               450.002
# det0y_dial                          481.635
# det0z                               0
# det0z_dial                          1.23302
# det0zvd                             0
# det0zvd_dial                        0
# mag                                 1.818
# mag_dial                            1.818
# om                                  0.2499
# om_dial                             -0.610199
# phi                                 -0.0120535
# phi_dial                            0
# ry                                  0.599993
# ry_dial                             0.599993
# s1bot                               0.8
# s1bot_dial                          -1.66094
# s1hl                                0.8
# s1hl_dial                           -0.608437
# s1hr                                0.8
# s1hr_dial                           0.970938
# s1top                               0.8
# s1top_dial                          -0.461562
# s2bot                               0.45
# s2bot_dial                          1.36109
# s2hl                                0.45
# s2hl_dial                           -0.83375
# s2hr                                0.45
# s2hr_dial                           -0.118594
# s2top                               0.45
# s2top_dial                          1.44734
# w2theta                             32
# w2theta_dial                        32
# waxsch                              19.2605
# waxsch_dial                         -32.7355
# waxsh                               137.085
# waxsh_dial                          -43.5338
# waxsth                              26.0607
# waxsth_dial                         -19.4086
# waxsz                               67.0407
# waxsz_dial                          -23.7954
# wind                                65.9854
# wind_dial                           66.0041
# wpsi                                124
# wpsi_dial                           124
# wstod                               115
# wstod_dial                          115
# x                                   0
# x_dial                              1.00969
# z                                   0
# z_dial                              13.3172
# CountCutoff                         6807993
# DetectorModel                       Dectris EIGER2 Si 500K, S/N E-01-0554
# ThresholdSetting                    4023.88989258
# Saturation                          0
# FlatField                           Corrected
# BackgroundReductionExtra            0.02
# BackgroundCorrectionConstant        0.0026712
# Detector                            0
# Monitor                             0
# Pil_Roi0                            0
# SumForIntensity1                    3.09399e+08
# TransmittedFlux                     859441
# det                                 0
# mon                                 0
# pilai0                              3.09399e+08
# pilai1                              781320
# pilct0                              5.34426e+08
# pilct1                              781320
# pilroi0                             0
# pilroi1                             0
# sec                                 1
# title                               20251028_20perc_iodine_1.23mg_1_00421.edf
# usaxs0                              0
# Operation                           Azimuthal average I(q)
# Error_model                         ErrorModel.poisson
# Geometrical_correction              True
# Transmission_correction             True
# Thickness_correction                False
# Binning mode                        Uniform
# Binning factor                      1.0
# Psi                                 0.0
# Omega                               0.2499
# MaskInvalidPixels                   True
# DetectorEdge                        3
# MaskFiles                           ['WAXS_corrected.edf']
################################################################################
    q(A⁻¹)                Intensity(a.u.)            Sigma_I(a.u.)            
       0.693100             0.00409779567             0.00425677979           
       0.695741           -2.35969125e-05                         0           
       0.698381             0.00415069564             0.00428239827           
       0.701021           -2.35865277e-05                         0           
       0.703662              0.0255033129             0.00866196765           
       0.706302             0.00511818964             0.00300423291           
       0.708942              0.0199846469             0.00766204516           
       0.711583             0.00653144674             0.00379303593           
       0.714223             0.00291424148              0.0029251285           
       0.716864             0.00372530606             0.00216388384           
       0.719504             0.00877431299              0.0035836648           
       0.722144             0.00121502273             0.00123497976           
       0.724785             0.00866157655             0.00263025295           
       0.727425              0.0160524168             0.00484405766           
       0.730065              0.0123669794             0.00300754494           
       0.732706             0.00510547756             0.00162273363           
       0.735346             0.00612651642             0.00231718103           
       0.737987             0.00739645595             0.00179912804           
       0.740627             0.00875311649             0.00292023681           
       0.743267              0.0065135013               0.001687276           
       0.745908             0.00769290956             0.00198944948           
       0.748548             0.00701569927             0.00175120713           
       0.751189             0.00397284967             0.00177570014           
       0.753829             0.00603358988             0.00201155338           
       0.756469             0.00868305575             0.00194586771           
       0.759110             0.00774577904             0.00193677916           
       0.761750             0.00945545216               0.001892123           
       0.764390             0.00867056446              0.0018964324           
       0.767031              0.0077429006              0.0015519034           
       0.769671             0.00923397075             0.00211408151           
       0.772312             0.00751152533             0.00145158643           
       0.774952             0.00613210136             0.00177110052           
       0.777592             0.00758510106             0.00143475063           
       0.780233             0.00668316536             0.00162484004           
       0.782873             0.00393183741             0.00119195515           
       0.785513             0.00450205747             0.00136355115           
       0.788154             0.00977145607             0.00168046483           
       0.790794             0.00616791433             0.00159616575           
       0.793435             0.00731783437             0.00156188958           
       0.796075             0.00806250329             0.00157928371           
       0.798715             0.00731043647             0.00177709073           
       0.801356             0.00949330932             0.00174294096           
       0.803996             0.00928029065             0.00175690131           
       0.806637             0.00589200021             0.00111406409           
       0.809277             0.00788800977             0.00139522372           
       0.811917             0.00624970001             0.00116098702           
       0.814558             0.00669474858             0.00124886293           
       0.817198             0.00672899648             0.00118950925           
       0.819838             0.00817496423             0.00132692941           
       0.822479             0.00535059708             0.00126059364           
       0.825119             0.00730399157             0.00125356784           
       0.827760             0.00818407677             0.00134414275           
       0.830400             0.00562938119             0.00104921884           
       0.833040             0.00792686406             0.00130442801           
       0.835681             0.00832575792             0.00151976483           
       0.838321              0.0091875097             0.00133997632           
       0.840961              0.0066963468             0.00124641647           
       0.843602             0.00850288017             0.00128800017           
       0.846242             0.00873777629             0.00130547503           
       0.848883             0.00735256369             0.00122550272           
       0.851523             0.00938301799             0.00136721756           
       0.854163              0.0112533525             0.00159230584           
       0.856804             0.00800199077             0.00120728689           
       0.859444              0.0094611019             0.00128624223           
       0.862085             0.00568603199             0.00103927048           
       0.864725             0.00576777119             0.00107120355           
       0.867365              0.0082219938             0.00118596661           
       0.870006             0.00713331236             0.00105265824           
       0.872646             0.00803332217              0.0011714267           
       0.875286             0.00677489371             0.00103495574           
       0.877927             0.00747595951             0.00104908417           
       0.880567             0.00809645679             0.00113107821           
       0.883208             0.00507530785            0.000887085525           
       0.885848             0.00598840813              0.0010004911           
       0.888488             0.00759101682             0.00105652985           
       0.891129             0.00773049057             0.00109475643           
       0.893769             0.00765709089              0.0010427246           
       0.896410             0.00616282034            0.000872181029           
       0.899050             0.00686793129             0.00101254699           
       0.901690             0.00619133825             0.00104722072           
       0.904331             0.00766732844             0.00103317457           
       0.906971             0.00725729146             0.00106933392           
       0.909611             0.00612437776            0.000894233966           
       0.912252              0.0076591521             0.00103292001           
       0.914892             0.00930705804             0.00124427967           
       0.917533             0.00888256165             0.00114992726           
       0.920173             0.00845048351             0.00104063395           
       0.922813             0.00819206914             0.00107520145           
       0.925454             0.00696829605            0.000892949217           
       0.928094             0.00831805807             0.00104154161           
       0.930734             0.00964020275             0.00120716707           
       0.933375             0.00739559754             0.00104693669           
       0.936015             0.00768778909            0.000969443822           
       0.938656             0.00745933498             0.00102441528           
       0.941296             0.00682557443            0.000888087521           
       0.943936             0.00711494639            0.000889177017           
       0.946577             0.00788672398            0.000929972292           
       0.949217             0.00807094805            0.000865124343           
       0.951858             0.00638381878            0.000805416311           
       0.954498             0.00696385055            0.000973686706           
       0.957138             0.00672438976            0.000906436611           
       0.959779             0.00962409428             0.00106899903           
       0.962419             0.00761464948            0.000944547711           
       0.965059             0.00736998958            0.000977327433           
       0.967700             0.00732434818            0.000997872956           
       0.970340             0.00870907668             0.00096287857           
       0.972981              0.0089040469            0.000887040194           
       0.975621             0.00791492921             0.00088970163           
       0.978261             0.00810815977            0.000855630008           
       0.980902              0.0074627098            0.000982127185           
       0.983542             0.00718886651            0.000853631027           
       0.986182              0.0079329622            0.000880395848           
       0.988823              0.0100485265            0.000962124979           
       0.991463             0.00827861337            0.000931710627           
       0.994104             0.00816010523            0.000902369188           
       0.996744             0.00830608071            0.000928605429           
       0.999384             0.00864620295            0.000847316868           
       1.002025             0.00962348783             0.00099773451           
       1.004665             0.00883076151            0.000873444315           
       1.007306             0.00838641341            0.000846828782           
       1.009946               0.007999494            0.000843488826           
       1.012586             0.00786361881            0.000814501707           
       1.015227             0.00876717509            0.000923935109           
       1.017867              0.0093690094            0.000917937488           
       1.020507             0.00751431633            0.000796290558           
       1.023148             0.00677057101            0.000815590067           
       1.025788             0.00726649406            0.000774735985           
       1.028429             0.00689090846            0.000790408715           
       1.031069             0.00853190605            0.000827644581           
       1.033709              0.0085852388            0.000882533713           
       1.036350             0.00767985158            0.000749676635           
       1.038990             0.00704972197             0.00073146218           
       1.041630             0.00694587223            0.000757282277           
       1.044271             0.00744269136            0.000737227335           
       1.046911             0.00890764274            0.000848359062           
       1.049552             0.00901661819            0.000896744363           
       1.052192             0.00795776568            0.000769260548           
       1.054832             0.00841745141            0.000798364187           
       1.057473             0.00972898884            0.000846113264           
       1.060113             0.00841137656            0.000767280055           
       1.062754             0.00898313026            0.000809566377           
       1.065394             0.00741627844            0.000777701279           
       1.068034             0.00871929845             0.00076724933           
       1.070675             0.00875684718            0.000802056743           
       1.073315             0.00854796944            0.000803791736           
       1.075955              0.0083564227             0.00075027513           
       1.078596             0.00761857789            0.000761376574           
       1.081236             0.00864196861            0.000776492525           
       1.083877             0.00800563873            0.000740654142           
       1.086517             0.00770499781            0.000779142779           
       1.089157               0.008058852            0.000826803638           
       1.091798             0.00891316297            0.000762326265           
       1.094438             0.00900918418            0.000763947849           
       1.097078              0.0076779816            0.000676410961           
       1.099719             0.00883238589            0.000784718763           
       1.102359             0.00795077021            0.000697257105           
       1.105000             0.00718982712            0.000741421321           
       1.107640              0.0078871719            0.000742503076           
       1.110280             0.00778085908            0.000672896007           
       1.112921             0.00838867154            0.000750537642           
       1.115561             0.00879120935            0.000730237379           
       1.118202              0.0101083581            0.000783770815           
       1.120842             0.00899940515             0.00077725061           
       1.123482             0.00865219832            0.000758780941           
       1.126123             0.00947542876             0.00076163535           
       1.128763             0.00932073634            0.000760571886           
       1.131403             0.00875399994            0.000710245923           
       1.134044             0.00916568524            0.000747832529           
       1.136684             0.00992597359            0.000829729023           
       1.139325             0.00887812495            0.000722875905           
       1.141965             0.00857592918            0.000715163493           
       1.144605             0.00856899553            0.000681634788           
       1.147246             0.00872988823            0.000704112853           
       1.149886             0.00868902398            0.000699969253           
       1.152527             0.00933019652            0.000735883207           
       1.155167              0.0101364534            0.000729552546           
       1.157807             0.00861661949             0.00072118881           
       1.160448              0.0088304098            0.000712942633           
       1.163088             0.00937324879            0.000700633031           
       1.165728             0.00849479238            0.000684815337           
       1.168369              0.0093729595             0.00072598778           
       1.171009             0.00928998256            0.000701425888           
       1.173650             0.00924116355            0.000717936353           
       1.176290             0.00942713583             0.00070860917           
       1.178930             0.00960612787            0.000701063713           
       1.181571             0.00871777567             0.00068110503           
       1.184211             0.00803513053            0.000656212974           
       1.186851             0.00870379013            0.000667731344           
       1.189492              0.0105321081            0.000729581168           
       1.192132             0.00848800973            0.000647617478           
       1.194773             0.00821762457             0.00064000326           
       1.197413             0.00952069463            0.000660044236           
       1.200053             0.00847823701            0.000638687481           
       1.202694             0.00786946154            0.000585143682           
       1.205334             0.00928516702            0.000684979415           
       1.207975              0.0102448523            0.000686790494           
       1.210615              0.0100759938            0.000751376795           
       1.213255             0.00975098975            0.000661900346           
       1.215896             0.00936270309            0.000660339722           
       1.218536              0.0101419396            0.000660839395           
       1.221176              0.0098225756            0.000707065447           
       1.223817              0.0104780732            0.000685523436           
       1.226457             0.00985148402            0.000678101761           
       1.229098             0.00928453165            0.000658268215           
       1.231738             0.00951737807            0.000669751575           
       1.234378               0.009495734            0.000628616257           
       1.237019             0.00996658161            0.000663649021           
       1.239659             0.00963250669            0.000646748287           
       1.242299             0.00957448852            0.000636605371           
       1.244940              0.0100340276            0.000633822658           
       1.247580             0.00973255742            0.000643318525           
       1.250221             0.00905332846            0.000616635684           
       1.252861             0.00969964495            0.000607633311           
       1.255501               0.010183097            0.000676016005           
       1.258142              0.0100987445            0.000632601829           
       1.260782              0.0108067431            0.000668560766           
       1.263423              0.0103491517            0.000628663318           
       1.266063              0.0103915296            0.000645679806           
       1.268703              0.0103893994            0.000640256284           
       1.271344             0.00952615032            0.000633858011           
       1.273984              0.0123019288            0.000695678049           
       1.276624               0.010472171            0.000629801309           
       1.279265              0.0108372399            0.000651324554           
       1.281905              0.0103766936            0.000640163346           
       1.284546               0.010143011            0.000611768849           
       1.287186               0.010041302            0.000597193272           
       1.289826              0.0108836507             0.00065526061           
       1.292467               0.010487251            0.000629049734           
       1.295107              0.0117647432             0.00065964413           
       1.297747              0.0095848669            0.000569751876           
       1.300388              0.0120203503            0.000695549554           
       1.303028              0.0103116191            0.000615009296           
       1.305669              0.0104156513            0.000632821494           
       1.308309              0.0104363054            0.000627210641           
       1.310949              0.0110561988            0.000644920638           
       1.313590              0.0123417341            0.000660083971           
       1.316230              0.0108841592            0.000661499425           
       1.318871              0.0107818596            0.000644805689           
       1.321511              0.0105872685            0.000627117156           
       1.324151             0.00983631332            0.000586547181           
       1.326792              0.0113947125            0.000635206855           
       1.329432              0.0117857877            0.000641456488           
       1.332072             0.00974666968            0.000574638857           
       1.334713              0.0106899012            0.000621119509           
       1.337353             0.00994432076            0.000574517851           
       1.339994              0.0109414023            0.000632402644           
       1.342634             0.00974095267            0.000572200278           
       1.345274              0.0112533608            0.000636486777           
       1.347915              0.0110109536            0.000612208049           
       1.350555             0.00972824657            0.000585523299           
       1.353195              0.0116086205            0.000642754341           
       1.355836              0.0112384956            0.000622563192           
       1.358476              0.0108550219            0.000594198886           
       1.361117              0.0106294329             0.00058879924           
       1.363757              0.0110988078            0.000620030304           
       1.366397              0.0110137643            0.000598959429           
       1.369038               0.011960403            0.000630384325           
       1.371678              0.0103711377            0.000581835156           
       1.374319              0.0104857107            0.000580002482           
       1.376959              0.0112552332            0.000594865189           
       1.379599              0.0112870271            0.000638415138           
       1.382240              0.0110647612            0.000594077232           
       1.384880              0.0108691432            0.000623675486           
       1.387520              0.0109131365             0.00059352137           
       1.390161              0.0111136469            0.000568857693           
       1.392801              0.0109187191              0.0005874738           
       1.395442              0.0109743669            0.000597012908           
       1.398082              0.0102760462            0.000540996657           
       1.400722              0.0110163569            0.000586739151           
       1.403363              0.0100355291            0.000589479141           
       1.406003              0.0107273248            0.000570371141           
       1.408644              0.0117380218            0.000625014759           
       1.411284              0.0114051702            0.000583381954           
       1.413924              0.0116841424            0.000588284616           
       1.416565              0.0114905868            0.000581099974           
       1.419205              0.0102510752            0.000572552359           
       1.421845              0.0106256922            0.000582577933           
       1.424486              0.0113908377            0.000579803058           
       1.427126              0.0111597229            0.000596161712           
       1.429767              0.0112074845             0.00056211473           
       1.432407              0.0113905401            0.000593050913           
       1.435047              0.0103606641            0.000531197435           
       1.437688              0.0111459081              0.0005591976           
       1.440328              0.0110149878            0.000567362147           
       1.442968              0.0103421513            0.000562078528           
       1.445609              0.0113053276            0.000569027017           
       1.448249              0.0106521367            0.000566329025           
       1.450890              0.0107490867            0.000565187209           
       1.453530                0.01192027            0.000622679793           
       1.456170             0.00966834459             0.00054425675           
       1.458811              0.0104487212            0.000541025495           
       1.461451              0.0109371739            0.000554978922           
       1.464092              0.0101812266            0.000538956954           
       1.466732              0.0104102051            0.000540300716           
       1.469372              0.0103578679            0.000526327957           
       1.472013             0.00995757799            0.000556578351           
       1.474653              0.0109529436            0.000574729012           
       1.477293               0.010687865            0.000579697632           
       1.479934              0.0105276651              0.0005489914           
       1.482574              0.0100871542            0.000519833995           
       1.485215              0.0106597847            0.000544338424           
       1.487855              0.0110466122            0.000561436872           
       1.490495               0.011325889            0.000566395907           
       1.493136              0.0101321649            0.000528373567           
       1.495776              0.0112189442            0.000553457083           
       1.498416              0.0103880331            0.000549991544           
       1.501057              0.0109730633             0.00055280892           
       1.503697              0.0113412562            0.000549451429           
       1.506338              0.0105000395            0.000538342461           
       1.508978              0.0106797875            0.000537591449           
       1.511618             0.00986424797            0.000550238097           
       1.514259              0.0100347558            0.000535800699           
       1.516899             0.00999339576            0.000520616034           
       1.519540              0.0104960487             0.00054215238           
       1.522180             0.00975998227            0.000527389356           
       1.524820              0.0113790107            0.000566259685           
       1.527461              0.0103030929            0.000541489181           
       1.530101              0.0107186474            0.000546777573           
       1.532741              0.0100382209            0.000526067362           
       1.535382              0.0110358596            0.000560469514           
       1.538022             0.00979579663            0.000497443889           
       1.540663              0.0100979027            0.000543219261           
       1.543303              0.0100891941            0.000504170404           
       1.545943              0.0102748204            0.000538513749           
       1.548584              0.0110508833            0.000568505779           
       1.551224             0.00907417749            0.000476311788           
       1.553864              0.0108762554            0.000551028041           
       1.556505              0.0102352973            0.000516384264           
       1.559145              0.0108599928            0.000538425078           
       1.561786             0.00977988279            0.000511342255           
       1.564426             0.00963258408            0.000491692255           
       1.567066              0.0108346439             0.00054640038           
       1.569707              0.0104877841            0.000527926337           
       1.572347             0.00904212187            0.000506417831           
       1.574988             0.00991490579            0.000504752595           
       1.577628             0.00875336453            0.000494542249           
       1.580268             0.00950083604             0.00049919801           
       1.582909             0.00906888518            0.000516961805           
       1.585549              0.0104483289            0.000538778003           
       1.588189             0.00916967514            0.000493718959           
       1.590830             0.00916353842             0.00049293426           
       1.593470              0.0102528765            0.000542056824           
       1.596111             0.00874013009            0.000488617402           
       1.598751             0.00854004985            0.000468003326           
       1.601391             0.00845803836            0.000476026494           
       1.604032             0.00847542016            0.000486477008           
       1.606672             0.00915002911            0.000491109325           
       1.609312             0.00874356276            0.000501144541           
       1.611953             0.00926349447            0.000504771362           
       1.614593             0.00887232608            0.000484573853           
       1.617234             0.00927348821            0.000513429063           
       1.619874              0.0099320556            0.000529248317           
       1.622514             0.00863232449            0.000486674506           
       1.625155             0.00899024761            0.000499595582           
       1.627795             0.00958349621            0.000503177515           
       1.630436             0.00869730084            0.000476845624           
       1.633076              0.0088859404             0.00048831062           
       1.635716             0.00908052396            0.000485947726           
       1.638357             0.00914640555              0.0004889929           
       1.640997             0.00807020987            0.000473238513           
       1.643637             0.00853388572            0.000473559141           
       1.646278             0.00853962509            0.000488602635           
       1.648918             0.00995219867            0.000528906661           
       1.651559             0.00901019653            0.000507159312           
       1.654199             0.00824044077            0.000471716783           
       1.656839             0.00875412197            0.000486366859           
       1.659480             0.00945700168            0.000524498473           
       1.662120             0.00898302542            0.000481452843           
       1.664761             0.00953568768            0.000515259602           
       1.667401             0.00935712787            0.000487845136           
       1.670041             0.00899449668            0.000485591596           
       1.672682             0.00909419343             0.00048626848           
       1.675322             0.00870124927            0.000472588436           
       1.677962             0.00891138208            0.000472985004           
       1.680603             0.00828569031            0.000457481534           
       1.683243             0.00861075397            0.000486569227           
       1.685884             0.00883355057            0.000496463155           
       1.688524             0.00807998362            0.000465636956           
       1.691164             0.00828833572            0.000471709292           
       1.693805             0.00886851584            0.000493300004           
       1.696445             0.00798025665            0.000470658618           
       1.699085              0.0095214794            0.000496875993           
       1.701726             0.00866196671            0.000456538155           
       1.704366             0.00847375043            0.000475696435           
       1.707007             0.00857835012            0.000467954388           
       1.709647             0.00830199958            0.000465553966           
       1.712287             0.00873726029            0.000481759362           
       1.714928             0.00956192135              0.0005080455           
       1.717568              0.0087622982            0.000458133208           
       1.720209             0.00825003026            0.000465624476           
       1.722849             0.00905543064            0.000485315402           
       1.725489             0.00890870157            0.000481771655           
       1.728130             0.00803114321            0.000486117758           
       1.730770             0.00861910535            0.000478282644           
       1.733410              0.0087115038            0.000473281121           
       1.736051             0.00783955905            0.000452096192           
       1.738691             0.00783158409            0.000442706268           
       1.741332             0.00835014284            0.000470494714           
       1.743972             0.00884527642            0.000500063303           
       1.746612             0.00842256313             0.00046857376           
       1.749253             0.00831996803            0.000474908216           
       1.751893             0.00900532787            0.000490454883           
       1.754533             0.00829111832            0.000470164772           
       1.757174             0.00786127696            0.000453527859           
       1.759814             0.00867647153            0.000469240543           
       1.762455             0.00920318733            0.000492147543           
       1.765095             0.00911673417             0.00046858244           
       1.767735             0.00922269587            0.000485837212           
       1.770376             0.00876980522            0.000475007229           
       1.773016              0.0090903882            0.000480371963           
       1.775657             0.00884697438            0.000467078121           
       1.778297             0.00896675903            0.000466180434           
       1.780937             0.00940125612            0.000503833827           
       1.783578             0.00876264493            0.000474258055           
       1.786218             0.00880618927              0.0004961684           
       1.788858             0.00849544593             0.00046285128           
       1.791499             0.00870805176            0.000463344225           
       1.794139             0.00953218588            0.000480841144           
       1.796780              0.0092718387            0.000471942999           
       1.799420             0.00875323986             0.00045601521           
       1.802060             0.00926685787            0.000472993312           
       1.804701             0.00922445024            0.000452866117           
       1.807341             0.00914991172            0.000473937269           
       1.809981             0.00979093708            0.000491892371           
       1.812622             0.00877622407            0.000457321756           
       1.815262             0.00884471628            0.000468855225           
       1.817903             0.00885947189            0.000462293396           
       1.820543             0.00830204534             0.00045448696           
       1.823183             0.00889243868            0.000470111091           
       1.825824             0.00878579127            0.000446423781           
       1.828464              0.0086993641             0.00046312125           
       1.831105             0.00889765073             0.00045542011           
       1.833745             0.00850716653            0.000454825233           
       1.836385             0.00932159033            0.000489685923           
       1.839026             0.00872489188            0.000472256927           
       1.841666             0.00905648118            0.000479441186           
       1.844306             0.00873205051            0.000457930014           
       1.846947             0.00937456178            0.000478637586           
       1.849587             0.00861000391             0.00050652095           
       1.852228             0.00855619351            0.000456586959           
       1.854868             0.00785325713             0.00046207962           
       1.857508             0.00873752986            0.000482620428           
       1.860149             0.00852182499            0.000485285547           
       1.862789             0.00918703205            0.000486351262           
       1.865429             0.00867860382            0.000493428477           
       1.868070             0.00859073619            0.000484381074           
       1.870710             0.00866731013            0.000475318198           
       1.873351             0.00957927015            0.000505876425           
       1.875991              0.0083282841            0.000479387336           
       1.878631             0.00882213707            0.000483946452           
       1.881272             0.00886131597             0.00048177009           
       1.883912             0.00888154537            0.000501954513           
       1.886553              0.0082924481            0.000479599488           
       1.889193             0.00856783197            0.000486664987           
       1.891833              0.0081258138              0.0004922105           
       1.894474             0.00843973857            0.000497259517           
       1.897114             0.00982242222            0.000519109861           
       1.899754             0.00854659002            0.000486250149           
       1.902395             0.00924286485            0.000495782889           
       1.905035             0.00809053781            0.000491294177           
       1.907676             0.00894240612            0.000486813745           
       1.910316             0.00842713965            0.000485128246           
       1.912956             0.00841051425            0.000473987122           
       1.915597             0.00803593842            0.000465901407           
       1.918237             0.00815608097            0.000484746296           
       1.920878             0.00822545285            0.000484810644           
       1.923518             0.00847448428            0.000492303708           
       1.926158              0.0098992338            0.000525175865           
       1.928799             0.00891723948            0.000492677562           
       1.931439             0.00822070405            0.000485452061           
       1.934079              0.0087548085            0.000522253046           
       1.936720             0.00906933974            0.000492498069           
       1.939360             0.00994322002            0.000550158566           
       1.942001             0.00940779264            0.000490484141           
       1.944641             0.00874201689            0.000482123595           
       1.947281             0.00874659126            0.000477804582           
       1.949922             0.00823028384            0.000478741892           
       1.952562             0.00796969289             0.00048586884           
       1.955202             0.00820583941            0.000492413611           
       1.957843             0.00817589982            0.000478768101           
       1.960483             0.00780265165            0.000488992294           
       1.963124             0.00866180825              0.0005046413           
       1.965764             0.00807858681            0.000459590243           
       1.968404             0.00871918716            0.000472953247           
       1.971045             0.00760212803            0.000450253844           
       1.973685              0.0079342189            0.000482487993           
       1.976326             0.00846603732            0.000491546137           
       1.978966             0.00813929423            0.000486196972           
       1.981606             0.00795101376             0.00049056263           
       1.984247             0.00785462032            0.000484374314           
       1.986887             0.00788576451            0.000479519923           
       1.989527             0.00767911484            0.000468099184           
       1.992168             0.00742579284            0.000477614275           
       1.994808             0.00764790335            0.000482626806           
       1.997449             0.00873354834            0.000505154065           
       2.000089             0.00850329813            0.000496474485           
       2.002729             0.00817643048            0.000487130587           
       2.005370             0.00865262964            0.000495723362           
       2.008010             0.00900190197             0.00052769694           
       2.010650             0.00802167365            0.000501855322           
       2.013291             0.00768933273            0.000471422483           
       2.015931             0.00734117037             0.00045737006           
       2.018572             0.00773715122            0.000502220934           
       2.021212             0.00744610214            0.000483832421           
       2.023852             0.00821532025            0.000480996288           
       2.026493             0.00776855039            0.000488631975           
       2.029133             0.00792970211            0.000483739365           
       2.031774             0.00804120656            0.000511230611           
       2.034414             0.00737353498            0.000450450956           
       2.037054             0.00842027149            0.000493563952           
       2.039695             0.00726462659            0.000454982348           
       2.042335             0.00833742492            0.000506536994           
       2.044975             0.00856611741            0.000507210473           
       2.047616             0.00735112914            0.000468697967           
       2.050256             0.00690421154            0.000458525756           
       2.052897             0.00775914453            0.000495047846           
       2.055537             0.00692933115            0.000452137666           
       2.058177              0.0088320487            0.000499871127           
       2.060818             0.00784758345            0.000493607146           
       2.063458              0.0074803717            0.000502208634           
       2.066098             0.00825738715            0.000497748374           
       2.068739              0.0073884147             0.00047814861           
       2.071379             0.00738948745            0.000490654495           
       2.074020             0.00773129389            0.000490966902           
       2.076660             0.00705911425            0.000472931162           
       2.079300             0.00770709141            0.000506268487           
       2.081941             0.00746790084            0.000456296668           
       2.084581             0.00792163789            0.000496041227           
       2.087222             0.00742359387            0.000463101915           
       2.089862             0.00838705918            0.000536121292           
       2.092502             0.00698857314            0.000474390865           
       2.095143             0.00769340963            0.000513989745           
       2.097783             0.00708129611            0.000477421828           
       2.100423             0.00822191872            0.000495707728           
       2.103064             0.00739819807            0.000487917541           
       2.105704             0.00777566552            0.000497732182           
       2.108345              0.0077331966            0.000476879871           
       2.110985             0.00846699662            0.000532960271           
       2.113625             0.00875618866            0.000546715148           
       2.116266             0.00706853584            0.000498180356           
       2.118906             0.00833349179            0.000504109843           
       2.121546             0.00834129283            0.000494716226           
       2.124187             0.00759081942            0.000495387837           
       2.126827             0.00806236726            0.000516241006           
       2.129468             0.00780893429            0.000509360207           
       2.132108             0.00644361666            0.000450166165           
       2.134748             0.00694539011            0.000465551873           
       2.137389             0.00736666617             0.00050019918           
       2.140029             0.00783107168            0.000461708385           
       2.142670             0.00784368615             0.00049383496           
       2.145310             0.00792205526            0.000483053662           
       2.147950             0.00717205748            0.000473073586           
       2.150591             0.00823678218            0.000501850399           
       2.153231             0.00772100382            0.000500141771           
       2.155871             0.00740689661             0.00047323996           
       2.158512             0.00688334237             0.00047602076           
       2.161152             0.00809568366            0.000500063793           
       2.163793             0.00702038783            0.000463574602           
       2.166433             0.00729765864            0.000485351914           
       2.169073             0.00837169563            0.000508268931           
       2.171714             0.00662905422            0.000448904418           
       2.174354             0.00787738432            0.000511324982           
       2.176995             0.00796933564            0.000512136573           
       2.179635             0.00788469721            0.000538301003           
       2.182275             0.00656118125            0.000463626963           
       2.184916             0.00653992831             0.00044707758           
       2.187556             0.00694956153            0.000456247262           
       2.190196             0.00786164845            0.000507094698           
       2.192837             0.00783383536            0.000503442774           
       2.195477             0.00767218547            0.000474994996           
       2.198118             0.00774159557            0.000489364777           
       2.200758             0.00850396763            0.000526198896           
       2.203398             0.00788579782            0.000509954512           
       2.206039             0.00784907891            0.000481503822           
       2.208679             0.00773354603            0.000489070143           
       2.211319             0.00692739539             0.00046554723           
       2.213960               0.007588698            0.000493790327           
       2.216600             0.00756949094            0.000510168233           
       2.219241             0.00761273778            0.000488973849           
       2.221881             0.00716738891            0.000475431224           
       2.224521              0.0078492465            0.000503628891           
       2.227162             0.00757908859              0.0004849772           
       2.229802             0.00742621892            0.000495089135           
       2.232443             0.00735375201             0.00048489681           
       2.235083             0.00715347821            0.000492355354           
       2.237723             0.00786611696            0.000495462653           
       2.240364             0.00786731112            0.000507707278           
       2.243004             0.00683142643            0.000469326692           
       2.245644             0.00757883256            0.000499282268           
       2.248285             0.00686448288            0.000465650816           
       2.250925             0.00643443742            0.000453567503           
       2.253566             0.00689429864            0.000501926921           
       2.256206             0.00709966104            0.000499163144           
       2.258846             0.00705347498            0.000473295189           
       2.261487             0.00694035003            0.000492767482           
       2.264127             0.00806515684            0.000513024193           
       2.266767             0.00711699755            0.000494765246           
       2.269408              0.0079658008            0.000525581794           
       2.272048             0.00737250581            0.000502612202           
       2.274689             0.00734541623            0.000508298357           
       2.277329             0.00692033022            0.000464540904           
       2.279969             0.00696430318            0.000496045697           
       2.282610             0.00798138363            0.000516264042           
       2.285250             0.00734784903            0.000474118058           
       2.287891              0.0077091686            0.000520674258           
       2.290531             0.00766858699            0.000526282832           
       2.293171             0.00785928139            0.000518981913           
       2.295812              0.0069385285             0.00048567445           
       2.298452             0.00601882557            0.000473030105           
       2.301092             0.00706621432            0.000476211038           
       2.303733             0.00697111335            0.000492080686           
       2.306373             0.00671434634            0.000490538738           
       2.309014             0.00647084891             0.00047216766           
       2.311654             0.00721364077             0.00052024159           
       2.314294             0.00726712511            0.000481074061           
       2.316935             0.00742502317            0.000488281294           
       2.319575             0.00718800659             0.00050337399           
       2.322215             0.00695531531            0.000516039593           
       2.324856             0.00699678353            0.000475857127           
       2.327496             0.00675496945            0.000497165052           
       2.330137             0.00708287616            0.000487160098           
       2.332777             0.00701835098            0.000500020718           
       2.335417             0.00795319545            0.000516392538           
       2.338058             0.00839543963            0.000546404392           
       2.340698             0.00636124248            0.000471885998           
       2.343339             0.00775136538            0.000532363949           
       2.345979             0.00749759285            0.000495345372           
       2.348619             0.00640614047            0.000474610309           
       2.351260             0.00711107248            0.000497128642           
       2.353900             0.00700852026            0.000491967554           
       2.356540             0.00712920582            0.000495480928           
       2.359181             0.00743155244            0.000498786241           
       2.361821             0.00756084019             0.00048598724           
       2.364462             0.00636564538            0.000466380936           
       2.367102             0.00823912558            0.000545267442           
       2.369742             0.00716175661            0.000535093144           
       2.372383             0.00624107588            0.000452310439           
       2.375023              0.0065573207            0.000487373982           
       2.377663             0.00735157776            0.000493416874           
       2.380304             0.00658022653            0.000474597859           
       2.382944             0.00764496694            0.000487240871           
       2.385585             0.00720728839            0.000504556416           
       2.388225             0.00778637111              0.0005219703           
       2.390865             0.00730994457            0.000500554119           
       2.393506             0.00682072137             0.00047439205           
       2.396146              0.0079073797            0.000552284311           
       2.398787             0.00690931888            0.000475768779           
       2.401427             0.00753705702            0.000479634348           
       2.404067             0.00750931712            0.000489429719           
       2.406708             0.00747996843            0.000482614784           
       2.409348             0.00724861293            0.000503928558           
       2.411988              0.0067239289            0.000475533485           
       2.414629             0.00754688857            0.000519484708           
       2.417269             0.00710000762            0.000509752473           
       2.419910              0.0067337851            0.000497583708           
       2.422550             0.00687365555              0.0004809762           
       2.425190              0.0070744225            0.000514350111           
       2.427831             0.00668232437            0.000497082998           
       2.430471             0.00669012389            0.000473843865           
       2.433112             0.00729101677             0.00048168696           
       2.435752             0.00681691264            0.000492922351           
       2.438392             0.00712818045            0.000486511665           
       2.441033              0.0071264513            0.000515542033           
       2.443673             0.00660545045            0.000496720847           
       2.446313              0.0077079232            0.000537047381           
       2.448954             0.00663697602            0.000474492935           
       2.451594             0.00716929027            0.000530255968           
       2.454235             0.00822133872            0.000532770032           
       2.456875              0.0072839569            0.000524726107           
       2.459515             0.00700036082            0.000527726463           
       2.462156             0.00759666433            0.000519034457           
       2.464796             0.00868067555            0.000547673729           
       2.467436             0.00664572659            0.000495548594           
       2.470077             0.00759606865            0.000502151347           
       2.472717             0.00658420148            0.000469536065           
       2.475358             0.00748366344             0.00050580078           
       2.477998             0.00693199788            0.000478594362           
       2.480638             0.00690218073            0.000486049813           
       2.483279             0.00758832114            0.000532651316           
       2.485919             0.00718961906            0.000499663765           
       2.488560             0.00797363122            0.000524732308           
       2.491200             0.00673377476            0.000496552078           
       2.493840             0.00746071367            0.000553050917           
       2.496481             0.00681461866            0.000519915607           
       2.499121             0.00704610023            0.000514218159           
       2.501761             0.00650830821             0.00050075288           
       2.504402             0.00777473437            0.000539312338           
       2.507042             0.00685387439            0.000502616162           
       2.509683             0.00639239421            0.000477981809           
       2.512323             0.00760793846            0.000547652574           
       2.514963              0.0072568691            0.000528259585           
       2.517604             0.00770545832            0.000564838714           
       2.520244               0.007206904            0.000512119968           
       2.522884             0.00782404841            0.000541227601           
       2.525525             0.00981770981            0.000613155785           
       2.528165             0.00759705572            0.000530964427           
       2.530806             0.00965311626             0.00060894936           
       2.533446              0.0127663033            0.000685346035           
       2.536086             0.00781473319            0.000531410097           
       2.538727             0.00722024788            0.000490032576           
       2.541367             0.00734699777            0.000499184309           
       2.544008             0.00820921509            0.000544947257           
       2.546648             0.00734365281            0.000524258974           
       2.549288             0.00639058347            0.000499022612           
       2.551929             0.00686540416            0.000508984472           
       2.554569             0.00689471936            0.000491409746           
       2.557209             0.00699152206            0.000499392016           
       2.559850             0.00692078932            0.000498454958           
       2.562490             0.00723692993            0.000526815244           
       2.565131             0.00782552811            0.000568004566           
       2.567771             0.00778313056            0.000546156147           
       2.570411             0.00716410778            0.000518317783           
       2.573052             0.00703167204            0.000519971498           
       2.575692              0.0072176269            0.000523611993           
       2.578332             0.00838706928            0.000566773718           
       2.580973             0.00677043062            0.000504383395           
       2.583613             0.00654949671            0.000484273311           
       2.586254             0.00692971239            0.000497439411           
       2.588894             0.00676708769            0.000510469768           
       2.591534             0.00606931808            0.000500447075           
       2.594175             0.00722807013            0.000535828363           
       2.596815               0.006954647            0.000528695061           
       2.599456             0.00610293602            0.000469656935           
       2.602096             0.00615768902            0.000475349251           
       2.604736             0.00680752777            0.000511654176           
       2.607377             0.00753896994            0.000524250953           
       2.610017             0.00623027241            0.000468241022           
       2.612657              0.0071672997            0.000534186353           
       2.615298             0.00709285665            0.000518818408           
       2.617938             0.00656156545            0.000533812274           
       2.620579             0.00646545931            0.000508687618           
       2.623219              0.0068173124            0.000521601169           
       2.625859             0.00754850966            0.000533647081           
       2.628500             0.00782182867            0.000539661804           
       2.631140             0.00659962866            0.000503347585           
       2.633780             0.00697702974            0.000517089621           
       2.636421             0.00718917851            0.000537800364           
       2.639061              0.0071934599            0.000506427957           
       2.641702             0.00828151004            0.000555959423           
       2.644342             0.00752709072            0.000532290224           
       2.646982              0.0070634706            0.000507928244           
       2.649623              0.0080242507            0.000567335787           
       2.652263              0.0072282536            0.000533058021           
       2.654904             0.00713758703            0.000530237202           
       2.657544             0.00749639497            0.000511827712           
       2.660184              0.0069342287            0.000520956945           
       2.662825             0.00633743482            0.000509588908           
       2.665465             0.00674994396             0.00050864378           
       2.668105             0.00728061262             0.00055680615           
       2.670746             0.00744159534            0.000520025709           
       2.673386               0.010684268            0.000642164001           
       2.676027              0.0119678276            0.000668735805           
       2.678667             0.00876457547             0.00055840709           
       2.681307             0.00998266471            0.000585553286           
       2.683948              0.0161882182            0.000766134366           
       2.686588              0.0114826106            0.000634546111           
       2.689229              0.0105116795            0.000593258545           
       2.691869              0.0106860889              0.0006321956           
       2.694509             0.00966881522            0.000601682363           
       2.697150             0.00808505283            0.000541275418           
       2.699790             0.00728240775            0.000538546609           
       2.702430             0.00786047712            0.000534827258           
       2.705071              0.0072904267            0.000532226777           
       2.707711              0.0060521184            0.000470655381           
       2.710352             0.00665016457            0.000521298487           
       2.712992             0.00669852003             0.00053286412           
       2.715632             0.00682502701            0.000499038847           
       2.718273             0.00638769148            0.000500342097           
       2.720913             0.00716642693            0.000528456138           
       2.723553             0.00568423094            0.000473802815           
       2.726194             0.00664467658            0.000535490733           
       2.728834             0.00695628623            0.000548160159           
       2.731475             0.00927013139            0.000584012485           
       2.734115              0.0071138342            0.000527478358           
       2.736755             0.00675601867            0.000518272491           
       2.739396             0.00682612519            0.000517936251           
       2.742036               0.006585992             0.00053243349           
       2.744677             0.00676150908            0.000523445804           
       2.747317             0.00714107711            0.000534101544           
       2.749957              0.0065041397            0.000513303307           
       2.752598             0.00670278581            0.000526737956           
       2.755238             0.00766738011            0.000573535774           
       2.757878             0.00776331736            0.000572066935           
       2.760519             0.00811953808            0.000578841054           
       2.763159             0.00754926918            0.000552566153           
       2.765800             0.00836548858            0.000554323475           
       2.768440             0.00790276598            0.000542743771           
       2.771080             0.00925036255            0.000592099534           
       2.773721              0.0072116392            0.000536282257           
       2.776361             0.00671706348            0.000524706844           
       2.779001             0.00762834106            0.000579074778           
       2.781642             0.00687685728            0.000545760645           
       2.784282             0.00669866159            0.000547500677           
       2.786923             0.00702060939            0.000565438248           
       2.789563             0.00708718378            0.000547159415           
       2.792203             0.00736095442            0.000532693389           
       2.794844             0.00837090755            0.000622587786           
       2.797484             0.00713086175            0.000542306824           
       2.800125             0.00762142887            0.000589524262           
       2.802765             0.00686091441            0.000549715696           
       2.805405             0.00655971756            0.000539333185           
       2.808046             0.00678052948            0.000557974994           
       2.810686              0.0069682521            0.000519763061           
       2.813326             0.00673309106            0.000530702215           
       2.815967             0.00706572132            0.000559110777           
       2.818607             0.00731923567            0.000543032262           
       2.821248             0.00694268343            0.000517899124           
       2.823888             0.00639331228             0.00051588442           
       2.826528             0.00709638256            0.000526363094           
       2.829169             0.00693644827            0.000545087584           
       2.831809             0.00615145865            0.000520300572           
       2.834449             0.00668249662            0.000545720917           
       2.837090             0.00622861351            0.000508865181           
       2.839730             0.00658704832            0.000520747099           
       2.842371             0.00813885277            0.000579681411           
       2.845011             0.00670183448            0.000530215792           
       2.847651             0.00673986937             0.00053237126           
       2.850292              0.0066377671            0.000533508463           
       2.852932             0.00658015086            0.000542764334           
       2.855573             0.00689773594            0.000539052441           
       2.858213              0.0073902015            0.000585929458           
       2.860853             0.00747049496            0.000548001945           
       2.863494             0.00627874264            0.000520158063           
       2.866134             0.00687755197            0.000565833475           
       2.868774             0.00638078331            0.000535638324           
       2.871415             0.00718441557            0.000577222154           
       2.874055             0.00677322113            0.000535730406           
       2.876696             0.00639681221            0.000534713886           
       2.879336             0.00793886901            0.000574128873           
       2.881976              0.0065331755            0.000537195589           
       2.884617             0.00625346701            0.000517851371           
       2.887257             0.00680057712             0.00054281702           
       2.889897             0.00681286798            0.000532125522           
       2.892538             0.00664655371            0.000575786117           
       2.895178             0.00688577744            0.000529462916           
       2.897819             0.00689736703            0.000540557109           
       2.900459             0.00734303127            0.000546897512           
       2.903099             0.00737057209            0.000542313547           
       2.905740             0.00826859484            0.000589262736           
       2.908380             0.00717156026            0.000555017551           
       2.911021             0.00688634286            0.000552711312           
       2.913661             0.00695648529            0.000555352634           
       2.916301              0.0074771219            0.000576308592           
       2.918942             0.00771812966            0.000560067071           
       2.921582             0.00721016051            0.000566379799           
       2.924222              0.0065915205            0.000524645149           
       2.926863             0.00716845442            0.000569892609           
       2.929503             0.00785377452            0.000603579537           
       2.932144             0.00764821871            0.000571766898           
       2.934784             0.00736587404            0.000551913209           
       2.937424             0.00793186318            0.000578605203           
       2.940065             0.00692176692            0.000515594855           
       2.942705              0.0068282944            0.000511459213           
       2.945346             0.00765005072            0.000574521132           
       2.947986             0.00741945488            0.000576916089           
       2.950626             0.00616074569             0.00052274652           
       2.953267             0.00669838194            0.000536271996           
       2.955907             0.00739017528            0.000584329898           
       2.958547             0.00691103622            0.000533455159           
       2.961188             0.00685509276            0.000554285548           
       2.963828             0.00759813343            0.000570822762           
       2.966469             0.00674026201            0.000527416471           
       2.969109             0.00620490935            0.000513535595           
       2.971749             0.00649996532            0.000522324728           
       2.974390             0.00735259704            0.000545907287           
       2.977030             0.00670096331            0.000532802157           
       2.979670             0.00881787618            0.000594504217           
       2.982311             0.00895416295            0.000620917158           
       2.984951             0.00720710676            0.000529812663           
       2.987592             0.00729645996            0.000543764124           
       2.990232              0.0069332446            0.000551253743           
       2.992872             0.00769574475            0.000547058115           
       2.995513              0.0100235441             0.00061080669           
       2.998153              0.0110388825              0.0006517661           
       3.000794               0.012473055            0.000671059951           
       3.003434              0.0108438233            0.000626644676           
       3.006074              0.0434411082             0.00123666049           
       3.008715               0.122571936             0.00200522899           
       3.011355               0.193939494             0.00243233909           
       3.013995               0.100842352             0.00175870288           
       3.016636              0.0642441357             0.00137459741           
       3.019276               0.133236267             0.00194587318           
       3.021917               0.485204733             0.00357056553           
       3.024557                1.55408022             0.00628262574           
       3.027197                1.14714881             0.00526254134           
       3.029838               0.526017152             0.00361412021           
       3.032478               0.258297676             0.00253515343           
       3.035118               0.069474056             0.00133242604           
       3.037759              0.0889198648             0.00150546438           
       3.040399               0.126273813             0.00185057841           
       3.043040               0.521257126             0.00380599129           
       3.045680               0.393168074             0.00310996189           
       3.048320              0.0901293528              0.0015214099           
       3.050961               0.108836767             0.00170132256           
       3.053601              0.0904215164             0.00149353601           
       3.056242              0.0684124906             0.00138123496           
       3.058882              0.0659159093             0.00145436866           
       3.061522              0.0493871217             0.00123511678           
       3.064163              0.0622911764             0.00136965408           
       3.066803               0.128637142             0.00207214611           
       3.069443                0.11459079             0.00204620939           
       3.072084              0.0360911451             0.00111818967           
       3.074724              0.0460640845             0.00141078472           
       3.077365              0.0670739322             0.00176226004           
       3.080005              0.0134797642            0.000794489637           
       3.082645              0.0144437048            0.000863956963           
       3.085286              0.0142107204            0.000863721721           
       3.087926             0.00988182428            0.000714700713           
       3.090566              0.0117392354            0.000763248735           
       3.093207              0.0112172446             0.00077638039           
       3.095847             0.00862989484            0.000652708675           
       3.098488             0.00914342197             0.00074496442           
       3.101128             0.00877847964             0.00073464046           
       3.103768             0.00857570777             0.00071244562           
       3.106409             0.00890308089            0.000772570821           
       3.109049             0.00931896337            0.000758516491           
       3.111690              0.0081536322            0.000697327151           
       3.114330             0.00850953503            0.000727538376           
       3.116970             0.00864591568            0.000738975248           
       3.119611              0.0123647901             0.00094066833           
       3.122251              0.0205509102              0.0012685404           
       3.124891              0.0339655961             0.00164601958           
       3.127532              0.0222247971             0.00130257391           
       3.130172                0.01304398             0.00101514664           
       3.132813             0.00983907982             0.00086796351           
       3.135453             0.00729115966            0.000741020712           
       3.138093             0.00813474341            0.000848100013           
       3.140734              0.0076816939             0.00076033723           
       3.143374             0.00748829246            0.000793903088           
       3.146014             0.00711787757            0.000833266226           
       3.148655             0.00775133129            0.000808331175           
       3.151295             0.00736132889            0.000839453128           
       3.153936             0.00676495967            0.000777346263           
       3.156576             0.00589123892            0.000715545729           
       3.159216             0.00684313454            0.000775047739           
       3.161857             0.00633311018             0.00074257162           
       3.164497             0.00768684082            0.000859582177           
       3.167138             0.00920635887            0.000971986706           
       3.169778             0.00582344678            0.000760299358           
       3.172418             0.00660364862            0.000801394668           
       3.175059             0.00595184603            0.000674496643           
       3.177699             0.00641881551            0.000741741445           
       3.180339             0.00579691803            0.000755239028           
       3.182980             0.00627237216            0.000812231096           
       3.185620             0.00511415169            0.000746921978           
       3.188261             0.00610454983            0.000830609826           
       3.190901             0.00553622531            0.000727491496           
       3.193541             0.00548855663            0.000761120057           
       3.196182             0.00504086042            0.000760158107           
       3.198822             0.00514310101             0.00076808567           
       3.201463             0.00564039759            0.000790504792           
       3.204103             0.00503009135            0.000741971483           
       3.206743             0.00557929141            0.000781354352           
       3.209384             0.00767176064            0.000989911765           
       3.212024             0.00477219922            0.000727897591           
       3.214664             0.00503075604            0.000849850453           
       3.217305             0.00751775797            0.000987537804           
       3.219945             0.00564923644            0.000881107167           
       3.222586             0.00584967802            0.000853998776           
       3.225226             0.00429381637            0.000811669695           
       3.227866             0.00590638558            0.000870081464           
       3.230507             0.00674366594            0.000963744928           
       3.233147             0.00912494737             0.00113011346           
       3.235787             0.00496224671            0.000852866124           
       3.238428             0.00663787048             0.00106445781           
       3.241068             0.00504753917            0.000867937803           
       3.243709             0.00541147031             0.00092848205           
       3.246349             0.00436464815            0.000760136499           
       3.248989             0.00868779648             0.00126630927           
       3.251630             0.00547905405            0.000968393231           
       3.254270             0.00627895482            0.000926506359           
       3.256911             0.00405209189            0.000812107071           
       3.259551             0.00623359191             0.00108440833           
       3.262191             0.00922941387             0.00134780747           
       3.264832             0.00469152051             0.00100404142           
       3.267472              0.0077239642             0.00120855819           
       3.270112             0.00737232801             0.00130485461           
       3.272753             0.00659629131             0.00112975559           
       3.275393             0.00625190928             0.00112224943           
       3.278034             0.00586167921              0.0010872728           
       3.280674             0.00734315842             0.00132054821           
       3.283314             0.00589517434              0.0010582073           
       3.285955             0.00666040219             0.00116053953           
       3.288595             0.00528627493             0.00115026849           
       3.291235             0.00555396131             0.00121203532           
       3.293876             0.00379955282              0.0010168958           
       3.296516             0.00525827791             0.00114845335           
       3.299157             0.00462155567             0.00106314901           
       3.301797             0.00475113717             0.00122960178           
       3.304437             0.00454615585             0.00104206964           
       3.307078              0.0060603382             0.00132535371           
       3.309718             0.00617266146             0.00138062234           
       3.312359             0.00555189741             0.00130967199           
       3.314999             0.00449093849             0.00115974417           
       3.317639             0.00410866246             0.00106089659           
       3.320280             0.00588014224             0.00134938012           
       3.322920               0.006739382             0.00146892355           
       3.325560             0.00636678873              0.0014287108           
       3.328201             0.00778215849             0.00142257766           
       3.330841             0.00616577366             0.00154110641           
       3.333482             0.00410984156             0.00118929249           
       3.336122              0.0030881559             0.00103139574           
       3.338762             0.00457130882             0.00144956009           
       3.341403             0.00460196115             0.00138974875           
       3.344043             0.00303408689             0.00108339635           
       3.346683             0.00766690667             0.00175822526           
       3.349324             0.00513783198             0.00161825813           
       3.351964             0.00510419912              0.0017056374           
       3.354605             0.00371494478             0.00166415318           
       3.357245             0.00658853585             0.00199926025           
       3.359885             0.00389005156             0.00122952716           
       3.362526             0.00604098691             0.00191607554           
       3.365166             0.00475868205             0.00160399444           
       3.367807             0.00529451996             0.00216527874           
       3.370447             0.00606804056             0.00192286315           
       3.373087             0.00347977645             0.00155713787           
       3.375728             0.00435046564             0.00196498164           
       3.378368             0.00789612033             0.00392886768           
       3.381008             0.00435514738             0.00217540483           
       3.383649             0.00208764945             0.00120823638           
       3.386289              0.0048764113             0.00218551517           
       3.388930             0.00245910789             0.00245491109           
       3.391570             0.00361393302             0.00210522982           
       3.394210             0.00788432505             0.00393515364           
       3.396851             0.00240929452             0.00243331411           
       3.399491             0.00722730602             0.00421564024           
       3.402131             0.00967533822             0.00690088653           
       3.404772              0.0192440909              0.0137670309           
       3.407412                       nan                       nan           
       3.410053              0.0184575225              0.0134993379           
       3.412693                       nan                       nan           
       3.415333              0.0179323707              0.0133186187           
