################################################################################
# EDF_DataBlockID                     0.Image.Psd
# EDF_BinarySize                      4366944
# EDF_HeaderSize                      2560
# ByteOrder                           LowByteFirst
# DataType                            FloatValue
# Dim_1                               1028
# Dim_2                               1062
# Image                               0
# HeaderID                            EH:000000:000000:000000
# Size                                4366944
# Center_1                            607.5200
# Center_2                            651.5500
# Comment                             Xenocs_Cell_Window - 20251028_20perc_iodine_1.23mg
# DDummy                              0.6
# Date                                2025-11-03T04:44:16
# Delta                               0
# Dummy                               -1.5
# ExposureTime                        360
# Gamma                               0
# Intensity1                          8.84973e-10
# PSize_1                             7.5e-05
# PSize_2                             7.5e-05
# Pressure                            0.0328398
# SampleDistance                      0.450002
# SampleEnvKind                       large
# SampleEnvPN                         ElectroChemical cell
# SampleEnvSN                         1141
# Thickness                           0
# Wavelength                          1.541891e-10
# Wavelength                          1.54189e-10
# aux                                 0
# aux_dial                            0.002375
# beamx                               588.434
# beamx_dial                          588.434
# beamz                               657.808
# beamz_dial                          657.808
# det0x                               0
# det0x_dial                          6.36945
# det0xvd                             0
# det0xvd_dial                        0
# det0y                               450.002
# det0y_dial                          481.635
# det0z                               0
# det0z_dial                          1.23302
# det0zvd                             0
# det0zvd_dial                        0
# mag                                 1.818
# mag_dial                            1.818
# om                                  0.2499
# om_dial                             -0.610199
# phi                                 -0.0120535
# phi_dial                            0
# ry                                  0.599993
# ry_dial                             0.599993
# s1bot                               0.8
# s1bot_dial                          -1.66094
# s1hl                                0.8
# s1hl_dial                           -0.608437
# s1hr                                0.8
# s1hr_dial                           0.970938
# s1top                               0.8
# s1top_dial                          -0.461562
# s2bot                               0.45
# s2bot_dial                          1.36109
# s2hl                                0.45
# s2hl_dial                           -0.83375
# s2hr                                0.45
# s2hr_dial                           -0.118594
# s2top                               0.45
# s2top_dial                          1.44734
# w2theta                             32
# w2theta_dial                        32
# waxsch                              19.2605
# waxsch_dial                         -32.7355
# waxsh                               137.085
# waxsh_dial                          -43.5338
# waxsth                              26.0607
# waxsth_dial                         -19.4086
# waxsz                               67.0407
# waxsz_dial                          -23.7954
# wind                                65.9854
# wind_dial                           66.0041
# wpsi                                124
# wpsi_dial                           124
# wstod                               115
# wstod_dial                          115
# x                                   0
# x_dial                              1.00969
# z                                   0
# z_dial                              13.3172
# CountCutoff                         15302352
# DetectorModel                       Dectris EIGER2 Si 1M, S/N E-02-0362
# ThresholdSetting                    4023.88989258
# Saturation                          0
# FlatField                           Corrected
# BackgroundReductionExtra            0.02
# BackgroundCorrectionConstant        0.0026712
# Detector                            0
# Monitor                             0
# Pil_Roi0                            0
# SumForIntensity1                    3.1859e+08
# TransmittedFlux                     884973
# det                                 0
# mon                                 0
# pilai0                              3.1859e+08
# pilai1                              798470
# pilct0                              5.50127e+08
# pilct1                              798470
# pilroi0                             0
# pilroi1                             0
# sec                                 1
# title                               20251028_20perc_iodine_1.23mg_0_01221.edf
# usaxs0                              0
# Operation                           Azimuthal average I(q)
# Error_model                         ErrorModel.poisson
# Geometrical_correction              True
# Transmission_correction             True
# Thickness_correction                False
# Binning mode                        Uniform
# Binning factor                      1.0
# Psi                                 0.0
# Omega                               0.2499
# MaskInvalidPixels                   True
# DetectorEdge                        3
# MaskFiles                           ['20251028_20perc_iodine_1.23mg_0_00012_mask.edf']
################################################################################
    q(A⁻¹)                Intensity(a.u.)            Sigma_I(a.u.)            
       0.000340                372612.091                118.469013           
       0.001019                359381.402                 71.247519           
       0.001698                349898.657                49.7104989           
       0.002377                330928.319                43.2403295           
       0.003056                307608.147                35.2335982           
       0.003735                253702.401                28.2194292           
       0.004415                204382.693                25.3284199           
       0.005094                152077.673                18.9212369           
       0.005773                99904.2035                  14.19827           
       0.006452                57935.8294                10.3596821           
       0.007131                32200.3717                7.48189612           
       0.007810                16302.7377                5.28319211           
       0.008490                8277.95629                3.33703099           
       0.009169                4040.88881                2.30424039           
       0.009848                1252.68311                1.24041073           
       0.010527                487.680218                 0.7739497           
       0.011206                121.468578               0.368646954           
       0.011885                55.6088522               0.231749448           
       0.012564                25.1110887               0.159886311           
       0.013244                16.9134623               0.122674627           
       0.013923                12.3159342               0.106370654           
       0.014602                9.31588806              0.0857995883           
       0.015281                 7.4366992              0.0780354708           
       0.015960                5.90051026              0.0690116896           
       0.016639                4.96872792              0.0598019168           
       0.017319                 4.0351639              0.0530537227           
       0.017998                 3.3969898              0.0465697341           
       0.018677                2.88931346               0.044483517           
       0.019356                2.46036193              0.0405602282           
       0.020035                 2.1117983              0.0352549714           
       0.020714                1.83973733              0.0332540307           
       0.021394                 1.6116245              0.0294488383           
       0.022073                1.39980477              0.0285548137           
       0.022752                1.22985273              0.0256038737           
       0.023431                1.13610338              0.0238872054           
       0.024110                1.03729961              0.0237966176           
       0.024789               0.904082644              0.0206322879           
       0.025469               0.787952199              0.0198493061           
       0.026148               0.704627982              0.0176364135           
       0.026827               0.655454931              0.0172821037           
       0.027506               0.605480618              0.0168497453           
       0.028185               0.548046112              0.0152875567           
       0.028864               0.509846919              0.0146624228           
       0.029544               0.478568826              0.0137753869           
       0.030223                0.43399667              0.0133063257           
       0.030902               0.389363825              0.0127188833           
       0.031581               0.363221682              0.0116777478           
       0.032260               0.345142855              0.0115773792           
       0.032939               0.323323602               0.010804501           
       0.033619               0.279358251              0.0101906767           
       0.034298               0.253146217             0.00944046042           
       0.034977               0.243254557             0.00907231591           
       0.035656                0.24001651             0.00925023518           
       0.036335               0.213742915             0.00846630092           
       0.037014               0.206301739             0.00834243435           
       0.037693               0.172572744             0.00734000879           
       0.038373               0.181349654             0.00759818697           
       0.039052               0.167052073             0.00732354603           
       0.039731               0.160952613             0.00702107607           
       0.040410                0.15911033             0.00693397555           
       0.041089               0.142364411             0.00645620152           
       0.041768                 0.1446514             0.00654185259           
       0.042448               0.120047189              0.0059133334           
       0.043127               0.125776199             0.00590983557           
       0.043806               0.118586308             0.00578122167           
       0.044485               0.117359853             0.00563309857           
       0.045164               0.116675676             0.00572735401           
       0.045843               0.101897821             0.00513357416           
       0.046523               0.100972403             0.00512785614           
       0.047202               0.108289534             0.00534751432           
       0.047881               0.100303305             0.00504730406           
       0.048560                0.09611226             0.00498576495           
       0.049239              0.0962543774             0.00479077213           
       0.049918              0.0966747702             0.00489508146           
       0.050598              0.0927974608              0.0047239602           
       0.051277              0.0812169937             0.00440535943           
       0.051956              0.0808643032             0.00436817978           
       0.052635              0.0804653839               0.004264919           
       0.053314              0.0746300706             0.00422745086           
       0.053993              0.0862862263             0.00442093892           
       0.054673              0.0770591735             0.00408481543           
       0.055352              0.0730591832             0.00403580733           
       0.056031              0.0708263057             0.00389016432           
       0.056710              0.0688080219             0.00392829634           
       0.057389              0.0685439566             0.00378082373           
       0.058068              0.0710309022             0.00388847621           
       0.058748              0.0704929731              0.0039220455           
       0.059427              0.0645511829             0.00368957092           
       0.060106              0.0680663329              0.0038245562           
       0.060785              0.0678688166             0.00370457681           
       0.061464              0.0622863791              0.0036344939           
       0.062143              0.0597675817              0.0035240822           
       0.062822              0.0532049505             0.00328596341           
       0.063502              0.0629576433             0.00356807785           
       0.064181              0.0494691371             0.00312944137           
       0.064860              0.0579979608             0.00344009865           
       0.065539              0.0569732188               0.003376232           
       0.066218              0.0508997531             0.00312287583           
       0.066897              0.0511464901             0.00315460166           
       0.067577              0.0488035507             0.00311110567           
       0.068256              0.0481677469             0.00316669722           
       0.068935               0.047781854             0.00310298861           
       0.069614              0.0514195496             0.00325098343           
       0.070293               0.051597507              0.0032866337           
       0.070972              0.0487421948             0.00317101244           
       0.071652              0.0512046042              0.0032560853           
       0.072331              0.0465065601             0.00304781373           
       0.073010              0.0472310111             0.00314164031           
       0.073689              0.0444603436             0.00303135052           
       0.074368               0.045541071              0.0030623922           
       0.075047              0.0467947059             0.00307089023           
       0.075727              0.0432250994             0.00293321047           
       0.076406              0.0346476708             0.00267850288           
       0.077085              0.0377274777             0.00274277894           
       0.077764              0.0347043559             0.00262137687           
       0.078443              0.0414918413             0.00288402762           
       0.079122              0.0379822043              0.0027328504           
       0.079802              0.0339342578              0.0026105185           
       0.080481              0.0375131978             0.00265214541           
       0.081160              0.0462967692              0.0030067836           
       0.081839              0.0372811795             0.00265498771           
       0.082518              0.0352388009             0.00258341312           
       0.083197              0.0328922482             0.00245713544           
       0.083876              0.0392560266             0.00263972316           
       0.084556              0.0330622957              0.0024899179           
       0.085235              0.0355487256              0.0025319649           
       0.085914              0.0355115293             0.00255522314           
       0.086593              0.0339974444             0.00248406581           
       0.087272               0.039485323             0.00263921726           
       0.087951               0.033252409             0.00247668034           
       0.088631              0.0325128272             0.00236556937           
       0.089310                0.03662053             0.00256380763           
       0.089989              0.0329814702             0.00240464485           
       0.090668              0.0290615566             0.00228214345           
       0.091347              0.0364461631             0.00257000623           
       0.092026              0.0315722252             0.00228636348           
       0.092706              0.0332596712             0.00243184534           
       0.093385              0.0267367563             0.00214689319           
       0.094064              0.0303676373             0.00231465868           
       0.094743              0.0262109741             0.00211764828           
       0.095422              0.0297688483             0.00223163521           
       0.096101              0.0312155713             0.00233228378           
       0.096781              0.0323805439             0.00234139391           
       0.097460              0.0285751061             0.00213951236           
       0.098139               0.028762712             0.00213000771           
       0.098818              0.0286957013             0.00210132489           
       0.099497              0.0272682294             0.00205259852           
       0.100176              0.0306583429             0.00211933414           
       0.100856              0.0294787405             0.00207683107           
       0.101535              0.0283042799             0.00203111427           
       0.102214              0.0251370864             0.00191411692           
       0.102893              0.0279634718             0.00199585906           
       0.103572              0.0293877911             0.00201583117           
       0.104251              0.0278965172              0.0019712745           
       0.104931              0.0270838703             0.00192466669           
       0.105610              0.0255829516             0.00187855585           
       0.106289              0.0253380317              0.0018384298           
       0.106968              0.0244918208             0.00181283439           
       0.107647              0.0263484219             0.00188141879           
       0.108326              0.0258267395             0.00183778125           
       0.109005                0.02458137             0.00178164419           
       0.109685              0.0235043339             0.00172263358           
       0.110364              0.0228804296             0.00171892098           
       0.111043              0.0222294342             0.00168757334           
       0.111722              0.0280593832             0.00187282212           
       0.112401              0.0243866944             0.00175081381           
       0.113080              0.0230729774             0.00168348707           
       0.113760              0.0269497883             0.00184982065           
       0.114439              0.0241799155             0.00172717579           
       0.115118              0.0273902385             0.00182439958           
       0.115797              0.0256454461             0.00178168945           
       0.116476              0.0216421445             0.00161223285           
       0.117155               0.024685948              0.0017357662           
       0.117835              0.0233127564             0.00165326509           
       0.118514              0.0252519611             0.00174246975           
       0.119193              0.0228233255             0.00165657188           
       0.119872              0.0255814209             0.00173187869           
       0.120551              0.0204789095             0.00153923879           
       0.121230              0.0215482584              0.0015630256           
       0.121910              0.0215098194             0.00157672361           
       0.122589              0.0211833478             0.00156632463           
       0.123268              0.0212539536             0.00153853733           
       0.123947              0.0239238717             0.00164287153           
       0.124626               0.021698084             0.00154545294           
       0.125305              0.0236560811             0.00162159537           
       0.125985              0.0230042885             0.00158669136           
       0.126664              0.0196133147             0.00145113194           
       0.127343              0.0228482571              0.0015843934           
       0.128022               0.020192577             0.00147804781           
       0.128701              0.0247922752             0.00162923062           
       0.129380              0.0184321849             0.00138720005           
       0.130059              0.0223061175              0.0015295726           
       0.130739              0.0218967219             0.00152612829           
       0.131418              0.0217821844             0.00151787003           
       0.132097              0.0242839292             0.00158211331           
       0.132776              0.0220145413              0.0014995736           
       0.133455              0.0203041245             0.00145132995           
       0.134134              0.0208263248             0.00146519389           
       0.134814              0.0176246041             0.00133398333           
       0.135493              0.0208344508             0.00145624943           
       0.136172              0.0227178182             0.00150916625           
       0.136851              0.0213730334             0.00147233065           
       0.137530              0.0186220868             0.00134166404           
       0.138209              0.0186673783             0.00135906558           
       0.138889              0.0189434725             0.00137511404           
       0.139568              0.0197043371             0.00140185178           
       0.140247              0.0190605821             0.00137695501           
       0.140926              0.0221996839             0.00144353174           
       0.141605              0.0208029591             0.00143288469           
       0.142284              0.0184744399             0.00132793701           
       0.142964              0.0207410518             0.00141242416           
       0.143643              0.0205957843             0.00140569126           
       0.144322              0.0207244136             0.00138056777           
       0.145001               0.022451222             0.00146642797           
       0.145680              0.0193225821             0.00132823552           
       0.146359              0.0197433648             0.00134753121           
       0.147039              0.0197872968               0.001360136           
       0.147718              0.0225319399              0.0014274543           
       0.148397              0.0215300227             0.00141703938           
       0.149076              0.0202676354             0.00133221795           
       0.149755              0.0181059059             0.00127861088           
       0.150434              0.0217187377             0.00140095046           
       0.151114              0.0199534337               0.001335382           
       0.151793              0.0179096424             0.00126515628           
       0.152472               0.020883611             0.00134203401           
       0.153151              0.0186794271             0.00128150715           
       0.153830              0.0190994177             0.00128639266           
       0.154509              0.0189087843             0.00127461637           
       0.155188              0.0196048072             0.00129738366           
       0.155868              0.0204023778              0.0013140927           
       0.156547              0.0205149438              0.0013261772           
       0.157226              0.0169725247             0.00117679412           
       0.157905              0.0199997804             0.00128816808           
       0.158584              0.0165440062             0.00116947394           
       0.159263              0.0158218104             0.00114787166           
       0.159943              0.0203449238             0.00130261796           
       0.160622               0.020053901             0.00126830957           
       0.161301              0.0162304539             0.00115627588           
       0.161980              0.0173424281             0.00117490922           
       0.162659              0.0179889465             0.00120987191           
       0.163338               0.015208272             0.00110337261           
       0.164018              0.0190629386             0.00122882987           
       0.164697               0.019753561             0.00126695307           
       0.165376              0.0186324104              0.0012035894           
       0.166055              0.0185815216             0.00120987151           
       0.166734              0.0175634557             0.00117099163           
       0.167413              0.0167115932              0.0011430407           
       0.168093              0.0175863645             0.00118366724           
       0.168772              0.0174781024             0.00114550874           
       0.169451              0.0186091203             0.00120373771           
       0.170130              0.0181790426             0.00117412728           
       0.170809              0.0173027065             0.00115914796           
       0.171488              0.0164493314             0.00111989874           
       0.172168              0.0163779446             0.00110673083           
       0.172847              0.0175734845             0.00116147263           
       0.173526               0.015122938              0.0010568984           
       0.174205              0.0170555834             0.00112757128           
       0.174884              0.0151128177             0.00105587939           
       0.175563              0.0153785463             0.00106966937           
       0.176243              0.0172152729             0.00114307192           
       0.176922              0.0164516432             0.00108831213           
       0.177601              0.0161101672             0.00108879375           
       0.178280              0.0142963428             0.00101422175           
       0.178959              0.0164292573             0.00109599509           
       0.179638              0.0165342308             0.00109632471           
       0.180317              0.0195245567             0.00118266677           
       0.180997              0.0168542909             0.00110478541           
       0.181676              0.0191005375             0.00116354519           
       0.182355              0.0145416536             0.00102133424           
       0.183034              0.0172813277              0.0010955266           
       0.183713                0.01691672             0.00109710842           
       0.184392              0.0168218527             0.00109369691           
       0.185072              0.0162769948             0.00106357783           
       0.185751              0.0163355093               0.001068452           
       0.186430              0.0166433591             0.00107091904           
       0.187109              0.0181260756             0.00113005074           
       0.187788              0.0174096455             0.00110476267           
       0.188467               0.016319627             0.00105696109           
       0.189147               0.015267512             0.00103267572           
       0.189826              0.0162712117             0.00104722769           
       0.190505              0.0152045572             0.00102898474           
       0.191184              0.0167985949             0.00106599165           
       0.191863              0.0178100256             0.00109992622           
       0.192542              0.0174162443             0.00109795578           
       0.193222              0.0168091102             0.00105447583           
       0.193901              0.0169860593             0.00107421948           
       0.194580              0.0156859975             0.00101423514           
       0.195259              0.0180050093             0.00109910359           
       0.195938              0.0168157705             0.00106472112           
       0.196617              0.0160856622             0.00102681475           
       0.197297              0.0164614296             0.00104298022           
       0.197976              0.0157053717             0.00100309879           
       0.198655              0.0157254732              0.0010147042           
       0.199334              0.0170472889             0.00104717281           
       0.200013              0.0165871636             0.00103237122           
       0.200692              0.0177048656             0.00107300215           
       0.201371               0.015000609            0.000976539621           
       0.202051               0.016634635             0.00103155054           
       0.202730              0.0174963544             0.00104736527           
       0.203409              0.0141086694            0.000946832191           
       0.204088               0.016303311             0.00101668698           
       0.204767              0.0163844035             0.00101385549           
       0.205446              0.0148619581            0.000967490216           
       0.206126              0.0165608605             0.00100741678           
       0.206805               0.013592187             0.00092939856           
       0.207484              0.0156741873             0.00098010195           
       0.208163              0.0155049656            0.000980654546           
       0.208842              0.0152961203            0.000971388213           
       0.209521              0.0161284942            0.000989178686           
       0.210201              0.0176129139              0.0010452327           
       0.210880                0.01639476            0.000988651004           
       0.211559              0.0144238859              0.0009410348           
       0.212238              0.0155948793            0.000973509064           
       0.212917              0.0163378639            0.000992727458           
       0.213596              0.0158678081            0.000984127194           
       0.214276              0.0152471586            0.000944590904           
       0.214955              0.0145159501            0.000941044669           
       0.215634              0.0158044435            0.000974884892           
       0.216313               0.016707943             0.00100025865           
       0.216992              0.0156056927            0.000966459306           
       0.217671              0.0175644362             0.00101837429           
       0.218351              0.0134132494            0.000898636694           
       0.219030              0.0154395986            0.000948910498           
       0.219709              0.0156346781            0.000960842777           
       0.220388              0.0147735655            0.000932807939           
       0.221067              0.0137880204            0.000901871591           
       0.221746              0.0158784062            0.000966834437           
       0.222426              0.0159082149            0.000953278745           
       0.223105              0.0167189144            0.000990580765           
       0.223784              0.0164270048            0.000972155405           
       0.224463              0.0150585597            0.000938194953           
       0.225142              0.0136218266            0.000878198078           
       0.225821              0.0163030777            0.000964618195           
       0.226500              0.0152319107            0.000938318977           
       0.227180              0.0140945673            0.000888702188           
       0.227859              0.0148418313            0.000916047675           
       0.228538               0.013586465            0.000867649993           
       0.229217              0.0178671294             0.00100286587           
       0.229896              0.0148588297            0.000914110358           
       0.230575              0.0142961908            0.000882343671           
       0.231255               0.015354204            0.000928100942           
       0.231934              0.0150118507            0.000911425999           
       0.232613              0.0163553149             0.00095484547           
       0.233292              0.0159315324            0.000933288517           
       0.233971              0.0133357031            0.000853478102           
       0.234650              0.0127861579            0.000845537736           
       0.235330              0.0140727305            0.000879312186           
       0.236009              0.0159917863            0.000935330843           
       0.236688              0.0147501979            0.000895073474           
       0.237367              0.0161889565            0.000939073336           
       0.238046              0.0151978698            0.000916282165           
       0.238725              0.0146263015              0.0008850192           
       0.239405              0.0150600212            0.000903614011           
       0.240084              0.0137516513            0.000857972425           
       0.240763               0.014413922            0.000886800038           
       0.241442              0.0138871103            0.000858178504           
       0.242121              0.0163405757            0.000932662182           
       0.242800              0.0158277024             0.00092225457           
       0.243480               0.015559414            0.000910123291           
       0.244159              0.0150249648            0.000894788581           
       0.244838               0.013593506            0.000837093233           
       0.245517              0.0146846304            0.000882555938           
       0.246196              0.0164931491             0.00093577596           
       0.246875              0.0141924297            0.000855956902           
       0.247554              0.0126439594            0.000816124886           
       0.248234              0.0149234517            0.000873200588           
       0.248913              0.0138486555            0.000850604341           
       0.249592              0.0148019215            0.000871036324           
       0.250271              0.0137960347            0.000838477584           
       0.250950               0.016599234            0.000925358915           
       0.251629              0.0143299765            0.000852475514           
       0.252309              0.0142641811             0.00085224239           
       0.252988              0.0129237665            0.000797238322           
       0.253667               0.013870979            0.000835587603           
       0.254346              0.0158396898            0.000892734639           
       0.255025              0.0136047762            0.000825548067           
       0.255704              0.0136244757            0.000822361727           
       0.256384              0.0139882313            0.000830384685           
       0.257063              0.0128905422            0.000801682857           
       0.257742              0.0134476507            0.000813149862           
       0.258421              0.0137515203            0.000820702919           
       0.259100              0.0130956078            0.000802287697           
       0.259779              0.0116090132             0.00075473875           
       0.260459              0.0142137162            0.000836767572           
       0.261138              0.0133685857            0.000795650967           
       0.261817              0.0127887456            0.000793913397           
       0.262496              0.0124435134            0.000775444042           
       0.263175              0.0145634534            0.000840703677           
       0.263854              0.0126285603            0.000779229315           
       0.264534              0.0124398754            0.000766780804           
       0.265213              0.0135907071            0.000814094554           
       0.265892              0.0145178751            0.000830625621           
       0.266571               0.014407751             0.00082558757           
       0.267250              0.0129752508            0.000784790818           
       0.267929              0.0126702224            0.000774716142           
       0.268609              0.0111723211            0.000731465078           
       0.269288              0.0128971821            0.000772848049           
       0.269967              0.0136395186            0.000803341868           
       0.270646              0.0115641231            0.000736505162           
       0.271325              0.0126274472            0.000770906958           
       0.272004              0.0111262726            0.000716420669           
       0.272683              0.0118517994            0.000740323769           
       0.273363              0.0113375688            0.000728703065           
       0.274042              0.0118087725            0.000739304076           
       0.274721              0.0120164287            0.000745333893           
       0.275400               0.012536141            0.000756240722           
       0.276079              0.0121529209            0.000748820124           
       0.276758              0.0112996186            0.000731165004           
       0.277438               0.012571584            0.000762563305           
       0.278117               0.011758113            0.000750889172           
       0.278796              0.0115157969            0.000735568746           
       0.279475              0.0117082933            0.000753943433           
       0.280154              0.0107577153            0.000712294531           
       0.280833              0.0119014075            0.000753757808           
       0.281513              0.0121639575            0.000773981737           
       0.282192              0.0122205291            0.000762544393           
       0.282871              0.0114054821            0.000741824469           
       0.283550              0.0115190686            0.000749504365           
       0.284229              0.0127165362            0.000799065097           
       0.284908              0.0121250201            0.000788489299           
       0.285588              0.0112636589            0.000751067001           
       0.286267              0.0108282717            0.000748199202           
       0.286946              0.0110061617            0.000749414592           
       0.287625              0.0107621098            0.000753677009           
       0.288304             0.00999382022            0.000716556147           
       0.288983              0.0109554381            0.000759739227           
       0.289663              0.0110125912            0.000766176602           
       0.290342             0.00958438592            0.000710965103           
       0.291021              0.0105108553            0.000748546251           
       0.291700             0.00979243656            0.000713073294           
       0.292379              0.0110950624            0.000776399351           
       0.293058               0.011276989            0.000779782156           
       0.293738              0.0098607396            0.000723051295           
       0.294417              0.0103097246            0.000747922638           
       0.295096              0.0100814859            0.000731466854           
       0.295775             0.00998465738            0.000739062809           
       0.296454              0.0101846988            0.000736774977           
       0.297133             0.00975128064            0.000724338218           
       0.297812              0.0119099167            0.000804521571           
       0.298492              0.0111604384            0.000780301148           
       0.299171              0.0106143198            0.000759530611           
       0.299850              0.0098860364            0.000728005243           
       0.300529              0.0101971336            0.000747699704           
       0.301208             0.00981959507            0.000735513182           
       0.301887              0.0107843764            0.000769883126           
       0.302567             0.00941506146            0.000715744957           
       0.303246              0.0104917379             0.00076049549           
       0.303925             0.00918086738            0.000720535737           
       0.304604              0.0107246585            0.000761947441           
       0.305283             0.00922202418            0.000717034761           
       0.305962             0.00893979492            0.000701712584           
       0.306642             0.00901794042            0.000714344695           
       0.307321             0.00968649793            0.000737986695           
       0.308000             0.00907457755             0.00070582948           
       0.308679             0.00963796373            0.000743162436           
       0.309358             0.00889491389            0.000704282888           
       0.310037             0.00944313267            0.000727278694           
       0.310717             0.00951667919            0.000729402911           
       0.311396              0.0104477675            0.000769377467           
       0.312075             0.00781681549            0.000673930906           
       0.312754             0.00766761658            0.000654115224           
       0.313433             0.00904715017            0.000716705477           
       0.314112             0.00875318403            0.000704803664           
       0.314792             0.00894833576            0.000717649436           
       0.315471             0.00838065541            0.000685923953           
       0.316150             0.00916496738            0.000723941219           
       0.316829             0.00971069855            0.000750104107           
       0.317508             0.00840765565            0.000690133178           
       0.318187             0.00916426069            0.000730021684           
       0.318866             0.00838715196            0.000688976037           
       0.319546              0.0084787896            0.000703113492           
       0.320225             0.00936755793            0.000739060831           
       0.320904              0.0084305497            0.000690283337           
       0.321583             0.00776643692            0.000677136138           
       0.322262             0.00770381265            0.000664179405           
       0.322941             0.00896231575            0.000725556701           
       0.323621             0.00826194122            0.000692378816           
       0.324300             0.00921703448            0.000731877816           
       0.324979             0.00708779083            0.000642958391           
       0.325658             0.00735641461            0.000656217322           
       0.326337             0.00813384223            0.000690921908           
       0.327016             0.00721116186             0.00064642441           
       0.327696              0.0081590715            0.000695246729           
       0.328375             0.00777268599            0.000672858679           
       0.329054             0.00852066548            0.000708311313           
       0.329733             0.00911340783             0.00073520925           
       0.330412             0.00657156183            0.000619201196           
       0.331091             0.00797833925            0.000694641949           
       0.331771              0.0074792057            0.000654938927           
       0.332450              0.0073153397            0.000660300191           
       0.333129             0.00845542181            0.000708059439           
       0.333808             0.00722910382             0.00065556829           
       0.334487             0.00777831681            0.000683239213           
       0.335166              0.0067291451            0.000626191142           
       0.335846             0.00848674462            0.000715588248           
       0.336525             0.00767186273            0.000673649395           
       0.337204             0.00694204018            0.000642486706           
       0.337883             0.00825764285             0.00070165549           
       0.338562             0.00753243427            0.000673855745           
       0.339241             0.00592705274            0.000598868808           
       0.339921             0.00686674773            0.000633786535           
       0.340600             0.00734054448            0.000667731281           
       0.341279             0.00668740568            0.000630508257           
       0.341958             0.00616384066            0.000613863727           
       0.342637             0.00598639336            0.000596416702           
       0.343316              0.0064417719            0.000620476606           
       0.343995             0.00696613097            0.000655801147           
       0.344675              0.0061637771             0.00060554193           
       0.345354             0.00643161113            0.000622638466           
       0.346033             0.00617033339            0.000608270544           
       0.346712             0.00683430569            0.000644246425           
       0.347391             0.00553230031            0.000583228127           
       0.348070             0.00668358563            0.000631943879           
       0.348750             0.00620483822            0.000617688352           
       0.349429             0.00680754341            0.000638640159           
       0.350108             0.00685609658            0.000648625994           
       0.350787             0.00735525802            0.000660409457           
       0.351466             0.00638919463            0.000626851713           
       0.352145             0.00559757252            0.000587221385           
       0.352825             0.00646225378            0.000628090729           
       0.353504             0.00682810491            0.000645466863           
       0.354183             0.00499381313            0.000545641511           
       0.354862             0.00617809233            0.000621004625           
       0.355541             0.00570437892            0.000588906734           
       0.356220             0.00572307883            0.000590985419           
       0.356900             0.00609205675            0.000615530415           
       0.357579             0.00532851495            0.000568607322           
       0.358258             0.00634966006            0.000629293689           
       0.358937             0.00521445997            0.000559551651           
       0.359616             0.00548831945            0.000582073553           
       0.360295             0.00660694398            0.000639175523           
       0.360975             0.00563999464            0.000588027738           
       0.361654             0.00582947293            0.000600905755           
       0.362333             0.00545263986            0.000578204153           
       0.363012             0.00540695394            0.000583184888           
       0.363691             0.00638225838            0.000621102435           
       0.364370             0.00489026229            0.000550423077           
       0.365050             0.00532079227            0.000571068947           
       0.365729             0.00617335156            0.000620986684           
       0.366408             0.00589223686            0.000608026395           
       0.367087              0.0051550771            0.000559600251           
       0.367766             0.00513170471            0.000569963535           
       0.368445             0.00664763772            0.000637191436           
       0.369124             0.00626915161            0.000623647238           
       0.369804             0.00469225302            0.000538678764           
       0.370483              0.0051181164            0.000565054438           
       0.371162             0.00543895288            0.000585873016           
       0.371841             0.00449253725            0.000523181939           
       0.372520             0.00558239774             0.00059488971           
       0.373199             0.00513138833            0.000563538499           
       0.373879             0.00474350273            0.000548093991           
       0.374558             0.00381211551            0.000484177298           
       0.375237             0.00473848706            0.000540695295           
       0.375916             0.00493758903            0.000562511564           
       0.376595              0.0047299855            0.000539798611           
       0.377274             0.00490036183            0.000558229284           
       0.377954             0.00474508816            0.000540684837           
       0.378633             0.00392087343            0.000497699681           
       0.379312             0.00492456084            0.000557635035           
       0.379991             0.00456670153            0.000534212383           
       0.380670             0.00407891271            0.000513799688           
       0.381349             0.00397685463            0.000500046674           
       0.382029             0.00408879121            0.000514300181           
       0.382708             0.00421694307            0.000510892055           
       0.383387             0.00487120719            0.000561540161           
       0.384066             0.00305491261            0.000440614405           
       0.384745             0.00360435819            0.000480482048           
       0.385424             0.00420790133            0.000520916981           
       0.386104             0.00391785209            0.000497088428           
       0.386783              0.0036445873            0.000489809721           
       0.387462             0.00493746423            0.000555923006           
       0.388141             0.00549673872            0.000595932154           
       0.388820             0.00375914728            0.000489258253           
       0.389499              0.0039471435             0.00050416531           
       0.390178             0.00546885996            0.000595807441           
       0.390858              0.0037082341              0.0004866454           
       0.391537             0.00463816492            0.000549812192           
       0.392216             0.00470688771             0.00054692813           
       0.392895             0.00454926789            0.000539504073           
       0.393574             0.00420535422            0.000517425007           
       0.394253             0.00514583176            0.000574941035           
       0.394933             0.00416096406            0.000522910234           
       0.395612             0.00451283801            0.000528753243           
       0.396291             0.00336174999            0.000465654435           
       0.396970             0.00387012973             0.00049519795           
       0.397649             0.00435587103            0.000526973356           
       0.398328             0.00323070252            0.000451841873           
       0.399008             0.00359064394            0.000475312559           
       0.399687             0.00394388316            0.000500081536           
       0.400366             0.00384159216            0.000491665976           
       0.401045             0.00495345852            0.000557245912           
       0.401724             0.00466474538            0.000541665175           
       0.402403             0.00568349958            0.000602554951           
       0.403083              0.0045906728            0.000533726735           
       0.403762             0.00370163901            0.000481630667           
       0.404441              0.0035645924            0.000475641019           
       0.405120             0.00378381264            0.000488441631           
       0.405799             0.00393112798             0.00049569625           
       0.406478             0.00442551415            0.000525956487           
       0.407158             0.00292247393            0.000426606469           
       0.407837             0.00455020822            0.000537012232           
       0.408516             0.00421019091             0.00051206465           
       0.409195             0.00374932897             0.00048870812           
       0.409874             0.00419579368            0.000524180224           
       0.410553              0.0028321866             0.00043529174           
       0.411233             0.00364941339            0.000491558089           
       0.411912             0.00403889406            0.000524451023           
       0.412591             0.00382851336             0.00051398874           
       0.413270             0.00297514118            0.000450945597           
       0.413949             0.00330594001            0.000480546604           
       0.414628             0.00331533873            0.000480365191           
       0.415307             0.00331480151             0.00048566919           
       0.415987             0.00340087792             0.00048788072           
       0.416666             0.00362739334            0.000500834927           
       0.417345             0.00404428328            0.000537663519           
       0.418024             0.00334466057            0.000488963988           
       0.418703             0.00289471483            0.000454051548           
       0.419382             0.00335577308            0.000486480146           
       0.420062             0.00274285375            0.000441047383           
       0.420741             0.00305413952             0.00046787715           
       0.421420             0.00278857118            0.000448768343           
       0.422099             0.00378399668            0.000522778848           
       0.422778             0.00341354419            0.000499218755           
       0.423457             0.00338270348            0.000500000224           
       0.424137             0.00262035795            0.000432895115           
       0.424816             0.00289592945            0.000464600055           
       0.425495             0.00310003375            0.000480239012           
       0.426174              0.0027321833            0.000451004819           
       0.426853             0.00285065684            0.000457881056           
       0.427532             0.00283383291            0.000460387713           
       0.428212             0.00263719784            0.000447059579           
       0.428891             0.00300480512            0.000476116549           
       0.429570             0.00278909212            0.000459021888           
       0.430249             0.00289719539            0.000465404039           
       0.430928             0.00272775685            0.000461464835           
       0.431607             0.00254458427            0.000438043399           
       0.432287             0.00236645735            0.000425527112           
       0.432966             0.00264579224            0.000453898895           
       0.433645             0.00156317505            0.000349251559           
       0.434324             0.00176409278            0.000368781768           
       0.435003             0.00123837415             0.00030951079           
       0.435682             0.00244369911            0.000438350098           
       0.436361             0.00283276354            0.000471325325           
       0.437041              0.0023383179            0.000427648962           
       0.437720             0.00165950671            0.000362005267           
       0.438399             0.00238942276            0.000436648793           
       0.439078             0.00247430299            0.000457221635           
       0.439757             0.00193625371             0.00040197379           
       0.440436             0.00204021029            0.000421922733           
       0.441116             0.00300760577            0.000520655008           
       0.441795             0.00231144233            0.000456987212           
       0.442474             0.00286358119            0.000510066245           
       0.443153              0.0023447432            0.000472318568           
       0.443832             0.00283970007            0.000520660983           
       0.444511             0.00252089248            0.000488353928           
       0.445191             0.00177709672            0.000420000751           
       0.445870             0.00324344463            0.000567426532           
       0.446549             0.00171274001            0.000416684947           
       0.447228             0.00300001278            0.000548356071           
       0.447907              0.0015411704            0.000397746773           
       0.448586             0.00151361916            0.000403659797           
       0.449266             0.00168887164            0.000422466508           
       0.449945             0.00219831753            0.000480025312           
       0.450624             0.00334354884            0.000601402646           
       0.451303             0.00257372666            0.000534485817           
       0.451982             0.00165986041            0.000426577219           
       0.452661             0.00309743362            0.000593580163           
       0.453341             0.00345990467            0.000629549288           
       0.454020             0.00279064618            0.000566254121           
       0.454699             0.00330341578            0.000621711812           
       0.455378             0.00249860853            0.000540990463           
       0.456057             0.00175143386             0.00046099181           
       0.456736              0.0019918217            0.000490077969           
       0.457416             0.00149825796            0.000425055439           
       0.458095             0.00254197659            0.000561665996           
       0.458774              0.0024886459            0.000563087439           
       0.459453             0.00161789994            0.000456304729           
       0.460132              0.0011606651            0.000378138409           
       0.460811              0.0020799708             0.00052509072           
       0.461490             0.00229328278              0.0005457515           
       0.462170             0.00116499009            0.000395050167           
       0.462849             0.00213663554            0.000538473154           
       0.463528            0.000769334217            0.000322365148           
       0.464207             0.00179046276            0.000500984452           
       0.464886             0.00189004617            0.000510720013           
       0.465565             0.00165545094            0.000483225221           
       0.466245             0.00139364191            0.000444746574           
       0.466924            0.000863824048              0.0003584175           
       0.467603             0.00253391511            0.000600844021           
       0.468282            0.000877583266            0.000361982977           
       0.468961             0.00226035394            0.000584757605           
       0.469640             0.00151036739            0.000479908069           
       0.470320             0.00227759235            0.000589732168           
       0.470999             0.00169694758            0.000513840194           
       0.471678            0.000961286186            0.000390458375           
       0.472357            0.000967625885            0.000392837436           
       0.473036            0.000489654136            0.000281213742           
       0.473715             0.00147745731             0.00049230415           
       0.474395            0.000870398318             0.00038308686           
       0.475074            0.000871781393            0.000383402271           
       0.475753             0.00166789035            0.000525739923           
       0.476432             0.00164072544            0.000540424547           
       0.477111             0.00159573058            0.000526517756           
       0.477790            0.000561788403            0.000314075364           
       0.478470            0.000230203088            0.000203708273           
       0.479149              0.0016921378            0.000558007332           
       0.479828             0.00115181011            0.000459292038           
       0.480507            0.000424919279            0.000281215364           
       0.481186            0.000656518144            0.000357429582           
       0.481865            0.000628858261            0.000345487191           
       0.482545             0.00083604591            0.000403034524           
       0.483224            0.000473290239             0.00030531519           
       0.483903            0.000907338619            0.000429394918           
       0.484582            0.000300877987            0.000251288745           
       0.485261            8.30220748e-05            0.000128655893           
       0.485940           -0.000308373509                         0           
       0.486619           -0.000110043544                         0           
       0.487299            0.000763084462            0.000407717844           
       0.487978            0.000720802791            0.000392224023           
       0.488657            0.000831004765            0.000438519717           
       0.489336            -9.1427816e-05                         0           
       0.490015            0.000133688723            0.000174161626           
       0.490694           -8.19358799e-05                         0           
       0.491374           -7.60772678e-05                         0           
       0.492053            0.000182338732            0.000212138739           
       0.492732           -0.000308559961                         0           
       0.493411           -6.05878243e-05                         0           
       0.494090           -0.000308597886                         0           
       0.494769           -0.000308616543                         0           
       0.495449           -0.000308635463                         0           
       0.496128           -5.79289493e-05                         0           
       0.496807           -0.000308673211                         0           
       0.497486           -0.000308692153                         0           
       0.498165           -3.35996778e-05                         0           
       0.498844           -0.000308730295                         0           
       0.499524            -0.00030874931                         0           
       0.500203           -3.24815816e-05                         0           
       0.500882           -0.000308787563                         0           
       0.501561            0.000263879454            0.000276854317           
       0.502240           -0.000308825809                         0           
       0.502919           -0.000308844973                         0           
       0.503599           -0.000308864214                         0           
       0.504278            0.000285371259            0.000295463283           
       0.504957           -0.000308903008                         0           
       0.505636           -0.000308922166                         0           
       0.506315            -0.00030894164                         0           
       0.506994           -0.000308960766                         0           
       0.507673           -0.000308979853                         0           
       0.508353           -0.000308999343                         0           
       0.509032           -0.000309018749                         0           
       0.509711           -0.000309038163                         0           
       0.510390           -0.000309057882                         0           
       0.511069           -0.000309077536                         0           
       0.511748           -0.000309097111                         0           
       0.512428            4.95252985e-05            0.000135100464           
       0.513107           -0.000309136236                         0           
       0.513786           -0.000309155708                         0           
       0.514465           -0.000309175512                         0           
       0.515144           -0.000309195302                         0           
       0.515823           -0.000309214912                         0           
       0.516503           -0.000309234706                         0           
       0.517182           -0.000309254498                         0           
       0.517861            0.000104069402            0.000207074698           
       0.518540            0.000125471477            0.000233264947           
       0.519219            0.000120154946            0.000224931844           
       0.519898           -0.000309333778                         0           
       0.520578           -0.000309353838                         0           
       0.521257           -0.000309373639                         0           
       0.521936           -0.000309393487                         0           
       0.522615           -0.000309413573                         0           
       0.523294            0.000160373697             0.00027314768           
       0.523973           -0.000309453616                         0           
       0.524653           -0.000309473355                         0           
       0.525332           -0.000309493381                         0           
       0.526011           -0.000309513767                         0           
       0.526690           -0.000309534114                         0           
       0.527369            0.000201997563            0.000321835578           
       0.528048           -0.000309574617                         0           
       0.528728           -0.000309594916                         0           
       0.529407           -0.000309615121                         0           
       0.530086           -0.000309635222                         0           
       0.530765           -0.000309655351                         0           
       0.531444            0.000194686414            0.000312580719           
       0.532123           -0.000309696404                         0           
       0.532802           -0.000309716942                         0           
       0.533482           -0.000309737409                         0           
       0.534161            0.000239190984            0.000362567747           
       0.534840           -0.000309778234                         0           
       0.535519           -0.000309798935                         0           
       0.536198           -0.000309819422                         0           
       0.536877           -0.000309839626                         0           
       0.537557            0.000245712798            0.000370179099           
       0.538236           -0.000309880915                         0           
       0.538915           -0.000309901645                         0           
       0.539594           -0.000309922346                         0           
       0.540273            0.000295452484            0.000420369235           
       0.540952           -0.000309964163                         0           
       0.541632           -0.000309984574                         0           
       0.542311           -0.000310005172                         0           
       0.542990            0.000386227098            0.000518094503           
       0.543669           -0.000310047004                         0           
       0.544348            0.000413521847            0.000544335895           
       0.545027           -0.000310088915                         0           
       0.545707           -0.000310109911                         0           
       0.546386           -0.000310130966                         0           
       0.547065           -0.000310151768                         0           
       0.547744           -0.000310172665                         0           
       0.548423             0.00039310828            0.000521272479           
       0.549102           -0.000310214941                         0           
       0.549782            0.000362599618            0.000508291378           
       0.550461           -0.000310257275                         0           
       0.551140           -0.000310278695                         0           
       0.551819           -0.000310299862                         0           
       0.552498           -0.000310321209                         0           
       0.553177             0.00052609945            0.000656080233           
       0.553856           -0.000310363247                         0           
       0.554536           -0.000310384373                         0           
       0.555215            0.000597584514            0.000739451213           
       0.555894            0.000503692034            0.000642044391           
       0.556573           -0.000310448743                         0           
       0.557252            -0.00031047025                         0           
       0.557931           -0.000310491659                         0           
       0.558611           -0.000310513569                         0           
       0.559290           -0.000310534921                         0           
       0.559969           -0.000310555749                         0           
       0.560648           -0.000310577128                         0           
       0.561327           -0.000310598984                         0           
       0.562006           -0.000310620739                         0           
       0.562686           -0.000310642505                         0           
       0.563365           -0.000310664352                         0           
       0.564044           -0.000310686089                         0           
       0.564723           -0.000310707778                         0           
       0.565402           -0.000310729063                         0           
       0.566081           -0.000310750489                         0           
       0.566761           -0.000310772145                         0           
       0.567440           -0.000310794242                         0           
       0.568119           -0.000310816165                         0           
       0.568798           -0.000310838395                         0           
       0.569477           -0.000310860483                         0           
       0.570156           -0.000310882678                         0           
       0.570836           -0.000310904789                         0           
       0.571515           -0.000310926433                         0           
       0.572194           -0.000310948704                         0           
       0.572873           -0.000310970466                         0           
       0.573552             -0.0003109921                         0           
       0.574231           -0.000311014172                         0           
       0.574911           -0.000311036801                         0           
       0.575590           -0.000311058995                         0           
       0.576269            -0.00031108112                         0           
       0.576948           -0.000311103671                         0           
       0.577627           -0.000311125533                         0           
       0.578306           -0.000311147705                         0           
       0.578985           -0.000311170066                         0           
       0.579665           -0.000311192298                         0           
       0.580344           -0.000311214866                         0           
       0.581023            -0.00031123741                         0           
       0.581702           -0.000311259746                         0           
       0.582381           -0.000311281878                         0           
       0.583060           -0.000311304671                         0           
       0.583740           -0.000311327106                         0           
       0.584419           -0.000311349615                         0           
       0.585098           -0.000311372098                         0           
       0.585777           -0.000311394755                         0           
       0.586456           -0.000311417782                         0           
       0.587135           -0.000311440196                         0           
       0.587815           -0.000311462368                         0           
       0.588494           -0.000311485231                         0           
       0.589173           -0.000311508619                         0           
       0.589852           -0.000311530764                         0           
       0.590531           -0.000311553744                         0           
       0.591210           -0.000311576194                         0           
       0.591890           -0.000311599078                         0           
       0.592569           -0.000311621196                         0           
       0.593248           -0.000311645377                         0           
       0.593927           -0.000311668368                         0           
       0.594606           -0.000311691832                         0           
       0.595285           -0.000311713898                         0           
       0.595965           -0.000311734488                         0           
       0.596644           -0.000311755677                         0           
