################################################################################
# EDF_DataBlockID                     0.Image.Psd
# EDF_BinarySize                      4366944
# EDF_HeaderSize                      2560
# ByteOrder                           LowByteFirst
# DataType                            FloatValue
# Dim_1                               1028
# Dim_2                               1062
# Image                               0
# HeaderID                            EH:000000:000000:000000
# Size                                4366944
# Center_1                            607.5200
# Center_2                            651.5500
# Comment                             Xenocs_Cell_Window - 20251028_20perc_iodine_1.23mg
# DDummy                              0.6
# Date                                2025-11-01T05:29:42
# Delta                               0
# Dummy                               -1.5
# ExposureTime                        360
# Gamma                               0
# Intensity1                          8.63104e-10
# PSize_1                             7.5e-05
# PSize_2                             7.5e-05
# Pressure                            0.0327339
# SampleDistance                      0.450002
# SampleEnvKind                       large
# SampleEnvPN                         ElectroChemical cell
# SampleEnvSN                         1141
# Thickness                           0
# Wavelength                          1.541891e-10
# Wavelength                          1.54189e-10
# aux                                 0
# aux_dial                            0.002375
# beamx                               588.434
# beamx_dial                          588.434
# beamz                               657.808
# beamz_dial                          657.808
# det0x                               0
# det0x_dial                          6.36945
# det0xvd                             0
# det0xvd_dial                        0
# det0y                               450.002
# det0y_dial                          481.635
# det0z                               0
# det0z_dial                          1.23302
# det0zvd                             0
# det0zvd_dial                        0
# mag                                 1.818
# mag_dial                            1.818
# om                                  0.2499
# om_dial                             -0.610199
# phi                                 -0.0120535
# phi_dial                            0
# ry                                  0.599993
# ry_dial                             0.599993
# s1bot                               0.8
# s1bot_dial                          -1.66094
# s1hl                                0.8
# s1hl_dial                           -0.608437
# s1hr                                0.8
# s1hr_dial                           0.970938
# s1top                               0.8
# s1top_dial                          -0.461562
# s2bot                               0.45
# s2bot_dial                          1.36109
# s2hl                                0.45
# s2hl_dial                           -0.83375
# s2hr                                0.45
# s2hr_dial                           -0.118594
# s2top                               0.45
# s2top_dial                          1.44734
# w2theta                             32
# w2theta_dial                        32
# waxsch                              19.2605
# waxsch_dial                         -32.7355
# waxsh                               137.085
# waxsh_dial                          -43.5338
# waxsth                              26.0607
# waxsth_dial                         -19.4086
# waxsz                               67.0407
# waxsz_dial                          -23.7954
# wind                                65.9854
# wind_dial                           66.0041
# wpsi                                124
# wpsi_dial                           124
# wstod                               115
# wstod_dial                          115
# x                                   0
# x_dial                              1.00969
# z                                   0
# z_dial                              13.3172
# CountCutoff                         15302352
# DetectorModel                       Dectris EIGER2 Si 1M, S/N E-02-0362
# ThresholdSetting                    4023.88989258
# Saturation                          0
# FlatField                           Corrected
# BackgroundReductionExtra            0.02
# BackgroundCorrectionConstant        0.0026712
# Detector                            0
# Monitor                             0
# Pil_Roi0                            0
# SumForIntensity1                    3.10718e+08
# TransmittedFlux                     863104
# det                                 0
# mon                                 0
# pilai0                              3.10718e+08
# pilai1                              788431
# pilct0                              5.36558e+08
# pilct1                              788431
# pilroi0                             0
# pilroi1                             0
# sec                                 1
# title                               20251028_20perc_iodine_1.23mg_0_00792.edf
# usaxs0                              0
# Operation                           Azimuthal average I(q)
# Error_model                         ErrorModel.poisson
# Geometrical_correction              True
# Transmission_correction             True
# Thickness_correction                False
# Binning mode                        Uniform
# Binning factor                      1.0
# Psi                                 0.0
# Omega                               0.2499
# MaskInvalidPixels                   True
# DetectorEdge                        3
# MaskFiles                           ['20251028_20perc_iodine_1.23mg_0_00012_mask.edf']
################################################################################
    q(A⁻¹)                Intensity(a.u.)            Sigma_I(a.u.)            
       0.000340                372670.396                119.969871           
       0.001019                360098.639                72.2164495           
       0.001698                350629.407                50.3888676           
       0.002377                331182.768                43.8015359           
       0.003056                 307353.76                35.6624185           
       0.003735                253373.195                 28.556154           
       0.004415                204499.034                25.6545922           
       0.005094                152015.467                19.1555281           
       0.005773                99873.5615                 14.374815           
       0.006452                57915.5409                 10.488269           
       0.007131                32199.0918                7.57593934           
       0.007810                16295.1178                5.34845482           
       0.008490                8270.25022                3.37746958           
       0.009169                4046.66462                2.33491668           
       0.009848                1265.26328                1.26231808           
       0.010527                494.823822               0.789412342           
       0.011206                123.436057               0.376299068           
       0.011885                56.5768864               0.236700792           
       0.012564                25.1798213               0.162120629           
       0.013244                16.8620665               0.124030168           
       0.013923                12.2546904               0.107441674           
       0.014602                9.53372992              0.0878896917           
       0.015281                7.39666403              0.0788049212           
       0.015960                5.95957902               0.070229425           
       0.016639                4.82946516              0.0597001553           
       0.017319                4.07304867              0.0539732437           
       0.017998                3.39369839              0.0471331759           
       0.018677                2.97204643              0.0456838847           
       0.019356                2.46165975              0.0410816945           
       0.020035                2.14581251              0.0359851636           
       0.020714                 1.8581811              0.0338410514           
       0.021394                1.64110137              0.0300910531           
       0.022073                1.40502721              0.0289681933           
       0.022752                 1.2283229              0.0259100853           
       0.023431                1.08754395              0.0236653685           
       0.024110               0.974125703              0.0233509241           
       0.024789               0.897496436              0.0208158014           
       0.025469               0.839758791              0.0207494275           
       0.026148               0.729894972              0.0181758178           
       0.026827               0.652935073              0.0174660072           
       0.027506                0.61812882              0.0172391624           
       0.028185               0.569840333              0.0157848176           
       0.028864               0.484269749              0.0144698142           
       0.029544               0.471256457              0.0138418362           
       0.030223                0.41976781              0.0132511315           
       0.030902               0.413199103              0.0132673538           
       0.031581               0.356068999              0.0117077579           
       0.032260               0.351028259              0.0118226627           
       0.032939                0.31648884               0.010824271           
       0.033619               0.312303696              0.0109104906           
       0.034298               0.246276437             0.00942871116           
       0.034977               0.243747067             0.00919582753           
       0.035656               0.243579489             0.00943595844           
       0.036335               0.200712009              0.0083074543           
       0.037014               0.203953692             0.00839925148           
       0.037693               0.179741858             0.00758522622           
       0.038373               0.182329297             0.00771459773           
       0.039052               0.164153419             0.00735112643           
       0.039731               0.168795743              0.0072806282           
       0.040410               0.146680398             0.00674143891           
       0.041089               0.123168809              0.0060807924           
       0.041768               0.136490287             0.00643463256           
       0.042448               0.143695217             0.00655105084           
       0.043127               0.121557267             0.00588301659           
       0.043806               0.117015877             0.00581511343           
       0.044485               0.118356461             0.00572818457           
       0.045164                0.10724556             0.00556015594           
       0.045843               0.110599547              0.0054156116           
       0.046523                 0.1008867             0.00519020954           
       0.047202               0.106937457             0.00538092682           
       0.047881               0.103899214             0.00520165357           
       0.048560              0.0896480889             0.00487580546           
       0.049239               0.093130188             0.00477170905           
       0.049918              0.0861310164             0.00467860716           
       0.050598              0.0805506718             0.00445662623           
       0.051277              0.0876266385             0.00463350264           
       0.051956              0.0872422687             0.00459429631           
       0.052635              0.0764681436             0.00420997933           
       0.053314              0.0682560985             0.00409379242           
       0.053993              0.0715139862             0.00407542322           
       0.054673              0.0734731974             0.00403885424           
       0.055352              0.0671033628             0.00391650429           
       0.056031              0.0743507072              0.0040359581           
       0.056710              0.0698530208             0.00400784344           
       0.057389              0.0719988861             0.00392372155           
       0.058068              0.0678385439             0.00384793286           
       0.058748              0.0608083931             0.00368854361           
       0.059427              0.0635173079              0.0037059815           
       0.060106              0.0598940037             0.00363278745           
       0.060785               0.057968843             0.00346684342           
       0.061464              0.0635980244             0.00371879862           
       0.062143              0.0547161257             0.00341432063           
       0.062822               0.058967307             0.00350288432           
       0.063502              0.0555302094              0.0033931901           
       0.064181              0.0576099751             0.00341965223           
       0.064860              0.0533497556             0.00334090555           
       0.065539              0.0512740161             0.00324323947           
       0.066218              0.0451157462             0.00297710668           
       0.066897               0.051774102             0.00321385547           
       0.067577              0.0464419619             0.00307310768           
       0.068256              0.0444211363             0.00307933297           
       0.068935              0.0447972131             0.00304233916           
       0.069614              0.0446537976              0.0030677027           
       0.070293              0.0487456209             0.00323473117           
       0.070972              0.0443111686             0.00306150838           
       0.071652              0.0391599622             0.00288333992           
       0.072331              0.0424186466              0.0029474277           
       0.073010              0.0385968236             0.00287575622           
       0.073689               0.039236148             0.00288354264           
       0.074368               0.039971922             0.00290516064           
       0.075047              0.0370060646             0.00276525909           
       0.075727              0.0410623458             0.00289487989           
       0.076406               0.041852877             0.00298092604           
       0.077085              0.0376745193             0.00277535938           
       0.077764              0.0366059174                0.00272613           
       0.078443              0.0407310022             0.00289343717           
       0.079122              0.0346673293             0.00264374409           
       0.079802              0.0348539587             0.00267896537           
       0.080481              0.0371520551             0.00267257656           
       0.081160              0.0326959253             0.00255862767           
       0.081839              0.0319772659             0.00248984208           
       0.082518              0.0338451065             0.00256368515           
       0.083197              0.0335158966             0.00251154626           
       0.083876              0.0338965131             0.00248379742           
       0.084556              0.0363868609             0.00264499141           
       0.085235              0.0340750978             0.00251013838           
       0.085914              0.0398171705             0.00273976168           
       0.086593              0.0297922797             0.00235464411           
       0.087272              0.0327716117              0.0024346674           
       0.087951              0.0314551083             0.00243914399           
       0.088631               0.032457184             0.00239330024           
       0.089310               0.029925608              0.0023468107           
       0.089989              0.0278464077             0.00223735023           
       0.090668              0.0277620295             0.00225861681           
       0.091347              0.0297593333              0.0023515451           
       0.092026              0.0328570185             0.00236178413           
       0.092706              0.0308248299             0.00237061357           
       0.093385              0.0339027597             0.00244797541           
       0.094064              0.0264532538             0.00218753219           
       0.094743              0.0288321939             0.00224897454           
       0.095422              0.0288109739              0.0022230775           
       0.096101              0.0295203736             0.00229662516           
       0.096781              0.0314281252             0.00233574322           
       0.097460              0.0302952055             0.00223070054           
       0.098139              0.0283700101             0.00214204924           
       0.098818              0.0268725708             0.00205907818           
       0.099497              0.0267108088             0.00205708628           
       0.100176               0.026630773             0.00200009409           
       0.100856              0.0248359264             0.00193028012           
       0.101535              0.0238462197              0.0018877806           
       0.102214              0.0271332209              0.0020137016           
       0.102893              0.0290876826             0.00206121043           
       0.103572              0.0248820017             0.00187822142           
       0.104251              0.0243006402             0.00186300669           
       0.104931              0.0259501461             0.00190767116           
       0.105610              0.0239045948             0.00183875102           
       0.106289              0.0217689468             0.00172549128           
       0.106968               0.023717208             0.00180639541           
       0.107647              0.0238407361             0.00181218048           
       0.108326              0.0217644792             0.00170830972           
       0.109005              0.0242801763             0.00179298765           
       0.109685               0.025768971             0.00182642111           
       0.110364              0.0208660505             0.00166217749           
       0.111043              0.0235324286             0.00175818784           
       0.111722               0.023218408             0.00172507164           
       0.112401              0.0214262752             0.00166176758           
       0.113080              0.0235712491             0.00172298981           
       0.113760              0.0224218383             0.00170852366           
       0.114439              0.0236999841             0.00173147659           
       0.115118                0.02307212             0.00169550569           
       0.115797              0.0239984032             0.00174522529           
       0.116476              0.0220784298             0.00164890319           
       0.117155              0.0212580719             0.00163102908           
       0.117835              0.0237085446             0.00168822986           
       0.118514              0.0213560883             0.00162260194           
       0.119193              0.0206076162             0.00159392597           
       0.119872              0.0250089502             0.00173394898           
       0.120551              0.0205641123             0.00156185609           
       0.121230              0.0232389867             0.00164362237           
       0.121910              0.0195724017             0.00152297472           
       0.122589              0.0226713126             0.00164080231           
       0.123268              0.0218100057             0.00157815447           
       0.123947              0.0205719348             0.00154261974           
       0.124626               0.023815488             0.00163948815           
       0.125305              0.0212087577             0.00155475569           
       0.125985              0.0162872532             0.00135190266           
       0.126664              0.0183674772             0.00142196728           
       0.127343               0.021704501             0.00156366903           
       0.128022              0.0197234721             0.00147916881           
       0.128701              0.0186646219              0.0014314211           
       0.129380              0.0197941009             0.00145563344           
       0.130059              0.0206247632             0.00148931318           
       0.130739              0.0199217298             0.00147400332           
       0.131418              0.0194113816             0.00145092693           
       0.132097              0.0193029837             0.00142831426           
       0.132776               0.020827702              0.0014769544           
       0.133455              0.0171004481             0.00134868714           
       0.134134              0.0193114319              0.0014286619           
       0.134814              0.0216025484             0.00149546639           
       0.135493              0.0211349922             0.00148518047           
       0.136172               0.019398703             0.00141212638           
       0.136851              0.0175749067             0.00135192385           
       0.137530              0.0194966158              0.0013900892           
       0.138209              0.0194378669             0.00140428902           
       0.138889              0.0170588929             0.00132134976           
       0.139568              0.0186640567             0.00138152151           
       0.140247              0.0209924059             0.00146324222           
       0.140926              0.0154384648             0.00121895716           
       0.141605              0.0192221823              0.0013947086           
       0.142284              0.0163081156             0.00126336014           
       0.142964              0.0195955805             0.00139015192           
       0.143643              0.0204043923             0.00141675925           
       0.144322              0.0174078309             0.00128121608           
       0.145001              0.0169488242              0.0012901612           
       0.145680              0.0193296497             0.00134520337           
       0.146359              0.0189721633             0.00133758109           
       0.147039              0.0199846619              0.0013841111           
       0.147718              0.0189525457             0.00132565387           
       0.148397              0.0200417639             0.00138439841           
       0.149076              0.0195175567             0.00132379248           
       0.149755              0.0164174743             0.00123286319           
       0.150434              0.0172677734             0.00126490265           
       0.151114              0.0187501601             0.00131078853           
       0.151793              0.0178056791             0.00127736036           
       0.152472              0.0173494951             0.00123861858           
       0.153151              0.0157179109              0.0011903375           
       0.153830              0.0190372749             0.00130046697           
       0.154509              0.0174705539              0.0012406077           
       0.155188              0.0187678726             0.00128536984           
       0.155868              0.0192132997             0.00129127884           
       0.156547              0.0179577168             0.00125639268           
       0.157226              0.0188333148             0.00125523227           
       0.157905              0.0184495055              0.0012528115           
       0.158584              0.0198452735             0.00129697677           
       0.159263              0.0186205244             0.00126094064           
       0.159943              0.0185739144             0.00126030074           
       0.160622              0.0152275027             0.00111911218           
       0.161301              0.0166538605             0.00118600642           
       0.161980              0.0172096289             0.00118513701           
       0.162659              0.0176031044             0.00121189391           
       0.163338              0.0158542431             0.00114074471           
       0.164018              0.0172253853             0.00118280937           
       0.164697              0.0155241909             0.00113730189           
       0.165376              0.0163474836              0.0011415705           
       0.166055              0.0172563157             0.00118060902           
       0.166734              0.0178701582             0.00119604205           
       0.167413              0.0165114749              0.0011504802           
       0.168093              0.0147873314              0.0010990563           
       0.168772              0.0165470589             0.00112861319           
       0.169451              0.0172552045             0.00117371443           
       0.170130              0.0165368081              0.0011339371           
       0.170809              0.0185534027             0.00121542199           
       0.171488              0.0158494852             0.00111312941           
       0.172168              0.0171421228             0.00114651055           
       0.172847              0.0151812721             0.00109311931           
       0.173526              0.0162518808             0.00110943131           
       0.174205              0.0182321846             0.00118049328           
       0.174884              0.0164735888             0.00111626973           
       0.175563              0.0160698682             0.00110721388           
       0.176243              0.0135273545             0.00102602155           
       0.176922              0.0176969324             0.00114296063           
       0.177601               0.016274226             0.00110810066           
       0.178280              0.0156917227             0.00107594285           
       0.178959              0.0171545958             0.00113402683           
       0.179638              0.0173494264             0.00113716428           
       0.180317              0.0137113232             0.00100356367           
       0.180997              0.0163701782             0.00110251076           
       0.181676               0.016844099             0.00110641435           
       0.182355              0.0149871867             0.00104991587           
       0.183034               0.017625674             0.00112031638           
       0.183713               0.015727896              0.0010711745           
       0.184392              0.0163915165             0.00109320872           
       0.185072              0.0178550602             0.00112796667           
       0.185751              0.0176684153             0.00112517719           
       0.186430              0.0179765868             0.00112699817           
       0.187109              0.0165899144             0.00109471626           
       0.187788               0.018299571             0.00114690627           
       0.188467              0.0183584744             0.00113515619           
       0.189147              0.0150038191             0.00103660711           
       0.189826              0.0144728466             0.00100009578           
       0.190505              0.0180323658             0.00113470206           
       0.191184                0.01639255             0.00106628679           
       0.191863              0.0153620186             0.00103440086           
       0.192542              0.0160794224             0.00106825827           
       0.193222              0.0163558514             0.00105325685           
       0.193901              0.0150017237             0.00102223496           
       0.194580              0.0154113322             0.00101797267           
       0.195259              0.0150686795             0.00101815288           
       0.195938              0.0169714614             0.00108310498           
       0.196617              0.0183641426             0.00111094204           
       0.197297              0.0151238939             0.00101229608           
       0.197976              0.0176346402             0.00107630745           
       0.198655              0.0151886342             0.00100978846           
       0.199334              0.0154584858             0.00100973548           
       0.200013              0.0132435065             0.00093408149           
       0.200692              0.0158770166             0.00102889764           
       0.201371              0.0155149533             0.00100564363           
       0.202051              0.0128014556            0.000916319645           
       0.202730              0.0135706942            0.000934025779           
       0.203409               0.013095769            0.000923695726           
       0.204088              0.0161324475             0.00102407775           
       0.204767              0.0141509029            0.000954083231           
       0.205446              0.0157583288             0.00100878146           
       0.206126              0.0151813998            0.000976690773           
       0.206805               0.015436896             0.00100293032           
       0.207484              0.0158322065            0.000997431104           
       0.208163              0.0154626526            0.000991644685           
       0.208842              0.0166194392             0.00102528313           
       0.209521              0.0149838537            0.000965435013           
       0.210201              0.0140088135            0.000943911996           
       0.210880              0.0158867377            0.000985465191           
       0.211559              0.0157305412            0.000995107095           
       0.212238              0.0152665301            0.000975332297           
       0.212917              0.0133413675            0.000908376763           
       0.213596              0.0166917093             0.00102206053           
       0.214276                0.01529495            0.000957980736           
       0.214955              0.0148784503            0.000964716707           
       0.215634              0.0149040156            0.000958625173           
       0.216313              0.0164257716              0.0010042623           
       0.216992              0.0146590191              0.0009484795           
       0.217671              0.0173566039             0.00102507618           
       0.218351              0.0140757905             0.00093215255           
       0.219030              0.0161885824            0.000983886733           
       0.219709              0.0142733932            0.000929618843           
       0.220388              0.0153867091            0.000963953066           
       0.221067              0.0153522956            0.000963637864           
       0.221746              0.0161075538            0.000986045371           
       0.222426              0.0143788854            0.000917709533           
       0.223105              0.0153894885            0.000962346326           
       0.223784              0.0153146249            0.000950480323           
       0.224463              0.0146139864            0.000935877852           
       0.225142              0.0148422982            0.000928236906           
       0.225821              0.0150297895            0.000937843874           
       0.226500              0.0154897541            0.000958140098           
       0.227180              0.0155965922            0.000946626545           
       0.227859              0.0156885991            0.000953673817           
       0.228538              0.0144012652            0.000904534424           
       0.229217              0.0137652203             0.00089133403           
       0.229896              0.0137347789            0.000889919269           
       0.230575              0.0144235918            0.000897424176           
       0.231255              0.0153831999            0.000940672283           
       0.231934              0.0159773782            0.000952117392           
       0.232613              0.0148313598            0.000920719981           
       0.233292              0.0134832343            0.000869395993           
       0.233971              0.0156898402            0.000937404708           
       0.234650              0.0133786886            0.000875796453           
       0.235330              0.0113966737            0.000801265439           
       0.236009              0.0149472875             0.00091565402           
       0.236688               0.014442466             0.00089683776           
       0.237367              0.0130930165            0.000855152136           
       0.238046              0.0158708792            0.000948138566           
       0.238725              0.0155962435            0.000925398691           
       0.239405              0.0128305578            0.000844551971           
       0.240084              0.0133922326             0.00085734544           
       0.240763              0.0129697793             0.00085179357           
       0.241442              0.0125007365            0.000824466349           
       0.242121              0.0155557013            0.000921443973           
       0.242800              0.0136244813            0.000866433653           
       0.243480              0.0140246244            0.000874948873           
       0.244159              0.0142572328            0.000882601715           
       0.244838              0.0116700159            0.000785375337           
       0.245517              0.0132155079            0.000847785739           
       0.246196              0.0138785655            0.000869212227           
       0.246875              0.0136491838            0.000849983137           
       0.247554              0.0138323033            0.000864362213           
       0.248234              0.0151248656            0.000890140549           
       0.248913               0.013663282            0.000855529027           
       0.249592              0.0155955504            0.000905338557           
       0.250271              0.0123222519            0.000802403484           
       0.250950              0.0140281201            0.000861389105           
       0.251629              0.0139843127             0.00085273322           
       0.252309              0.0135666236            0.000841606429           
       0.252988               0.014805493            0.000864049249           
       0.253667              0.0133002062            0.000828516315           
       0.254346              0.0139748717            0.000849095248           
       0.255025              0.0160986333             0.00090933648           
       0.255704              0.0140155198            0.000844580482           
       0.256384              0.0160065902             0.00089945779           
       0.257063              0.0135877399            0.000833439467           
       0.257742               0.012688364             0.00079980413           
       0.258421              0.0131987776            0.000814162176           
       0.259100              0.0137775783            0.000833272776           
       0.259779              0.0128568408             0.00080426575           
       0.260459              0.0133695505            0.000821755973           
       0.261138               0.012680033            0.000784645522           
       0.261817              0.0104885477            0.000728031683           
       0.262496              0.0136527112             0.00082247338           
       0.263175              0.0128097632            0.000798389393           
       0.263854              0.0112024723            0.000743153875           
       0.264534               0.012429298            0.000776104071           
       0.265213              0.0121330646            0.000778883534           
       0.265892              0.0126315121            0.000784539676           
       0.266571              0.0125809922            0.000781188679           
       0.267250              0.0127797594            0.000788661821           
       0.267929              0.0108020031            0.000724329345           
       0.268609                0.01258866            0.000786221814           
       0.269288              0.0119763884            0.000754124553           
       0.269967              0.0121474756            0.000767674906           
       0.270646              0.0131354425            0.000794831812           
       0.271325              0.0123768152            0.000772826638           
       0.272004              0.0119361813            0.000751379617           
       0.272683              0.0114358681            0.000736372501           
       0.273363              0.0124182511            0.000772243556           
       0.274042              0.0129282435             0.00078329243           
       0.274721              0.0117018705            0.000744773565           
       0.275400              0.0122026223            0.000755506413           
       0.276079               0.011630463            0.000741769752           
       0.276758              0.0110308618            0.000731512364           
       0.277438              0.0113431815            0.000733469044           
       0.278117              0.0125843993            0.000786605029           
       0.278796              0.0114268834            0.000741948249           
       0.279475              0.0113187127            0.000750626566           
       0.280154              0.0112743505            0.000738378087           
       0.280833              0.0114080269            0.000747259378           
       0.281513              0.0114610856            0.000760745846           
       0.282192              0.0112107219            0.000739554804           
       0.282871              0.0119652366            0.000769375623           
       0.283550             0.00934913299            0.000683729941           
       0.284229              0.0113326299            0.000763829705           
       0.284908              0.0112183688            0.000767985236           
       0.285588              0.0106080755            0.000738058324           
       0.286267              0.0109576473            0.000762131255           
       0.286946              0.0095022639             0.00070510077           
       0.287625               0.010592231            0.000757118269           
       0.288304              0.0103123861            0.000737050912           
       0.288983              0.0111725133            0.000776888268           
       0.289663              0.0106108684            0.000761540557           
       0.290342              0.0103857343            0.000749407762           
       0.291021             0.00945196578            0.000718776928           
       0.291700              0.0113833679            0.000778498214           
       0.292379             0.00937042313            0.000722492488           
       0.293058              0.0112172355            0.000787504562           
       0.293738              0.0110827897            0.000776197706           
       0.294417              0.0103637779            0.000759321401           
       0.295096             0.00962766793            0.000723812993           
       0.295775              0.0112193708             0.00079329088           
       0.296454              0.0100599685            0.000741468197           
       0.297133              0.0113071902            0.000789807707           
       0.297812              0.0106961076            0.000772021966           
       0.298492             0.00857206866            0.000692465092           
       0.299171               0.010152531            0.000752176578           
       0.299850             0.00990828636            0.000737999598           
       0.300529              0.0102987566            0.000760876196           
       0.301208              0.0101211603            0.000756122684           
       0.301887             0.00992867704            0.000748008306           
       0.302567              0.0103844525            0.000761153003           
       0.303246             0.00944941795            0.000730817438           
       0.303925              0.0095349554            0.000743543613           
       0.304604             0.00999640337            0.000744883941           
       0.305283             0.00974324809            0.000746298224           
       0.305962             0.00864984246            0.000698928953           
       0.306642             0.00792179225            0.000677952573           
       0.307321             0.00982105626            0.000752450061           
       0.308000             0.00969963998            0.000738920709           
       0.308679             0.00941589005            0.000743798402           
       0.309358               0.010126968             0.00076093827           
       0.310037             0.00869001943            0.000706458474           
       0.310717             0.00906715996            0.000720931268           
       0.311396             0.00844988871             0.00070062665           
       0.312075              0.0085482085            0.000713627277           
       0.312754             0.00853478919            0.000698801628           
       0.313433             0.00847216907            0.000702288532           
       0.314112              0.0095543843            0.000745624074           
       0.314792             0.00881747574             0.00072135126           
       0.315471              0.0075665243            0.000659961557           
       0.316150             0.00866749307            0.000712882642           
       0.316829             0.00846325938            0.000709085458           
       0.317508             0.00890608282            0.000719237394           
       0.318187             0.00813076427            0.000696283612           
       0.318866              0.0103931073             0.00077661006           
       0.319546              0.0100159459            0.000773816405           
       0.320225             0.00858309338            0.000716345203           
       0.320904             0.00785147134            0.000674541096           
       0.321583             0.00718991124            0.000659720976           
       0.322262             0.00782239634             0.00067769753           
       0.322941             0.00750780689            0.000672436424           
       0.323621             0.00800758257            0.000690218952           
       0.324300             0.00773636081            0.000678960926           
       0.324979             0.00744671053            0.000667333772           
       0.325658             0.00915235386            0.000741164207           
       0.326337              0.0076344693            0.000677803745           
       0.327016             0.00829662961            0.000702100727           
       0.327696             0.00713730927            0.000658444673           
       0.328375             0.00723522187            0.000657351517           
       0.329054             0.00860381572            0.000720719739           
       0.329733             0.00881240047            0.000732067485           
       0.330412             0.00577257515            0.000587645928           
       0.331091             0.00656080742            0.000637847485           
       0.331771             0.00807739282            0.000689194992           
       0.332450             0.00732279023            0.000668953479           
       0.333129             0.00691597414            0.000648428663           
       0.333808             0.00693774738            0.000650306949           
       0.334487              0.0070568598            0.000658975336           
       0.335166             0.00762021241            0.000674751654           
       0.335846             0.00813711974            0.000709514756           
       0.336525             0.00706082284            0.000654401997           
       0.337204             0.00748043861            0.000675332363           
       0.337883             0.00744097253             0.00067444133           
       0.338562             0.00591572458            0.000604695419           
       0.339241             0.00594217725             0.00060718152           
       0.339921             0.00778054079             0.00068313384           
       0.340600             0.00806500805            0.000708717951           
       0.341279             0.00619939291            0.000614709565           
       0.341958             0.00557366535            0.000591085303           
       0.342637             0.00741794127            0.000672267804           
       0.343316             0.00702323462            0.000656031624           
       0.343995             0.00601009529            0.000616808683           
       0.344675             0.00620667802            0.000615295603           
       0.345354             0.00622359893            0.000620197917           
       0.346033             0.00679769755            0.000646482593           
       0.346712             0.00544691246            0.000582389399           
       0.347391              0.0076332856            0.000693704942           
       0.348070             0.00592553057            0.000602519103           
       0.348750             0.00618289584            0.000624357871           
       0.349429              0.0069869202            0.000655144881           
       0.350108             0.00684481946            0.000656251532           
       0.350787             0.00695389008            0.000650222037           
       0.351466             0.00560405268            0.000594465025           
       0.352145             0.00524580269            0.000575627349           
       0.352825             0.00644375853            0.000635087336           
       0.353504             0.00568333089            0.000596291716           
       0.354183             0.00543137147            0.000576208231           
       0.354862             0.00703814954            0.000671166587           
       0.355541             0.00615555522            0.000619454481           
       0.356220             0.00556030749            0.000589854304           
       0.356900              0.0045181198            0.000536759654           
       0.357579             0.00652291939             0.00063703575           
       0.358258             0.00479768598            0.000553895063           
       0.358937             0.00521722822            0.000566746538           
       0.359616             0.00626998477            0.000629977248           
       0.360295             0.00520399639            0.000574409696           
       0.360975             0.00527004592            0.000575571276           
       0.361654              0.0047523134            0.000549386143           
       0.362333             0.00622140358             0.00062539648           
       0.363012             0.00482797347            0.000558014918           
       0.363691             0.00631643762            0.000625670376           
       0.364370             0.00596478331             0.00061554717           
       0.365050             0.00633742731            0.000631088599           
       0.365729             0.00646807935            0.000643639811           
       0.366408             0.00463154565            0.000545856838           
       0.367087             0.00585023384            0.000603643289           
       0.367766             0.00539570838            0.000591798585           
       0.368445             0.00513789498            0.000567234079           
       0.369124             0.00502413891              0.0005653259           
       0.369804             0.00564154932            0.000598097221           
       0.370483             0.00587744818            0.000613144817           
       0.371162             0.00524210467            0.000582414444           
       0.371841             0.00499236743            0.000558461985           
       0.372520             0.00540957788            0.000592981581           
       0.373199             0.00495063911            0.000560493047           
       0.373879              0.0054488346            0.000594827065           
       0.374558              0.0049810378            0.000560421464           
       0.375237             0.00575714058            0.000603489341           
       0.375916             0.00493779208             0.00056960505           
       0.376595             0.00499175437            0.000561515704           
       0.377274              0.0047744328            0.000557946913           
       0.377954             0.00454547551            0.000535852368           
       0.378633             0.00454468246            0.000542576736           
       0.379312             0.00499160983            0.000568486374           
       0.379991             0.00449177036            0.000536481629           
       0.380670             0.00558999208            0.000609060833           
       0.381349             0.00504511141            0.000570308062           
       0.382029             0.00399337641            0.000514662802           
       0.382708             0.00392626707             0.00049917594           
       0.383387             0.00393854302            0.000511285839           
       0.384066             0.00481051347            0.000559871627           
       0.384745             0.00454017279            0.000546050527           
       0.385424             0.00379106985            0.000500668284           
       0.386104             0.00342582257            0.000470679749           
       0.386783             0.00413479198            0.000528279186           
       0.387462             0.00371768917            0.000488464099           
       0.388141             0.00385846039            0.000505574011           
       0.388820             0.00405113004            0.000514298227           
       0.389499             0.00436665072            0.000536956588           
       0.390178             0.00461264661            0.000554071816           
       0.390858             0.00426353484            0.000528381259           
       0.391537             0.00462180201            0.000555751171           
       0.392216             0.00372820018            0.000492885905           
       0.392895             0.00401465324            0.000513193843           
       0.393574             0.00450634902            0.000542365407           
       0.394253             0.00376673699            0.000498094343           
       0.394933             0.00378883732            0.000505261938           
       0.395612             0.00387417549            0.000496079479           
       0.396291             0.00410325034            0.000520928946           
       0.396970             0.00390893849            0.000503940126           
       0.397649             0.00457993939            0.000547160154           
       0.398328             0.00434983412            0.000530893959           
       0.399008             0.00439164693            0.000532280154           
       0.399687             0.00507754531            0.000574564977           
       0.400366             0.00464989955            0.000547734074           
       0.401045             0.00450082655            0.000537863669           
       0.401724             0.00348888176            0.000474344113           
       0.402403             0.00452862188            0.000544634588           
       0.403083             0.00394888429            0.000501246597           
       0.403762             0.00411401607            0.000514142539           
       0.404441              0.0039100268            0.000504426247           
       0.405120             0.00376038219            0.000493057195           
       0.405799             0.00396974622            0.000504396262           
       0.406478               0.003517725            0.000474823645           
       0.407158             0.00305431507            0.000441613639           
       0.407837             0.00305032987            0.000445220746           
       0.408516             0.00444041408            0.000532499351           
       0.409195             0.00461508299            0.000549029885           
       0.409874             0.00344319993            0.000480826213           
       0.410553             0.00413253087             0.00053242813           
       0.411233             0.00521736191            0.000595144254           
       0.411912             0.00427088518            0.000546092359           
       0.412591             0.00292763696             0.00045512488           
       0.413270             0.00289783126            0.000450651015           
       0.413949             0.00375998851            0.000518937115           
       0.414628             0.00367489588            0.000512110335           
       0.415307             0.00456409244            0.000577061967           
       0.415987             0.00318173181             0.00047784095           
       0.416666             0.00364429304            0.000508320206           
       0.417345             0.00341615738            0.000500371041           
       0.418024             0.00334426281            0.000495090388           
       0.418703             0.00339990978            0.000498275358           
       0.419382             0.00364967612            0.000513723505           
       0.420062             0.00346705213            0.000502108479           
       0.420741             0.00313232418            0.000479793319           
       0.421420             0.00271421568            0.000448318818           
       0.422099             0.00227316009             0.00041029015           
       0.422778              0.0026692589            0.000447009675           
       0.423457             0.00225329359            0.000413219273           
       0.424137             0.00340944295            0.000500008669           
       0.424816             0.00266225614            0.000451069677           
       0.425495             0.00295004021            0.000474374832           
       0.426174             0.00197301635            0.000388083389           
       0.426853             0.00270000922            0.000451228243           
       0.427532             0.00197430613            0.000389114395           
       0.428212             0.00347389758            0.000519560349           
       0.428891             0.00192849224            0.000386231344           
       0.429570             0.00231239047            0.000423219819           
       0.430249             0.00335576959            0.000507190101           
       0.430928             0.00224607993            0.000424015599           
       0.431607             0.00215354459            0.000408055373           
       0.432287             0.00234404927            0.000428839428           
       0.432966             0.00280659433            0.000473374135           
       0.433645             0.00263648011            0.000459282864           
       0.434324              0.0025325169            0.000447423049           
       0.435003             0.00269473172            0.000462318283           
       0.435682             0.00161206847            0.000360514245           
       0.436361             0.00248673919            0.000447161268           
       0.437041             0.00192485961             0.00039288787           
       0.437720             0.00154635711            0.000353845541           
       0.438399             0.00220650414            0.000424885182           
       0.439078             0.00201832807            0.000418147648           
       0.439757             0.00309089313            0.000514271013           
       0.440436             0.00236625398            0.000460107787           
       0.441116             0.00289558139            0.000517298156           
       0.441795             0.00235737867            0.000467315986           
       0.442474             0.00291474703             0.00052108157           
       0.443153             0.00222384772            0.000465771965           
       0.443832             0.00300446406            0.000542295187           
       0.444511             0.00210576414            0.000451955663           
       0.445191             0.00161896801            0.000405926228           
       0.445870             0.00223346398            0.000476792392           
       0.446549             0.00259147182            0.000519001701           
       0.447228              0.0016349705             0.00040991094           
       0.447907             0.00219837982            0.000481023335           
       0.448586             0.00244332523            0.000519315488           
       0.449266             0.00367975311            0.000631446775           
       0.449945             0.00257830566            0.000526404476           
       0.450624             0.00360118435            0.000632000791           
       0.451303            0.000936094622            0.000326398606           
       0.451982              0.0026063221            0.000541264278           
       0.452661             0.00200819832            0.000483966298           
       0.453341             0.00344964831            0.000636529487           
       0.454020             0.00227234482            0.000517403724           
       0.454699              0.0035054608             0.00064850526           
       0.455378             0.00242707529            0.000539902788           
       0.456057             0.00179028943            0.000471945022           
       0.456736              0.0035101549             0.00065877413           
       0.457416             0.00190806448            0.000485715821           
       0.458095             0.00235806254            0.000547776584           
       0.458774             0.00150864175            0.000443936438           
       0.459453             0.00244345488            0.000567825313           
       0.460132             0.00194714227            0.000495940548           
       0.460811             0.00225066603            0.000553088587           
       0.461490             0.00274116003            0.000604180596           
       0.462170             0.00186188494            0.000505709367           
       0.462849             0.00148835682            0.000455077966           
       0.463528             0.00106314976               0.000383726           
       0.464207             0.00154161566            0.000470720491           
       0.464886              0.0015110877            0.000462407587           
       0.465565             0.00185183546            0.000517518738           
       0.466245             0.00141773018            0.000454221043           
       0.466924              0.0022451585            0.000585104597           
       0.467603             0.00244396759            0.000597512342           
       0.468282             0.00166972782            0.000505592086           
       0.468961             0.00245407982            0.000616971982           
       0.469640             0.00140574672            0.000468817415           
       0.470320            0.000463176576            0.000269292067           
       0.470999             0.00127628151             0.00045123268           
       0.471678            0.000815424035            0.000364144363           
       0.472357             0.00229738667            0.000612928228           
       0.473036            0.000347802428            0.000239989133           
       0.473715             0.00153177189            0.000507582359           
       0.474395             0.00106046983             0.00042817454           
       0.475074             0.00158347339            0.000523226479           
       0.475753            0.000698660081            0.000344551083           
       0.476432             0.00112947753            0.000454035023           
       0.477111            0.000215421613            0.000195889573           
       0.477790             0.00147530018            0.000515372369           
       0.478470            0.000795539066            0.000383457552           
       0.479149            0.000999317256            0.000434217358           
       0.479828            0.000614988424            0.000339832874           
       0.480507            0.000434047959            0.000287798238           
       0.481186           -0.000115889482                         0           
       0.481865            0.000462400706            0.000299984112           
       0.482545            0.000277856328            0.000235272289           
       0.483224            0.000272324871              0.0002345102           
       0.483903            0.000299267386             0.00024970966           
       0.484582           -0.000316148888                         0           
       0.485261             0.00109477181            0.000473072977           
       0.485940            0.000113158707             0.00015822892           
       0.486619           -0.000316205797                         0           
       0.487299             0.00010408575            0.000152476354           
       0.487978           -9.97073893e-05                         0           
       0.488657           -7.26926346e-05                         0           
       0.489336            0.000116991715            0.000163687837           
       0.490015            -9.0305601e-05                         0           
       0.490694           -8.37200155e-05                         0           
       0.491374            -7.8323514e-05                         0           
       0.492053            0.000683554739            0.000415911197           
       0.492732            0.000672885001            0.000410044767           
       0.493411           -6.54885641e-05                         0           
       0.494090            0.000201632748             0.00022737162           
       0.494769            0.000480345492             0.00035718998           
       0.495449           -5.55663894e-05                         0           
       0.496128           -5.07658765e-05                         0           
       0.496807           -0.000316494255                         0           
       0.497486           -5.06457036e-05                         0           
       0.498165            -0.00031653338                         0           
       0.498844           -0.000316552785                         0           
       0.499524           -0.000316572282                         0           
       0.500203            0.000257724123             0.00027130032           
       0.500882           -0.000316611504                         0           
       0.501561           -2.32789528e-05                         0           
       0.502240           -0.000316650719                         0           
       0.502919           -0.000316670369                         0           
       0.503599           -0.000316690098                         0           
       0.504278           -0.000316710104                         0           
       0.504957           -0.000316729874                         0           
       0.505636           -0.000316749518                         0           
       0.506315            7.95054882e-06            5.08242036e-05           
       0.506994           -0.000316789096                         0           
       0.507673           -0.000316808667                         0           
       0.508353            9.29727434e-06            5.52692073e-05           
       0.509032           -0.000316848548                         0           
       0.509711            0.000690953792            0.000484616371           
       0.510390           -0.000316888673                         0           
       0.511069           -0.000316908825                         0           
       0.511748           -0.000316928895                         0           
       0.512428           -0.000316949109                         0           
       0.513107           -0.000316969012                         0           
       0.513786            0.000481229505            0.000437760792           
       0.514465           -0.000317009283                         0           
       0.515144           -0.000317029574                         0           
       0.515823           -0.000317049682                         0           
       0.516503           -0.000317069977                         0           
       0.517182           -0.000317090271                         0           
       0.517861           -0.000317110515                         0           
       0.518540           -0.000317130874                         0           
       0.519219           -0.000317151114                         0           
       0.519898            -0.00031717156                         0           
       0.520578           -0.000317192128                         0           
       0.521257           -0.000317212431                         0           
       0.521936           -0.000317232782                         0           
       0.522615           -0.000317253377                         0           
       0.523294           -0.000317274048                         0           
       0.523973           -0.000317294434                         0           
       0.524653           -0.000317314673                         0           
       0.525332            0.000150072487            0.000265458232           
       0.526011           -0.000317356109                         0           
       0.526690           -0.000317376972                         0           
       0.527369           -0.000317397662                         0           
       0.528048            0.000690105935             0.00058822925           
       0.528728           -0.000317439314                         0           
       0.529407           -0.000317460031                         0           
       0.530086           -0.000317480641                         0           
       0.530765            -0.00031750128                         0           
       0.531444            0.000702633641            0.000601301487           
       0.532123            0.000255901708            0.000380605677           
       0.532802           -0.000317564432                         0           
       0.533482           -0.000317585417                         0           
       0.534161           -0.000317606437                         0           
       0.534840           -0.000317627277                         0           
       0.535519           -0.000317648502                         0           
       0.536198           -0.000317669508                         0           
       0.536877           -0.000317690224                         0           
       0.537557           -0.000317711297                         0           
       0.538236            -0.00031773256                         0           
       0.538915           -0.000317753814                         0           
       0.539594           -0.000317775041                         0           
       0.540273            0.000301579877            0.000430052748           
       0.540952           -0.000317817916                         0           
       0.541632           -0.000317838845                         0           
       0.542311           -0.000317859965                         0           
       0.542990           -0.000317881322                         0           
       0.543669           -0.000317902856                         0           
       0.544348           -0.000317924366                         0           
       0.545027           -0.000317945829                         0           
       0.545707           -0.000317967358                         0           
       0.546386           -0.000317988946                         0           
       0.547065           -0.000318010275                         0           
       0.547744           -0.000318031702                         0           
       0.548423           -0.000318053364                         0           
       0.549102            0.000487715337            0.000630693521           
       0.549782             0.00041124739             0.00054813066           
       0.550461           -0.000318118455                         0           
       0.551140           -0.000318140418                         0           
       0.551819           -0.000318162121                         0           
       0.552498            -0.00031818401                         0           
       0.553177           -0.000318205523                         0           
       0.553856           -0.000318227113                         0           
       0.554536           -0.000318248774                         0           
       0.555215           -0.000318270766                         0           
       0.555894           -0.000318292705                         0           
       0.556573           -0.000318314775                         0           
       0.557252           -0.000318336827                         0           
       0.557931           -0.000318358778                         0           
       0.558611           -0.000318381243                         0           
       0.559290            0.000637171524            0.000785798296           
       0.559969           -0.000318424492                         0           
       0.560648           -0.000318446413                         0           
       0.561327           -0.000318468823                         0           
       0.562006           -0.000318491129                         0           
       0.562686           -0.000318513447                         0           
       0.563365           -0.000318535847                         0           
       0.564044           -0.000318558135                         0           
       0.564723           -0.000318580373                         0           
       0.565402           -0.000318602197                         0           
       0.566081           -0.000318624166                         0           
       0.566761           -0.000318646372                         0           
       0.567440           -0.000318669028                         0           
       0.568119            0.000845771982             0.00098978318           
       0.568798             -0.0003187143                         0           
       0.569477           -0.000318736947                         0           
       0.570156           -0.000318759704                         0           
       0.570836           -0.000318782376                         0           
       0.571515           -0.000318804568                         0           
       0.572194           -0.000318827404                         0           
       0.572873           -0.000318849717                         0           
       0.573552           -0.000318871899                         0           
       0.574231           -0.000318894531                         0           
       0.574911           -0.000318917733                         0           
       0.575590           -0.000318940489                         0           
       0.576269           -0.000318963175                         0           
       0.576948           -0.000318986297                         0           
       0.577627           -0.000319008714                         0           
       0.578306           -0.000319031447                         0           
       0.578985           -0.000319054374                         0           
       0.579665            -0.00031907717                         0           
       0.580344            -0.00031910031                         0           
       0.581023           -0.000319123425                         0           
       0.581702           -0.000319146326                         0           
       0.582381            -0.00031916902                         0           
       0.583060            -0.00031919239                         0           
       0.583740           -0.000319215393                         0           
       0.584419             0.00274695367             0.00290133426           
       0.585098           -0.000319261525                         0           
       0.585777           -0.000319284757                         0           
       0.586456           -0.000319308367                         0           
       0.587135           -0.000319331349                         0           
       0.587815           -0.000319354083                         0           
       0.588494           -0.000319377525                         0           
       0.589173           -0.000319401506                         0           
       0.589852           -0.000319424212                         0           
       0.590531           -0.000319447774                         0           
       0.591210           -0.000319470793                         0           
       0.591890           -0.000319494256                         0           
       0.592569           -0.000319516935                         0           
       0.593248           -0.000319541729                         0           
       0.593927           -0.000319565302                         0           
       0.594606            -0.00031958936                         0           
       0.595285           -0.000319611985                         0           
       0.595965           -0.000319633098                         0           
       0.596644           -0.000319654824                         0           
