################################################################################
# EDF_DataBlockID                     0.Image.Psd
# EDF_BinarySize                      4366944
# EDF_HeaderSize                      2560
# ByteOrder                           LowByteFirst
# DataType                            FloatValue
# Dim_1                               1028
# Dim_2                               1062
# Image                               0
# HeaderID                            EH:000000:000000:000000
# Size                                4366944
# Center_1                            607.5200
# Center_2                            651.5500
# Comment                             Xenocs_Cell_Window - 20251028_20perc_iodine_1.23mg
# DDummy                              0.6
# Date                                2025-10-30T13:53:03
# Delta                               0
# Dummy                               -1.5
# ExposureTime                        360
# Gamma                               0
# Intensity1                          8.46729e-10
# PSize_1                             7.5e-05
# PSize_2                             7.5e-05
# Pressure                            0.0326328
# SampleDistance                      0.450002
# SampleEnvKind                       large
# SampleEnvPN                         ElectroChemical cell
# SampleEnvSN                         1141
# Thickness                           0
# Wavelength                          1.541891e-10
# Wavelength                          1.54189e-10
# aux                                 0
# aux_dial                            0.002375
# beamx                               588.434
# beamx_dial                          588.434
# beamz                               657.808
# beamz_dial                          657.808
# det0x                               0
# det0x_dial                          6.36945
# det0xvd                             0
# det0xvd_dial                        0
# det0y                               450.002
# det0y_dial                          481.635
# det0z                               0
# det0z_dial                          1.23302
# det0zvd                             0
# det0zvd_dial                        0
# mag                                 1.818
# mag_dial                            1.818
# om                                  0.2499
# om_dial                             -0.610199
# phi                                 -0.0120535
# phi_dial                            0
# ry                                  0.599993
# ry_dial                             0.599993
# s1bot                               0.8
# s1bot_dial                          -1.66094
# s1hl                                0.8
# s1hl_dial                           -0.608437
# s1hr                                0.8
# s1hr_dial                           0.970938
# s1top                               0.8
# s1top_dial                          -0.461562
# s2bot                               0.45
# s2bot_dial                          1.36109
# s2hl                                0.45
# s2hl_dial                           -0.83375
# s2hr                                0.45
# s2hr_dial                           -0.118594
# s2top                               0.45
# s2top_dial                          1.44734
# w2theta                             32
# w2theta_dial                        32
# waxsch                              19.2605
# waxsch_dial                         -32.7355
# waxsh                               137.085
# waxsh_dial                          -43.5338
# waxsth                              26.0607
# waxsth_dial                         -19.4086
# waxsz                               67.0407
# waxsz_dial                          -23.7954
# wind                                65.9854
# wind_dial                           66.0041
# wpsi                                124
# wpsi_dial                           124
# wstod                               115
# wstod_dial                          115
# x                                   0
# x_dial                              1.00969
# z                                   0
# z_dial                              13.3172
# CountCutoff                         15302352
# DetectorModel                       Dectris EIGER2 Si 1M, S/N E-02-0362
# ThresholdSetting                    4023.88989258
# Saturation                          0
# FlatField                           Corrected
# BackgroundReductionExtra            0.02
# BackgroundCorrectionConstant        0.0026712
# Detector                            0
# Monitor                             0
# Pil_Roi0                            0
# SumForIntensity1                    3.04822e+08
# TransmittedFlux                     846729
# det                                 0
# mon                                 0
# pilai0                              3.04822e+08
# pilai1                              775333
# pilct0                              5.27756e+08
# pilct1                              775333
# pilroi0                             0
# pilroi1                             0
# sec                                 1
# title                               20251028_20perc_iodine_1.23mg_0_00432.edf
# usaxs0                              0
# Operation                           Azimuthal average I(q)
# Error_model                         ErrorModel.poisson
# Geometrical_correction              True
# Transmission_correction             True
# Thickness_correction                False
# Binning mode                        Uniform
# Binning factor                      1.0
# Psi                                 0.0
# Omega                               0.2499
# MaskInvalidPixels                   True
# DetectorEdge                        3
# MaskFiles                           ['20251028_20perc_iodine_1.23mg_0_00012_mask.edf']
################################################################################
    q(A⁻¹)                Intensity(a.u.)            Sigma_I(a.u.)            
       0.000340                  371843.4                120.989903           
       0.001019                358680.308                72.7676763           
       0.001698                 349713.17                50.8072596           
       0.002377                330934.967                44.2065019           
       0.003056                308126.203                36.0508236           
       0.003735                253430.231                28.8342022           
       0.004415                204836.267                25.9228209           
       0.005094                153110.212                19.4093801           
       0.005773                101173.166                14.6072685           
       0.006452                58936.2181                10.6821025           
       0.007131                32331.2422                7.66452457           
       0.007810                16237.2473                5.39032721           
       0.008490                8116.39503                3.37810432           
       0.009169                3930.60953                2.32333631           
       0.009848                1205.98879                1.24425482           
       0.010527                462.020355               0.770137933           
       0.011206                 117.46196               0.370612524           
       0.011885                54.4120488               0.234361936           
       0.012564                25.4358905               0.164510938           
       0.013244                16.9645689               0.125603775           
       0.013923                 12.570606               0.109864921           
       0.014602                9.14522474              0.0869086608           
       0.015281                7.53428493              0.0803000398           
       0.015960                6.15522007              0.0720597019           
       0.016639                4.98970348              0.0612664418           
       0.017319                4.21140807              0.0554104566           
       0.017998                3.45205319              0.0479941351           
       0.018677                2.94521269              0.0459148226           
       0.019356                2.52444633              0.0420026562           
       0.020035                2.19424497              0.0367391833           
       0.020714                1.94310487              0.0349387446           
       0.021394                1.68406536              0.0307757398           
       0.022073                1.41516114              0.0293522459           
       0.022752                1.29957353              0.0269074377           
       0.023431                1.15310863              0.0246027878           
       0.024110                1.00220498              0.0239130073           
       0.024789               0.898677295              0.0210299385           
       0.025469               0.810325371              0.0205786985           
       0.026148               0.736016941              0.0184275258           
       0.026827               0.686439718              0.0180808643           
       0.027506                0.60526168              0.0172229524           
       0.028185               0.562722779               0.015836878           
       0.028864               0.519439967              0.0151302573           
       0.029544               0.490314015              0.0142548138           
       0.030223               0.452958199               0.013897504           
       0.030902               0.388513593              0.0129887418           
       0.031581                0.36726095              0.0120047571           
       0.032260               0.325123679               0.011487563           
       0.032939               0.325817155              0.0110883206           
       0.033619               0.278308683              0.0103986855           
       0.034298               0.276669088              0.0100897537           
       0.034977               0.258232907              0.0095562226           
       0.035656               0.253146624              0.0097120538           
       0.036335               0.223842142             0.00885750806           
       0.037014               0.204220909             0.00848563307           
       0.037693               0.187471195             0.00782114875           
       0.038373               0.175437349              0.0076402124           
       0.039052               0.166584707             0.00747662914           
       0.039731               0.166355274             0.00729735953           
       0.040410               0.159006298             0.00708652092           
       0.041089               0.139822267             0.00654119841           
       0.041768               0.137069392             0.00651032199           
       0.042448               0.133731543             0.00638066714           
       0.043127               0.124538331             0.00601202086           
       0.043806               0.124899495             0.00606562397           
       0.044485               0.127174014             0.00599486703           
       0.045164               0.105699503             0.00557305246           
       0.045843               0.110830721             0.00547343876           
       0.046523               0.106694154             0.00538886858           
       0.047202               0.105428173              0.0053942348           
       0.047881              0.0982055866             0.00510578752           
       0.048560              0.0873243917             0.00485850868           
       0.049239              0.0869516954             0.00465507937           
       0.049918              0.0863059171             0.00472842416           
       0.050598              0.0821430283             0.00454376991           
       0.051277                 0.0841697             0.00458488637           
       0.051956              0.0799072264             0.00443923261           
       0.052635              0.0796339162             0.00433758575           
       0.053314              0.0770428177             0.00439117266           
       0.053993              0.0840519928             0.00446077766           
       0.054673              0.0712264548             0.00401489065           
       0.055352              0.0695955466             0.00402695278           
       0.056031              0.0693774782              0.0039361596           
       0.056710              0.0662529006             0.00394075965           
       0.057389              0.0689910201             0.00387784925           
       0.058068              0.0690614087              0.0039198215           
       0.058748              0.0728989241             0.00407749152           
       0.059427              0.0632231999             0.00373297249           
       0.060106              0.0614206426              0.0037141962           
       0.060785              0.0595618217             0.00354797249           
       0.061464              0.0664000268             0.00383640389           
       0.062143              0.0594725255             0.00359388496           
       0.062822              0.0580556606             0.00350914877           
       0.063502              0.0516463328             0.00330386754           
       0.064181              0.0536135599             0.00333065591           
       0.064860              0.0494651226             0.00324793159           
       0.065539              0.0527044975             0.00331981234           
       0.066218              0.0525557438             0.00324414133           
       0.066897              0.0525049423             0.00326760457           
       0.067577              0.0528679281             0.00331038108           
       0.068256              0.0402941285             0.00296102485           
       0.068935               0.050793152             0.00327072521           
       0.069614              0.0468241369             0.00317159925           
       0.070293              0.0459813952             0.00317190966           
       0.070972              0.0431886958             0.00305156934           
       0.071652               0.039242321             0.00291414665           
       0.072331              0.0444721578             0.00304697019           
       0.073010              0.0433321848             0.00307638671           
       0.073689              0.0444987077             0.00310038939           
       0.074368              0.0424889415             0.00302405676           
       0.075047              0.0428224486             0.00300327066           
       0.075727              0.0407826605             0.00291276734           
       0.076406               0.034280305             0.00272376872           
       0.077085              0.0398676351             0.00288247103           
       0.077764              0.0354154142             0.00270723792           
       0.078443              0.0366901684             0.00277259035           
       0.079122              0.0318356284             0.00255785123           
       0.079802              0.0359565295             0.00274719365           
       0.080481              0.0337598955             0.00257216383           
       0.081160              0.0375884046             0.00276978826           
       0.081839              0.0366182791             0.00269004442           
       0.082518              0.0352616778             0.00264196816           
       0.083197               0.036097892             0.00263157669           
       0.083876              0.0312075086             0.00240617691           
       0.084556              0.0327565807             0.00253373155           
       0.085235              0.0288384337             0.00233144025           
       0.085914              0.0336787483             0.00254398712           
       0.086593              0.0360808102             0.00261619973           
       0.087272              0.0361276492             0.00258089264           
       0.087951              0.0387859887             0.00273456736           
       0.088631              0.0333231212             0.00244835252           
       0.089310              0.0341012363             0.00252930369           
       0.089989              0.0315414782             0.00240408463           
       0.090668               0.030540794             0.00239175372           
       0.091347              0.0278538169             0.00229690705           
       0.092026              0.0274776726             0.00218059717           
       0.092706              0.0310721771             0.00240301018           
       0.093385              0.0300866245             0.00232828213           
       0.094064              0.0307880439             0.00238267769           
       0.094743              0.0300907465             0.00231964499           
       0.095422               0.025702086             0.00211991851           
       0.096101              0.0242734915             0.00210259035           
       0.096781              0.0297415625             0.00229407229           
       0.097460              0.0317354109             0.00230507856           
       0.098139              0.0249546756             0.00202831319           
       0.098818              0.0267763988             0.00207516991           
       0.099497              0.0308823442             0.00223317864           
       0.100176              0.0250425837             0.00195820185           
       0.100856               0.026848207             0.00202626922           
       0.101535              0.0296160107             0.00212404824           
       0.102214              0.0247251337             0.00194076571           
       0.102893              0.0262530486             0.00197704698           
       0.103572              0.0288299656             0.00204119991           
       0.104251              0.0225847608             0.00181331249           
       0.104931              0.0241603797             0.00185842413           
       0.105610              0.0232747067             0.00183182376           
       0.106289              0.0258016943             0.00189660775           
       0.106968               0.026161819             0.00191546559           
       0.107647              0.0250044542             0.00187374141           
       0.108326              0.0227318751             0.00176266365           
       0.109005               0.021249907             0.00169351577           
       0.109685              0.0250902144             0.00181954966           
       0.110364              0.0236612537             0.00178704502           
       0.111043              0.0237376737             0.00178283159           
       0.111722              0.0237804077             0.00176262494           
       0.112401               0.023533866             0.00175834029           
       0.113080                0.02324591             0.00172752378           
       0.113760              0.0247243394             0.00181136965           
       0.114439               0.022350384             0.00169763547           
       0.115118              0.0218741676             0.00166678897           
       0.115797              0.0233399384             0.00173767889           
       0.116476              0.0221093904             0.00166593786           
       0.117155              0.0222066063             0.00168306238           
       0.117835              0.0239115633             0.00171175838           
       0.118514              0.0227603937             0.00169122102           
       0.119193              0.0236290334              0.0017232036           
       0.119872               0.021692369             0.00163042724           
       0.120551              0.0214078063             0.00160890893           
       0.121230              0.0224069288             0.00162946098           
       0.121910              0.0178910042             0.00147010157           
       0.122589              0.0200855733             0.00155926306           
       0.123268              0.0222119107             0.00160795513           
       0.123947              0.0201709253             0.00154221021           
       0.124626              0.0232480315             0.00163542631           
       0.125305               0.021598145             0.00158406177           
       0.125985              0.0183030601             0.00144691393           
       0.126664              0.0203990898             0.00151296747           
       0.127343              0.0210887751             0.00155616254           
       0.128022              0.0185423807             0.00144799863           
       0.128701              0.0194668963             0.00147592919           
       0.129380              0.0203573974             0.00149040606           
       0.130059              0.0200353546             0.00148200412           
       0.130739              0.0185458354             0.00143587782           
       0.131418                 0.0203191             0.00149874897           
       0.132097              0.0204357193             0.00148376753           
       0.132776              0.0214485786             0.00151323025           
       0.133455              0.0193923331             0.00145004623           
       0.134134              0.0201237866             0.00147243599           
       0.134814              0.0179208289             0.00137518953           
       0.135493              0.0200446787             0.00146028318           
       0.136172              0.0181972472             0.00138085925           
       0.136851              0.0170557066              0.0013446211           
       0.137530              0.0186646723             0.00137319618           
       0.138209              0.0185871005             0.00138642815           
       0.138889              0.0195607001             0.00142854496           
       0.139568              0.0198743096             0.00143932876           
       0.140247              0.0187991557             0.00139802081           
       0.140926              0.0187869873             0.00135760774           
       0.141605              0.0184476511             0.00137946923           
       0.142284              0.0182158692              0.0013480611           
       0.142964              0.0202587995             0.00142708354           
       0.143643              0.0199132554             0.00141307334           
       0.144322              0.0183993501             0.00132987444           
       0.145001              0.0199709429             0.00141394599           
       0.145680               0.019796924              0.0013744665           
       0.146359              0.0172579187             0.00128799818           
       0.147039               0.018233114             0.00133478808           
       0.147718              0.0178144146             0.00129760196           
       0.148397              0.0179826145             0.00132397226           
       0.149076              0.0180567238             0.00128554123           
       0.149755              0.0158077106             0.00122139334           
       0.150434              0.0176045785             0.00128946956           
       0.151114              0.0185000338             0.00131454588           
       0.151793              0.0207779234             0.00139313942           
       0.152472              0.0186793902             0.00129758216           
       0.153151              0.0184092716             0.00130061978           
       0.153830              0.0175209568             0.00125960737           
       0.154509              0.0152943776             0.00117194272           
       0.155188              0.0188689417             0.00130122891           
       0.155868              0.0185887214             0.00128233992           
       0.156547              0.0180260815             0.00127089552           
       0.157226              0.0173997828             0.00121812533           
       0.157905              0.0170942474             0.00121752449           
       0.158584              0.0171337117             0.00121671462           
       0.159263               0.018382138             0.00126489958           
       0.159943              0.0175353694             0.00123634387           
       0.160622              0.0178578134             0.00122358112           
       0.161301              0.0183456472             0.00125676896           
       0.161980              0.0188941652             0.00125373575           
       0.162659              0.0195714883             0.00129015309           
       0.163338               0.019662213             0.00128260006           
       0.164018              0.0170568383             0.00118833502           
       0.164697              0.0170853585             0.00120459948           
       0.165376              0.0179665827             0.00120828496           
       0.166055              0.0179352213             0.00121519165           
       0.166734              0.0172469583             0.00118630908           
       0.167413              0.0159263948             0.00114078631           
       0.168093              0.0177582751             0.00121600336           
       0.168772              0.0161366582             0.00112525477           
       0.169451              0.0158028384             0.00113404238           
       0.170130              0.0151970538             0.00109749404           
       0.170809              0.0165490723              0.0011589414           
       0.171488              0.0173520593             0.00117590689           
       0.172168              0.0174801322             0.00116890027           
       0.172847              0.0187572084             0.00122675246           
       0.173526              0.0176788944             0.00116824922           
       0.174205              0.0161835803             0.00112289931           
       0.174884              0.0162579367             0.00111961085           
       0.175563              0.0170336752             0.00115090345           
       0.176243               0.014576374             0.00107531114           
       0.176922              0.0184187451             0.00117725797           
       0.177601               0.016053048              0.0011111358           
       0.178280                0.01659671              0.0011171828           
       0.178959              0.0154845916             0.00108778311           
       0.179638              0.0156287472             0.00108968778           
       0.180317              0.0177284884             0.00115212726           
       0.180997              0.0149749993             0.00106463046           
       0.181676               0.017589234              0.0011415021           
       0.182355              0.0155828253             0.00108087853           
       0.183034              0.0148412742             0.00103791733           
       0.183713              0.0174506936             0.00113917542           
       0.184392              0.0165526615             0.00110914106           
       0.185072              0.0176046442             0.00113080724           
       0.185751              0.0171185361             0.00111818788           
       0.186430              0.0168031755              0.0011000809           
       0.187109              0.0164415976             0.00110029934           
       0.187788              0.0179135558              0.0011456652           
       0.188467              0.0153611454             0.00104835526           
       0.189147              0.0141089375             0.00101489188           
       0.189826              0.0158907242              0.0010580247           
       0.190505              0.0161283707             0.00108345302           
       0.191184              0.0177253159             0.00111945621           
       0.191863              0.0150946592             0.00103522734           
       0.192542              0.0168194113             0.00110307688           
       0.193222              0.0158546522             0.00104697286           
       0.193901              0.0170663695             0.00110080418           
       0.194580              0.0148200528             0.00100786009           
       0.195259              0.0139895941            0.000990460824           
       0.195938              0.0170875627               0.001097262           
       0.196617              0.0161888095             0.00105310792           
       0.197297              0.0186075258             0.00113365108           
       0.197976              0.0162696955             0.00104376349           
       0.198655              0.0152208056             0.00102058507           
       0.199334              0.0159284802             0.00103483393           
       0.200013              0.0137782217             0.00096192055           
       0.200692              0.0170038651             0.00107503076           
       0.201371               0.016090477             0.00103398128           
       0.202051              0.0171181233              0.0010698053           
       0.202730              0.0151875958            0.000997612067           
       0.203409              0.0157301211             0.00102208923           
       0.204088              0.0164291022             0.00104339575           
       0.204767              0.0141099359             0.00096186928           
       0.205446              0.0166603462             0.00104723312           
       0.206126               0.016590084              0.0010308247           
       0.206805              0.0149586945            0.000996774606           
       0.207484              0.0132469104            0.000921146764           
       0.208163              0.0135807812            0.000938287245           
       0.208842              0.0163171896             0.00102569363           
       0.209521               0.015469043            0.000990381123           
       0.210201              0.0167260842             0.00104132745           
       0.210880              0.0129485915            0.000898244443           
       0.211559              0.0143171283            0.000958484948           
       0.212238               0.014795794             0.00096941765           
       0.212917              0.0143737266            0.000951940669           
       0.213596              0.0142269651            0.000952668245           
       0.214276              0.0149610926              0.0009565854           
       0.214955              0.0160004302             0.00101005757           
       0.215634                0.01398162             0.00093742229           
       0.216313              0.0150072846            0.000969158204           
       0.216992              0.0145073547             0.00095264031           
       0.217671              0.0140613302            0.000931528866           
       0.218351              0.0154077511            0.000984644747           
       0.219030              0.0144230498            0.000937623736           
       0.219709               0.016636194             0.00101327573           
       0.220388              0.0154886789            0.000976448974           
       0.221067              0.0148257648            0.000956081896           
       0.221746              0.0158727744            0.000988252387           
       0.222426              0.0162489466            0.000984950907           
       0.223105              0.0142740437            0.000935733457           
       0.223784              0.0153142541            0.000959615425           
       0.224463              0.0157458669            0.000980793224           
       0.225142              0.0154877997            0.000957331753           
       0.225821              0.0145794471            0.000932575434           
       0.226500              0.0139378058            0.000917620918           
       0.227180              0.0148463418            0.000932465765           
       0.227859              0.0143797527            0.000921813009           
       0.228538              0.0151902035            0.000937920266           
       0.229217               0.013980188            0.000906911185           
       0.229896              0.0140740739             0.00090951326           
       0.230575              0.0152174131              0.0009306595           
       0.231255               0.013038153            0.000874344113           
       0.231934              0.0156797945            0.000952285717           
       0.232613              0.0126779918            0.000859452072           
       0.233292              0.0158443127              0.0009515172           
       0.233971               0.014245244            0.000901804015           
       0.234650              0.0133001932            0.000881626692           
       0.235330              0.0137946692            0.000890025286           
       0.236009              0.0147141924            0.000917228995           
       0.236688              0.0144863829            0.000906843901           
       0.237367              0.0140279599            0.000893676075           
       0.238046              0.0132923039            0.000876053841           
       0.238725                0.01238126            0.000832454772           
       0.239405              0.0124103329            0.000838599644           
       0.240084              0.0141682957            0.000890322819           
       0.240763              0.0143330338            0.000904058377           
       0.241442              0.0139726387            0.000880042604           
       0.242121              0.0144780497            0.000897508387           
       0.242800              0.0149578508            0.000916577665           
       0.243480              0.0141852483            0.000888412939           
       0.244159              0.0128208925            0.000845017346           
       0.244838              0.0134620661            0.000851641356           
       0.245517              0.0146981606             0.00090268249           
       0.246196              0.0148734971            0.000908488494           
       0.246875              0.0150947631            0.000902463127           
       0.247554               0.014532483            0.000894494717           
       0.248234              0.0143098931            0.000874158865           
       0.248913              0.0121641903            0.000815001081           
       0.249592              0.0149409966            0.000894663654           
       0.250271              0.0136851928            0.000853753647           
       0.250950              0.0127725309            0.000829845924           
       0.251629              0.0143553532            0.000872286014           
       0.252309              0.0117692487            0.000791419733           
       0.252988              0.0134936695            0.000832820568           
       0.253667              0.0142595837            0.000866133126           
       0.254346              0.0125035886             0.00081088484           
       0.255025              0.0140100382            0.000856464008           
       0.255704              0.0135685475            0.000839000971           
       0.256384              0.0139864193            0.000848875488           
       0.257063              0.0115122391            0.000774532594           
       0.257742              0.0136541412            0.000837668858           
       0.258421              0.0125769608            0.000802400641           
       0.259100              0.0147173081            0.000869509411           
       0.259779              0.0127502726             0.00080863312           
       0.260459              0.0123813953            0.000798414856           
       0.261138              0.0120955413            0.000773722648           
       0.261817              0.0126911723            0.000808542438           
       0.262496              0.0133679107            0.000821681509           
       0.263175              0.0130007719             0.00081206001           
       0.263854              0.0131335306            0.000812403715           
       0.264534              0.0136491638             0.00082112454           
       0.265213               0.012826289            0.000808531839           
       0.265892              0.0135349018            0.000819925028           
       0.266571              0.0133230239            0.000811632155           
       0.267250              0.0130242225            0.000803830962           
       0.267929              0.0124477669            0.000785034972           
       0.268609              0.0120380742             0.00077623495           
       0.269288               0.012695556            0.000783908466           
       0.269967              0.0121280047            0.000774441027           
       0.270646              0.0110961203            0.000737560777           
       0.271325              0.0126008227            0.000787293068           
       0.272004              0.0130367557            0.000792813099           
       0.272683              0.0117959261            0.000755071992           
       0.273363               0.011752452            0.000758486167           
       0.274042              0.0128407277            0.000788149011           
       0.274721              0.0123300136            0.000771858577           
       0.275400              0.0122577031             0.00076449644           
       0.276079               0.011937105              0.0007587164           
       0.276758              0.0111257862             0.00074172284           
       0.277438              0.0119024903            0.000758564676           
       0.278117              0.0119779335            0.000774802064           
       0.278796              0.0120716399            0.000769931696           
       0.279475              0.0117391395            0.000771796653           
       0.280154             0.00977768905            0.000694241373           
       0.280833              0.0102007193            0.000713412726           
       0.281513              0.0115000879            0.000769372464           
       0.282192              0.0113551477            0.000751465964           
       0.282871              0.0107452694            0.000736115187           
       0.283550             0.00897645765             0.00067641117           
       0.284229              0.0113437033            0.000771556915           
       0.284908              0.0123403033            0.000813224172           
       0.285588              0.0109985691            0.000758751956           
       0.286267              0.0116515454            0.000793454866           
       0.286946              0.0103838834            0.000744178114           
       0.287625             0.00969841926             0.00073144189           
       0.288304              0.0121264011            0.000806943666           
       0.288983              0.0107091203            0.000767925995           
       0.289663              0.0100803558            0.000749402004           
       0.290342              0.0100868788            0.000745653967           
       0.291021              0.0100868414            0.000749669777           
       0.291700              0.0100290807            0.000737754972           
       0.292379             0.00988139537            0.000749069684           
       0.293058             0.00891427346            0.000708781679           
       0.293738             0.00975853065            0.000735358931           
       0.294417             0.00935912866             0.00072852364           
       0.295096             0.00959551602            0.000729557184           
       0.295775             0.00967582252            0.000743792004           
       0.296454             0.00880230816            0.000700247957           
       0.297133             0.00989294749            0.000745875286           
       0.297812             0.00982912396            0.000747194264           
       0.298492             0.00948153594            0.000735281704           
       0.299171              0.0107347132            0.000780885239           
       0.299850             0.00971508508            0.000737801446           
       0.300529             0.00939801145            0.000733835864           
       0.301208              0.0107883827            0.000788160447           
       0.301887             0.00822496301            0.000687364427           
       0.302567             0.00951111661            0.000735453575           
       0.303246             0.00963725465            0.000745147737           
       0.303925               0.010828508            0.000800001449           
       0.304604             0.00904764723            0.000715474076           
       0.305283             0.00858286618            0.000707189894           
       0.305962             0.00858659026            0.000703070133           
       0.306642              0.0084231744            0.000705805166           
       0.307321             0.00859434695             0.00071066409           
       0.308000             0.00874252564            0.000708268351           
       0.308679             0.00931236802            0.000746816603           
       0.309358             0.00817071948            0.000690079627           
       0.310037             0.00956550553            0.000748323831           
       0.310717             0.00825898273            0.000694673688           
       0.311396              0.0101972086            0.000777071817           
       0.312075             0.00963358477            0.000764869243           
       0.312754             0.00845994606            0.000702426121           
       0.313433             0.00845123834            0.000708170436           
       0.314112             0.00927532871            0.000741724409           
       0.314792             0.00924117477            0.000745585747           
       0.315471             0.00753347332            0.000664855702           
       0.316150             0.00857157622            0.000715749383           
       0.316829             0.00850231311            0.000717559052           
       0.317508             0.00807654263            0.000691514015           
       0.318187             0.00988133864            0.000774975062           
       0.318866             0.00923472119            0.000739097185           
       0.319546             0.00960062795            0.000764893756           
       0.320225             0.00814507172            0.000704542575           
       0.320904             0.00799427626            0.000687197883           
       0.321583             0.00806512883            0.000705445602           
       0.322262             0.00703920967            0.000649063658           
       0.322941             0.00898826699            0.000742834409           
       0.323621             0.00778291541            0.000687015712           
       0.324300             0.00762786727            0.000680671136           
       0.324979             0.00711008986            0.000658351395           
       0.325658             0.00749922212            0.000677353677           
       0.326337                0.00857478             0.00072524606           
       0.327016                0.00887556            0.000733171883           
       0.327696             0.00847691993            0.000724486702           
       0.328375             0.00826588308            0.000709374739           
       0.329054             0.00791026807            0.000697711393           
       0.329733             0.00922685106            0.000756293048           
       0.330412             0.00802512279            0.000699545752           
       0.331091             0.00707002524            0.000668510191           
       0.331771             0.00686192107            0.000641340576           
       0.332450              0.0069064271            0.000655909141           
       0.333129             0.00783992546            0.000697028985           
       0.333808             0.00700108525            0.000659555253           
       0.334487             0.00751192766            0.000686433487           
       0.335166             0.00703502846            0.000654564874           
       0.335846             0.00648441849            0.000639471132           
       0.336525             0.00795842044            0.000701438735           
       0.337204             0.00676433473            0.000648374495           
       0.337883             0.00727121476             0.00067311948           
       0.338562             0.00648043015            0.000638989866           
       0.339241             0.00655219527             0.00064372223           
       0.339921             0.00695487626            0.000652086124           
       0.340600             0.00754222152            0.000691958454           
       0.341279             0.00692940757            0.000656149482           
       0.341958             0.00605530703            0.000622024009           
       0.342637             0.00644794984            0.000632806295           
       0.343316             0.00672554027            0.000648155369           
       0.343995             0.00625806302            0.000635461309           
       0.344675             0.00663412647             0.00064225194           
       0.345354             0.00678505074            0.000653800731           
       0.346033             0.00718216814             0.00067090812           
       0.346712             0.00621749544            0.000628210728           
       0.347391              0.0079640271            0.000715393096           
       0.348070             0.00741871069            0.000680660838           
       0.348750             0.00649399186            0.000646030235           
       0.349429             0.00606279521            0.000616155398           
       0.350108             0.00615338548            0.000628211294           
       0.350787             0.00673789892            0.000646203591           
       0.351466              0.0062943091            0.000636075378           
       0.352145             0.00573104573            0.000607451667           
       0.352825             0.00573303059              0.0006048049           
       0.353504             0.00656438332            0.000647013912           
       0.354183             0.00800769107            0.000706378883           
       0.354862             0.00672801282            0.000662527387           
       0.355541             0.00462262866            0.000541975475           
       0.356220             0.00599728329            0.000618488996           
       0.356900              0.0053089345            0.000587440688           
       0.357579             0.00664312813            0.000649065405           
       0.358258             0.00541055694            0.000593870726           
       0.358937             0.00495632324            0.000557709596           
       0.359616             0.00541089006               0.000590861           
       0.360295             0.00554553053            0.000598665411           
       0.360975             0.00460401119            0.000543149577           
       0.361654             0.00543517997            0.000593186798           
       0.362333             0.00474071265            0.000551178678           
       0.363012             0.00545541157            0.000598875409           
       0.363691             0.00580799815            0.000605734164           
       0.364370             0.00438512015            0.000532861201           
       0.365050             0.00427714493            0.000523443932           
       0.365729             0.00417168916            0.000521879871           
       0.366408             0.00498938592            0.000572003487           
       0.367087             0.00544688434            0.000588067513           
       0.367766             0.00449509312            0.000545353848           
       0.368445             0.00547928417            0.000591413132           
       0.369124             0.00589426286            0.000618218733           
       0.369804             0.00362255658            0.000483882066           
       0.370483             0.00384446054            0.000500663243           
       0.371162                0.00455771            0.000548292095           
       0.371841             0.00458594484            0.000540398464           
       0.372520             0.00617160776            0.000639466828           
       0.373199             0.00621138456            0.000633859716           
       0.373879              0.0041063011            0.000521343126           
       0.374558             0.00499424724            0.000566564304           
       0.375237             0.00495065783            0.000565011112           
       0.375916             0.00503844747            0.000580918418           
       0.376595             0.00533990273            0.000586355933           
       0.377274             0.00405620332            0.000519219736           
       0.377954             0.00534473216            0.000586648296           
       0.378633             0.00627377251             0.00064362533           
       0.379312              0.0046211688            0.000552249088           
       0.379991             0.00464126457            0.000550584008           
       0.380670              0.0041438041            0.000529436686           
       0.381349             0.00472256995            0.000557086555           
       0.382029             0.00366029958            0.000497473922           
       0.382708             0.00544436367            0.000593467085           
       0.383387             0.00453965442            0.000554200242           
       0.384066             0.00418619412            0.000527304856           
       0.384745             0.00436820125            0.000540763421           
       0.385424             0.00491965166            0.000575831888           
       0.386104             0.00397130926            0.000511645645           
       0.386783             0.00386745637            0.000515832529           
       0.387462             0.00432391178            0.000531855765           
       0.388141             0.00439114612            0.000544535264           
       0.388820             0.00386820725             0.00050738912           
       0.389499             0.00464885033            0.000559367304           
       0.390178             0.00490284028            0.000576732184           
       0.390858             0.00361842928            0.000491452885           
       0.391537             0.00444188273            0.000550069556           
       0.392216             0.00458372804            0.000551779494           
       0.392895               0.004023798            0.000518722218           
       0.393574             0.00477952915            0.000563938148           
       0.394253             0.00383209183            0.000507231554           
       0.394933             0.00408218803            0.000529504255           
       0.395612             0.00440271022            0.000533925933           
       0.396291             0.00433014683            0.000540287776           
       0.396970             0.00364880378            0.000491568589           
       0.397649             0.00394275324            0.000512558858           
       0.398328             0.00463581218            0.000553342081           
       0.399008             0.00447695256            0.000542596713           
       0.399687             0.00399122689            0.000514309802           
       0.400366             0.00389300267            0.000505999015           
       0.401045             0.00425884384            0.000528239991           
       0.401724             0.00447829062            0.000542582614           
       0.402403             0.00482232132            0.000567426492           
       0.403083             0.00461061117            0.000546830626           
       0.403762             0.00236698598            0.000393738367           
       0.404441             0.00478776961            0.000563551718           
       0.405120             0.00362981204            0.000489083175           
       0.405799             0.00509419019            0.000576882564           
       0.406478             0.00391638167            0.000505828444           
       0.407158             0.00440302026            0.000535328357           
       0.407837             0.00350650329            0.000481946091           
       0.408516             0.00401085326            0.000510957857           
       0.409195             0.00392451306            0.000511161886           
       0.409874             0.00315089028            0.000464390154           
       0.410553             0.00280590611            0.000442944032           
       0.411233             0.00346264468            0.000489508316           
       0.411912             0.00336786399            0.000489602664           
       0.412591             0.00414167766            0.000546536866           
       0.413270             0.00311263002            0.000471549084           
       0.413949             0.00338614603            0.000497202912           
       0.414628             0.00396900468            0.000537330106           
       0.415307             0.00339103496            0.000502193071           
       0.415987             0.00361725385            0.000514399363           
       0.416666             0.00307767505            0.000471630038           
       0.417345             0.00266320393            0.000446051281           
       0.418024             0.00228318998            0.000413013899           
       0.418703             0.00184050305            0.000370137709           
       0.419382             0.00284629509            0.000458038078           
       0.420062              0.0034529054              0.0005059051           
       0.420741             0.00319169114            0.000488979466           
       0.421420             0.00321974088            0.000492986016           
       0.422099             0.00307523371            0.000481808537           
       0.422778             0.00379156488            0.000537885909           
       0.423457             0.00276150777            0.000461853417           
       0.424137             0.00199576915            0.000386233838           
       0.424816             0.00263678004            0.000453226205           
       0.425495             0.00247868115             0.00043901297           
       0.426174             0.00300691116            0.000483703642           
       0.426853             0.00221380592            0.000412517875           
       0.427532             0.00233564038            0.000427299501           
       0.428212             0.00196852663            0.000394873046           
       0.428891             0.00314531179            0.000498000486           
       0.429570             0.00212120923            0.000409247951           
       0.430249             0.00146583128            0.000338435601           
       0.430928               0.002527434            0.000454117763           
       0.431607             0.00211331678            0.000408116183           
       0.432287             0.00183304272            0.000382874975           
       0.432966             0.00171039106            0.000373097001           
       0.433645             0.00227741673            0.000430971542           
       0.434324             0.00288329942            0.000481999288           
       0.435003             0.00211292182            0.000413318041           
       0.435682             0.00320252678             0.00051302251           
       0.436361             0.00270528283             0.00047088488           
       0.437041             0.00171548263             0.00037447394           
       0.437720             0.00222962849            0.000428977415           
       0.438399             0.00217283103            0.000425688127           
       0.439078             0.00205198394             0.00042567692           
       0.439757             0.00315196862            0.000524324729           
       0.440436             0.00204024046            0.000431349134           
       0.441116             0.00230820042            0.000466304006           
       0.441795              0.0026957543            0.000504539838           
       0.442474             0.00233236898             0.00047061228           
       0.443153             0.00364849011            0.000602333138           
       0.443832             0.00127137553            0.000356162766           
       0.444511              0.0028447818            0.000530364928           
       0.445191             0.00237740112            0.000496636414           
       0.445870             0.00247012542            0.000506242603           
       0.446549             0.00180451939            0.000437255882           
       0.447228             0.00144988883            0.000389727677           
       0.447907             0.00256868775            0.000524964318           
       0.448586             0.00169699205            0.000436958193           
       0.449266              0.0022140903            0.000494520638           
       0.449945             0.00197152517            0.000464743028           
       0.450624             0.00412722679              0.0006830987           
       0.451303             0.00246572855            0.000534835715           
       0.451982             0.00253483292            0.000538926251           
       0.452661              0.0027742283            0.000574304563           
       0.453341              0.0020726281              0.0004981397           
       0.454020             0.00267442221            0.000566717685           
       0.454699              0.0029745407            0.000603129055           
       0.455378             0.00235544977            0.000536994969           
       0.456057             0.00207543536            0.000513031155           
       0.456736             0.00229770091            0.000538120443           
       0.457416             0.00182040991            0.000478993555           
       0.458095             0.00290871363            0.000614236521           
       0.458774             0.00180355935            0.000490063433           
       0.459453             0.00156402431            0.000458662975           
       0.460132             0.00248955318            0.000566175181           
       0.460811             0.00188688856            0.000511295113           
       0.461490             0.00198734174            0.000519391936           
       0.462170             0.00232719847            0.000570821914           
       0.462849             0.00319941819            0.000673638857           
       0.463528             0.00320003289            0.000672141285           
       0.464207             0.00143400253             0.00045836279           
       0.464886             0.00126055888            0.000426403765           
       0.465565             0.00173373099             0.00050556277           
       0.466245             0.00174374049            0.000508593413           
       0.466924             0.00213613529            0.000576213902           
       0.467603             0.00101015508            0.000387839941           
       0.468282             0.00200667858            0.000559597392           
       0.468961            0.000610856619            0.000310777873           
       0.469640             0.00174699499            0.000527661459           
       0.470320            0.000628882381            0.000316806677           
       0.470999             0.00064884087            0.000324829716           
       0.471678             0.00231389359            0.000619316821           
       0.472357            0.000500502856             0.00028883858           
       0.473036             0.00200189309            0.000581306339           
       0.473715             0.00189341503            0.000569759702           
       0.474395            0.000377949522            0.000258076184           
       0.475074            0.000730084951            0.000358699173           
       0.475753            0.000535919412            0.000304670038           
       0.476432             0.00115140734            0.000462833089           
       0.477111            0.000398723155             0.00026906782           
       0.477790             0.00114403448            0.000458205013           
       0.478470            0.000810530833            0.000390778497           
       0.479149             0.00119241819            0.000478882681           
       0.479828            0.000630358491             0.00034736421           
       0.480507            0.000261386723            0.000225486415           
       0.481186            0.000685534289            0.000373400169           
       0.481865            0.000851828565            0.000411078211           
       0.482545            0.000886371328             0.00042425584           
       0.483224            0.000483225627            0.000315393261           
       0.483903           -0.000114227306                         0           
       0.484582              0.0011806398            0.000508896345           
       0.485261           -0.000115789026                         0           
       0.485940            0.000581156706            0.000362032743           
       0.486619            0.000342906509            0.000275033283           
       0.487299            0.000129674744            0.000171827989           
       0.487978            0.000115749482            0.000160686089           
       0.488657           -0.000322379404                         0           
       0.489336            0.000129484063            0.000173862677           
       0.490015            0.000134272026            0.000178439356           
       0.490694           -8.79069518e-05                         0           
       0.491374           -0.000322457473                         0           
       0.492053           -0.000322477111                         0           
       0.492732           -0.000322496613                         0           
       0.493411            0.000190352351             0.00022136827           
       0.494090           -6.35208057e-05                         0           
       0.494769           -5.24130167e-05                         0           
       0.495449           -5.22452414e-05                         0           
       0.496128           -5.32688376e-05                         0           
       0.496807           -0.000322614977                         0           
       0.497486           -0.000322634776                         0           
       0.498165           -0.000322654859                         0           
       0.498844           -3.47118408e-05                         0           
       0.499524           -0.000322694514                         0           
       0.500203           -0.000322714703                         0           
       0.500882           -0.000322734495                         0           
       0.501561           -0.000322754349                         0           
       0.502240           -0.000322774468                         0           
       0.502919           -0.000322794498                         0           
       0.503599           -0.000322814608                         0           
       0.504278            0.000320001552            0.000319865381           
       0.504957            0.000656886537             0.00046136157           
       0.505636            0.000338305221            0.000333345472           
       0.506315            1.03377855e-05            5.85120255e-05           
       0.506994           -0.000322915521                         0           
       0.507673            -0.00032293547                         0           
       0.508353            -0.00032295584                         0           
       0.509032            4.85833755e-05            0.000133621977           
       0.509711            2.22123063e-05             8.7726288e-05           
       0.510390           -0.000323017023                         0           
       0.511069           -0.000323037565                         0           
       0.511748            4.98473433e-05            0.000135987586           
       0.512428           -0.000323078629                         0           
       0.513107           -0.000323098916                         0           
       0.513786           -0.000323119267                         0           
       0.514465            6.11738208e-05            0.000152549705           
       0.515144            -0.00032316065                         0           
       0.515823           -0.000323181146                         0           
       0.516503           -0.000323201834                         0           
       0.517182            -0.00032322252                         0           
       0.517861           -0.000323243156                         0           
       0.518540           -0.000323263908                         0           
       0.519219            -0.00032328454                         0           
       0.519898           -0.000323305381                         0           
       0.520578           -0.000323326347                         0           
       0.521257           -0.000323347042                         0           
       0.521936           -0.000323367787                         0           
       0.522615            -0.00032338878                         0           
       0.523294            0.000165444248            0.000283628309           
       0.523973            0.000160957748            0.000281465879           
       0.524653           -0.000323451261                         0           
       0.525332           -0.000323472192                         0           
       0.526011           -0.000323493499                         0           
       0.526690           -0.000323514765                         0           
       0.527369           -0.000323535856                         0           
       0.528048           -0.000323557097                         0           
       0.528728           -0.000323578313                         0           
       0.529407           -0.000323599431                         0           
       0.530086            0.000207667034            0.000332185842           
       0.530765           -0.000323641478                         0           
       0.531444            0.000187544989            0.000313646097           
       0.532123           -0.000323684385                         0           
       0.532802            0.000222221362            0.000349075067           
       0.533482            0.000259426106            0.000390669622           
       0.534161           -0.000323748668                         0           
       0.534840           -0.000323769911                         0           
       0.535519           -0.000323791547                         0           
       0.536198           -0.000323812959                         0           
       0.536877           -0.000323834076                         0           
       0.537557           -0.000323855556                         0           
       0.538236            -0.00032387723                         0           
       0.538915           -0.000323898896                         0           
       0.539594           -0.000323920533                         0           
       0.540273           -0.000323942508                         0           
       0.540952           -0.000323964238                         0           
       0.541632           -0.000323985571                         0           
       0.542311           -0.000324007099                         0           
       0.542990           -0.000324028869                         0           
       0.543669            -0.00032405082                         0           
       0.544348           -0.000324072746                         0           
       0.545027           -0.000324094624                         0           
       0.545707           -0.000324116569                         0           
       0.546386           -0.000324138575                         0           
       0.547065           -0.000324160317                         0           
       0.547744           -0.000324182157                         0           
       0.548423           -0.000324204239                         0           
       0.549102           -0.000324226343                         0           
       0.549782           -0.000324248335                         0           
       0.550461           -0.000324270588                         0           
       0.551140           -0.000324292976                         0           
       0.551819           -0.000324315099                         0           
       0.552498            0.000496728939            0.000642730066           
       0.553177            -0.00032435934                         0           
       0.553856             0.00146995166             0.00115851172           
       0.554536            0.000501055547            0.000645588844           
       0.555215           -0.000324425844                         0           
       0.555894           -0.000324448208                         0           
       0.556573           -0.000324470705                         0           
       0.557252           -0.000324493183                         0           
       0.557931           -0.000324515559                         0           
       0.558611           -0.000324538459                         0           
       0.559290             0.00166073225             0.00128083168           
       0.559969           -0.000324582544                         0           
       0.560648           -0.000324604889                         0           
       0.561327           -0.000324627732                         0           
       0.562006           -0.000324650469                         0           
       0.562686           -0.000324673219                         0           
       0.563365           -0.000324696053                         0           
       0.564044           -0.000324718771                         0           
       0.564723            0.000814198962            0.000966335614           
       0.565402           -0.000324763686                         0           
       0.566081           -0.000324786079                         0           
       0.566761           -0.000324808714                         0           
       0.567440           -0.000324831809                         0           
       0.568119           -0.000324854722                         0           
       0.568798           -0.000324877956                         0           
       0.569477           -0.000324901042                         0           
       0.570156           -0.000324924239                         0           
       0.570836           -0.000324947349                         0           
       0.571515           -0.000324969971                         0           
       0.572194             0.00118831981             0.00135281086           
       0.572873             0.00123735465             0.00138048823           
       0.573552           -0.000325038603                         0           
       0.574231           -0.000325061673                         0           
       0.574911           -0.000325085324                         0           
       0.575590            -0.00032510852                         0           
       0.576269             0.00146054082              0.0016537756           
       0.576948             0.00312991676             0.00242103945           
       0.577627           -0.000325178064                         0           
       0.578306           -0.000325201236                         0           
       0.578985           -0.000325224607                         0           
       0.579665           -0.000325247844                         0           
       0.580344           -0.000325271431                         0           
       0.581023           -0.000325294993                         0           
       0.581702           -0.000325318338                         0           
       0.582381            -0.00032534147                         0           
       0.583060           -0.000325365292                         0           
       0.583740           -0.000325388741                         0           
       0.584419           -0.000325412267                         0           
       0.585098           -0.000325435765                         0           
       0.585777           -0.000325459446                         0           
       0.586456           -0.000325483512                         0           
       0.587135           -0.000325506938                         0           
       0.587815           -0.000325530112                         0           
       0.588494           -0.000325554008                         0           
       0.589173           -0.000325578452                         0           
       0.589852           -0.000325601597                         0           
       0.590531           -0.000325625615                         0           
       0.591210           -0.000325649079                         0           
       0.591890           -0.000325672996                         0           
       0.592569           -0.000325696113                         0           
       0.593248           -0.000325721387                         0           
       0.593927           -0.000325745416                         0           
       0.594606            -0.00032576994                         0           
       0.595285           -0.000325793002                         0           
       0.595965           -0.000325814523                         0           
       0.596644           -0.000325836669                         0           
