################################################################################
# EDF_DataBlockID                     0.Image.Psd
# EDF_BinarySize                      2105344
# EDF_HeaderSize                      2560
# ByteOrder                           LowByteFirst
# DataType                            FloatValue
# Dim_1                               512
# Dim_2                               1028
# Image                               0
# HeaderID                            EH:000000:000000:000000
# Size                                2105344
# Center_1                            304.9000
# Center_2                            588.7000
# Comment                             Xenocs_Cell_Window - 20251028_20perc_iodine_1.23mg
# DDummy                              0.6
# Date                                2025-10-29T03:09:12
# Delta                               21.910000
# Dummy                               -1.5
# ExposureTime                        360
# Gamma                               15.360000
# Intensity1                          8.47325e-10
# PSize_1                             7.5e-05
# PSize_2                             7.5e-05
# Pressure                            0.0335283
# SampleDistance                      0.115750
# SampleEnvKind                       large
# SampleEnvPN                         ElectroChemical cell
# SampleEnvSN                         1141
# Thickness                           0
# Wavelength                          1.541891e-10
# Wavelength                          1.54189e-10
# aux                                 0
# aux_dial                            0.002375
# beamx                               588.434
# beamx_dial                          588.434
# beamz                               657.808
# beamz_dial                          657.808
# det0x                               0
# det0x_dial                          6.36945
# det0xvd                             0
# det0xvd_dial                        0
# det0y                               450.002
# det0y_dial                          481.635
# det0z                               0
# det0z_dial                          1.23302
# det0zvd                             0
# det0zvd_dial                        0
# mag                                 1.818
# mag_dial                            1.818
# om                                  0.2499
# om_dial                             -0.610199
# phi                                 -0.0120535
# phi_dial                            0
# ry                                  0.599993
# ry_dial                             0.599993
# s1bot                               0.8
# s1bot_dial                          -1.66094
# s1hl                                0.8
# s1hl_dial                           -0.608437
# s1hr                                0.8
# s1hr_dial                           0.970938
# s1top                               0.8
# s1top_dial                          -0.461562
# s2bot                               0.45
# s2bot_dial                          1.36109
# s2hl                                0.45
# s2hl_dial                           -0.83375
# s2hr                                0.45
# s2hr_dial                           -0.118594
# s2top                               0.45
# s2top_dial                          1.44734
# w2theta                             32
# w2theta_dial                        32
# waxsch                              19.2605
# waxsch_dial                         -32.7355
# waxsh                               137.085
# waxsh_dial                          -43.5338
# waxsth                              26.0607
# waxsth_dial                         -19.4086
# waxsz                               67.0407
# waxsz_dial                          -23.7954
# wind                                65.9854
# wind_dial                           66.0041
# wpsi                                124
# wpsi_dial                           124
# wstod                               115
# wstod_dial                          115
# x                                   0
# x_dial                              1.00969
# z                                   0
# z_dial                              13.3172
# CountCutoff                         6807993
# DetectorModel                       Dectris EIGER2 Si 500K, S/N E-01-0554
# ThresholdSetting                    4023.88989258
# Saturation                          0
# FlatField                           Corrected
# BackgroundReductionExtra            0.02
# BackgroundCorrectionConstant        0.0026712
# Detector                            0
# Monitor                             0
# Pil_Roi0                            0
# SumForIntensity1                    3.05037e+08
# TransmittedFlux                     847325
# det                                 0
# mon                                 0
# pilai0                              3.05037e+08
# pilai1                              770543
# pilct0                              5.28728e+08
# pilct1                              770543
# pilroi0                             0
# pilroi1                             0
# sec                                 1
# title                               20251028_20perc_iodine_1.23mg_1_00116.edf
# usaxs0                              0
# Operation                           Azimuthal average I(q)
# Error_model                         ErrorModel.poisson
# Geometrical_correction              True
# Transmission_correction             True
# Thickness_correction                False
# Binning mode                        Uniform
# Binning factor                      1.0
# Psi                                 0.0
# Omega                               0.2499
# MaskInvalidPixels                   True
# DetectorEdge                        3
# MaskFiles                           ['WAXS_corrected.edf']
################################################################################
    q(A⁻¹)                Intensity(a.u.)            Sigma_I(a.u.)            
       0.693100             0.00835147731             0.00612027182           
       0.695741             0.00570315661             0.00412718965           
       0.698381              0.0172121907             0.00878269313           
       0.701021           -2.39237942e-05                         0           
       0.703662              0.0143195937             0.00653682157           
       0.706302              0.0104192495             0.00431694639           
       0.708942              0.0116093546             0.00588143809           
       0.711583              0.0133290249              0.0054571322           
       0.714223             0.00588637747              0.0041868679           
       0.716864              0.0100574703             0.00358080249           
       0.719504             0.00737203712             0.00330824451           
       0.722144             0.00375481572             0.00218647731           
       0.724785             0.00722060732             0.00241862718           
       0.727425             0.00744366672             0.00332212197           
       0.730065             0.00669234693             0.00222819171           
       0.732706             0.00617957675             0.00179800726           
       0.735346             0.00622785948             0.00235291148           
       0.737987             0.00843696337             0.00193520216           
       0.740627             0.00879007153               0.002947243           
       0.743267             0.00574696823             0.00159617792           
       0.745908             0.00313214837             0.00127847367           
       0.748548              0.0075623694             0.00183110818           
       0.751189              0.0105160813             0.00290956828           
       0.753829             0.00745851431             0.00225243806           
       0.756469              0.0101107292             0.00211471224           
       0.759110             0.00836761046               0.002027362           
       0.761750             0.00572478763             0.00148276023           
       0.764390             0.00630077376             0.00162814713           
       0.767031             0.00625800664             0.00140512149           
       0.769671             0.00390811817             0.00138514216           
       0.772312             0.00767754554             0.00147799531           
       0.774952              0.0046437639             0.00155223202           
       0.777592             0.00792996709             0.00147745566           
       0.780233             0.00278812117             0.00105695952           
       0.782873             0.00583521663             0.00146242518           
       0.785513             0.00539409965             0.00150317112           
       0.788154             0.00846519417             0.00157525647           
       0.790794             0.00916227545             0.00195926652           
       0.793435             0.00542612288             0.00135452453           
       0.796075             0.00469225167             0.00121338571           
       0.798715              0.0109209465             0.00218751536           
       0.801356             0.00997465201             0.00179930904           
       0.803996              0.0070648576             0.00154383651           
       0.806637             0.00940663811              0.0014176827           
       0.809277             0.00626303452             0.00125209003           
       0.811917             0.00676637608             0.00121663097           
       0.814558             0.00891144954             0.00145112504           
       0.817198             0.00788952137             0.00129718234           
       0.819838             0.00851488258              0.0013638834           
       0.822479             0.00967145724             0.00170687992           
       0.825119             0.00761515887             0.00128911071           
       0.827760             0.00896351412             0.00141671576           
       0.830400             0.00729784902             0.00120314013           
       0.833040             0.00824557426              0.0013398707           
       0.835681             0.00533122542             0.00122478835           
       0.838321             0.00673757552             0.00115566794           
       0.840961             0.00822187587             0.00139095375           
       0.843602             0.00943493451             0.00136642361           
       0.846242             0.00670882774             0.00115205829           
       0.848883             0.00786412364             0.00127644784           
       0.851523             0.00501473896             0.00100663852           
       0.854163             0.00662303178             0.00123026019           
       0.856804             0.00740580741             0.00116971671           
       0.859444             0.00708753087             0.00112119825           
       0.862085             0.00826472481             0.00126188902           
       0.864725             0.00484939231            0.000989224068           
       0.867365             0.00607860984              0.0010269967           
       0.870006             0.00736962454             0.00107757493           
       0.872646               0.007803337             0.00116276174           
       0.875286             0.00798799185             0.00113180697           
       0.877927             0.00892427598             0.00115437359           
       0.880567             0.00804057577             0.00113519831           
       0.883208              0.0081571787             0.00113262804           
       0.885848              0.0069325199             0.00108414188           
       0.888488             0.00890283683             0.00115233572           
       0.891129             0.00547109027            0.000927542764           
       0.893769              0.0085159033             0.00110748054           
       0.896410             0.00812213285             0.00100840491           
       0.899050             0.00756777766             0.00107045748           
       0.901690             0.00879725626             0.00125719489           
       0.904331             0.00692215463            0.000988679079           
       0.906971             0.00799690982             0.00113049901           
       0.909611             0.00648066029            0.000926430467           
       0.912252             0.00761168205             0.00103704997           
       0.914892             0.00707440305             0.00109254597           
       0.917533             0.00677990215             0.00101180306           
       0.920173             0.00907689114              0.0010861975           
       0.922813             0.00742270838             0.00103075929           
       0.925454             0.00719389594            0.000913752469           
       0.928094             0.00764247622             0.00100546214           
       0.930734              0.0101340473             0.00124651866           
       0.933375             0.00870695743             0.00114406321           
       0.936015             0.00728354032            0.000950333865           
       0.938656             0.00830890603              0.0010888823           
       0.941296             0.00821004816            0.000980939089           
       0.943936             0.00854475398            0.000981375515           
       0.946577             0.00842348267            0.000967944721           
       0.949217             0.00789017158            0.000861474654           
       0.951858             0.00679254959            0.000836718899           
       0.954498             0.00648795585            0.000946523686           
       0.957138              0.0055607203             0.00083015569           
       0.959779             0.00697118151            0.000916291367           
       0.962419             0.00887889965             0.00102721544           
       0.965059             0.00732927586             0.00098156759           
       0.967700             0.00715250731            0.000993122774           
       0.970340             0.00678732011            0.000856086511           
       0.972981             0.00778267473            0.000835212612           
       0.975621             0.00739944256            0.000866369978           
       0.978261             0.00787111093            0.000849035597           
       0.980902             0.00719649433            0.000971321436           
       0.983542             0.00657031254            0.000821894399           
       0.986182             0.00912787191             0.00095110417           
       0.988823             0.00720520948            0.000820515195           
       0.991463             0.00595624886            0.000795924165           
       0.994104              0.0106174301             0.00103664273           
       0.996744             0.00886207873            0.000966015224           
       0.999384             0.00724596261            0.000781203549           
       1.002025              0.0072363858            0.000871349976           
       1.004665             0.00841110882            0.000858510862           
       1.007306             0.00841590874            0.000854360201           
       1.009946             0.00695452724            0.000792072446           
       1.012586             0.00770456437            0.000811965993           
       1.015227             0.00810642229            0.000894765574           
       1.017867             0.00866557076             0.00088909441           
       1.020507             0.00909253982            0.000882170354           
       1.023148             0.00775604975            0.000879149221           
       1.025788             0.00828526355            0.000833158165           
       1.028429             0.00754730623            0.000833091089           
       1.031069             0.00765657493            0.000789625448           
       1.033709             0.00808381225            0.000862474469           
       1.036350             0.00838958858            0.000789134295           
       1.038990             0.00968411354            0.000863413514           
       1.041630             0.00762647311            0.000799170222           
       1.044271             0.00957531162            0.000842162515           
       1.046911             0.00916904531            0.000866848878           
       1.049552             0.00906510364            0.000905557905           
       1.052192             0.00814685307            0.000783891314           
       1.054832             0.00736727029            0.000752223789           
       1.057473             0.00672076803            0.000708250887           
       1.060113               0.008448706            0.000774459113           
       1.062754             0.00760353623            0.000750117759           
       1.065394             0.00793577866            0.000810209995           
       1.068034             0.00897504989             0.00078396596           
       1.070675             0.00835459894             0.00078900006           
       1.073315             0.00943701705            0.000850574679           
       1.075955             0.00804885758            0.000741584247           
       1.078596              0.0084137817            0.000805825856           
       1.081236             0.00763343742            0.000734977485           
       1.083877             0.00861051778            0.000773597611           
       1.086517             0.00821922316            0.000810455549           
       1.089157             0.00904200777            0.000882025723           
       1.091798             0.00851783696             0.00075053793           
       1.094438             0.00965601595            0.000796531565           
       1.097078             0.00900253325            0.000737653647           
       1.099719             0.00927040976            0.000809668994           
       1.102359             0.00862378202            0.000731341564           
       1.105000             0.00899814332            0.000835343935           
       1.107640             0.00871835243            0.000786208687           
       1.110280              0.0103081629             0.00078002377           
       1.112921             0.00749166091            0.000714328477           
       1.115561             0.00901308248            0.000744662433           
       1.118202             0.00783922297            0.000695133647           
       1.120842             0.00856230989            0.000763541531           
       1.123482             0.00890476764            0.000775260221           
       1.126123             0.00855832724            0.000728995967           
       1.128763             0.00841757125             0.00072793329           
       1.131403             0.00893152806            0.000722522518           
       1.134044             0.00916396717            0.000753089633           
       1.136684             0.00950176317            0.000817588639           
       1.139325             0.00816466424             0.00069816056           
       1.141965             0.00965709862            0.000764312745           
       1.144605             0.00839840115            0.000679623081           
       1.147246             0.00787662787               0.000673583           
       1.149886              0.0104300406            0.000772359494           
       1.152527             0.00935203958            0.000741992796           
       1.155167             0.00809059056            0.000656427398           
       1.157807             0.00840049414            0.000717159842           
       1.160448             0.00982642344            0.000757434212           
       1.163088             0.00806988262            0.000654729891           
       1.165728             0.00962259151            0.000734050844           
       1.168369             0.00938977789            0.000731815534           
       1.171009             0.00921691194            0.000703639294           
       1.173650               0.010741091            0.000779524624           
       1.176290             0.00924145562            0.000706594252           
       1.178930              0.0101220561            0.000724770822           
       1.181571             0.00868418464            0.000684634518           
       1.184211             0.00965456638            0.000724432215           
       1.186851             0.00846705903            0.000663279959           
       1.189492             0.00974810644            0.000706901846           
       1.192132             0.00906535194            0.000674048249           
       1.194773             0.00904943035            0.000676398573           
       1.197413             0.00911065138             0.00065027411           
       1.200053              0.0097226829            0.000688829459           
       1.202694             0.00988822732            0.000660590397           
       1.205334             0.00850282666            0.000660157174           
       1.207975             0.00979776168             0.00067642225           
       1.210615              0.0106846085            0.000779248838           
       1.213255             0.00943376026            0.000655682662           
       1.215896             0.00958901032             0.00067303355           
       1.218536              0.0104964736            0.000677080253           
       1.221176               0.010593869            0.000739532469           
       1.223817              0.0104538483            0.000689608669           
       1.226457              0.0098311688            0.000682228164           
       1.229098             0.00918489175            0.000659390871           
       1.231738              0.0107272923            0.000716115648           
       1.234378             0.00950919374            0.000633543165           
       1.237019               0.010700906            0.000692561975           
       1.239659              0.0107026859            0.000686586156           
       1.242299             0.00964017181            0.000643336094           
       1.244940             0.00985311785            0.000632557452           
       1.247580              0.0103933767            0.000669535992           
       1.250221             0.00950023839            0.000636172351           
       1.252861              0.0101083888            0.000624723219           
       1.255501              0.0114799037            0.000722884951           
       1.258142              0.0108415846            0.000660124963           
       1.260782              0.0109476572            0.000677699384           
       1.263423              0.0108461111            0.000648165322           
       1.266063              0.0117159448            0.000690476887           
       1.268703              0.0102226776            0.000639622872           
       1.271344              0.0101380587             0.00065855749           
       1.273984               0.010964213            0.000661444566           
       1.276624               0.010628954            0.000639018576           
       1.279265               0.010945315            0.000659227419           
       1.281905               0.010199607            0.000639198946           
       1.284546              0.0108211275            0.000636389775           
       1.287186             0.00963134129            0.000589042056           
       1.289826              0.0105636541            0.000650154951           
       1.292467              0.0112223482            0.000655358667           
       1.295107              0.0109415347            0.000640679194           
       1.297747             0.00972847022            0.000578093414           
       1.300388               0.011541785            0.000686418576           
       1.303028              0.0104903123            0.000624734489           
       1.305669              0.0101035563            0.000627708721           
       1.308309              0.0110072276            0.000648727075           
       1.310949              0.0104808961            0.000632390866           
       1.313590              0.0105555665            0.000614801459           
       1.316230              0.0107486309            0.000662051276           
       1.318871              0.0111742257            0.000661110064           
       1.321511              0.0109690538            0.000642871727           
       1.324151              0.0108887418            0.000621525066           
       1.326792              0.0107399108            0.000621079012           
       1.329432              0.0101749097            0.000600255575           
       1.332072              0.0114977511            0.000628573896           
       1.334713              0.0107500233            0.000627301105           
       1.337353              0.0110508994            0.000609955007           
       1.339994              0.0108798057             0.00063511267           
       1.342634              0.0117964064            0.000634169329           
       1.345274              0.0110122162            0.000634115912           
       1.347915              0.0116285237            0.000633624388           
       1.350555              0.0110501867            0.000628484728           
       1.353195              0.0100014348            0.000600853905           
       1.355836             0.00977394462            0.000584719142           
       1.358476              0.0110831438            0.000604687498           
       1.361117              0.0110829535            0.000605512306           
       1.363757              0.0115791607            0.000637817329           
       1.366397               0.011125155              0.0006062693           
       1.369038              0.0117275991            0.000628666153           
       1.371678              0.0125014542            0.000643354063           
       1.374319              0.0105689283            0.000586447873           
       1.376959              0.0109590665            0.000591168264           
       1.379599              0.0106004602             0.00062310147           
       1.382240              0.0121654268            0.000627362541           
       1.384880              0.0108354146            0.000627143333           
       1.387520              0.0110382908            0.000601167516           
       1.390161              0.0114430807            0.000581339515           
       1.392801              0.0103531058            0.000576130685           
       1.395442              0.0107765444             0.00059582232           
       1.398082              0.0125550811            0.000602246581           
       1.400722              0.0109007392            0.000587810133           
       1.403363              0.0116925926            0.000640821003           
       1.406003              0.0114096162            0.000592420897           
       1.408644              0.0117973311            0.000631055745           
       1.411284               0.011260547            0.000583801053           
       1.413924              0.0106523102            0.000565710184           
       1.416565              0.0110555203              0.0005740535           
       1.419205              0.0113489833            0.000606725155           
       1.421845              0.0115482132            0.000611668105           
       1.424486              0.0117782603             0.00059378096           
       1.427126              0.0106810226            0.000587390361           
       1.429767              0.0116290925            0.000576669298           
       1.432407              0.0113329239            0.000595763417           
       1.435047             0.00971195179            0.000517962663           
       1.437688               0.010301454            0.000541426936           
       1.440328               0.010552768            0.000559286795           
       1.442968              0.0118470437            0.000605870172           
       1.445609              0.0118721368            0.000587271305           
       1.448249             0.00970267864            0.000544351349           
       1.450890              0.0110621664            0.000577443716           
       1.453530              0.0114225521            0.000613884013           
       1.456170              0.0107697973            0.000578514903           
       1.458811              0.0103777631            0.000543026547           
       1.461451              0.0112366753            0.000566533859           
       1.464092              0.0103787745            0.000548037265           
       1.466732              0.0103482507            0.000542528295           
       1.469372              0.0102531134            0.000527390325           
       1.472013              0.0119855728            0.000614981245           
       1.474653              0.0102723839             0.00056055256           
       1.477293              0.0117319372            0.000611679512           
       1.479934              0.0107330932            0.000558270895           
       1.482574               0.010835429            0.000542608291           
       1.485215              0.0106518088            0.000548011257           
       1.487855              0.0109624927            0.000563279648           
       1.490495              0.0112782923            0.000569231144           
       1.493136              0.0103287015            0.000537274026           
       1.495776              0.0107666286            0.000546048033           
       1.498416              0.0112300722            0.000575921972           
       1.501057              0.0118542317            0.000578669816           
       1.503697              0.0108494207            0.000541233944           
       1.506338             0.00998726638            0.000528773291           
       1.508978              0.0107533462            0.000543282712           
       1.511618              0.0105140564            0.000572119619           
       1.514259              0.0108145416            0.000560192066           
       1.516899              0.0111856449            0.000554720906           
       1.519540              0.0107135402            0.000551642829           
       1.522180             0.00943399321            0.000522200941           
       1.524820              0.0100117808            0.000534936312           
       1.527461             0.00972779862            0.000529902886           
       1.530101             0.00987123975            0.000528456901           
       1.532741             0.00978637224            0.000523126684           
       1.535382              0.0101371507            0.000540990809           
       1.538022              0.0108234813            0.000526611972           
       1.540663             0.00995528711            0.000543212167           
       1.543303              0.0102093348            0.000510776439           
       1.545943              0.0100718375            0.000536966331           
       1.548584              0.0100301464            0.000545472733           
       1.551224              0.0112857489            0.000534977985           
       1.553864              0.0101839374            0.000537000744           
       1.556505             0.00997273079            0.000513349141           
       1.559145             0.00943048513            0.000505313095           
       1.561786             0.00987217316            0.000517409339           
       1.564426              0.0105862261            0.000519129334           
       1.567066             0.00978910546            0.000523068058           
       1.569707             0.00914993322            0.000496619131           
       1.572347              0.0106956008             0.00055470161           
       1.574988              0.0102115958            0.000515898301           
       1.577628             0.00871595273            0.000496999955           
       1.580268              0.0105648337            0.000530159186           
       1.582909             0.00908415281            0.000521082808           
       1.585549             0.00997663339             0.00053022655           
       1.588189             0.00973053535            0.000512217275           
       1.590830             0.00991925784            0.000516511523           
       1.593470              0.0103649773            0.000548894847           
       1.596111             0.00941456438             0.00051073206           
       1.598751             0.00943200742            0.000495340487           
       1.601391              0.0100473861            0.000522523551           
       1.604032             0.00907124253            0.000506871781           
       1.606672             0.00972686774            0.000509960422           
       1.609312             0.00908128817            0.000514369893           
       1.611953             0.00820266331            0.000478374202           
       1.614593             0.00925962649            0.000498564082           
       1.617234             0.00885229061            0.000505207444           
       1.619874             0.00903984736            0.000508514671           
       1.622514             0.00989624148            0.000524798862           
       1.625155             0.00903491866            0.000504403289           
       1.627795             0.00957683883            0.000506586196           
       1.630436             0.00919456283            0.000493780712           
       1.633076             0.00956002239            0.000510101911           
       1.635716             0.00928307068            0.000494837896           
       1.638357             0.00915484965            0.000492703853           
       1.640997             0.00864472711            0.000493283211           
       1.643637              0.0077977967            0.000455900209           
       1.646278             0.00815135743            0.000480766718           
       1.648918             0.00972571043            0.000526578604           
       1.651559             0.00738008462            0.000462264951           
       1.654199             0.00864629565             0.00048663593           
       1.656839              0.0087626135            0.000490069336           
       1.659480             0.00888707608            0.000512070748           
       1.662120             0.00771940919            0.000449487373           
       1.664761              0.0101204587            0.000534605236           
       1.667401             0.00832818735            0.000463520519           
       1.670041             0.00882091261             0.00048430897           
       1.672682             0.00827880394            0.000467262414           
       1.675322             0.00832775267            0.000465628139           
       1.677962             0.00868865031            0.000470363944           
       1.680603             0.00799625052            0.000452621771           
       1.683243             0.00878859453            0.000495070201           
       1.685884             0.00811704715            0.000479293381           
       1.688524             0.00895653476            0.000493736499           
       1.691164              0.0100360933            0.000522764555           
       1.693805              0.0092710828            0.000507965129           
       1.696445             0.00827580878            0.000482709486           
       1.699085             0.00902891426            0.000487300196           
       1.701726             0.00816881508            0.000446510196           
       1.704366             0.00840145412            0.000477037276           
       1.707007             0.00846111851            0.000468056793           
       1.709647             0.00894922307            0.000486804258           
       1.712287             0.00863967215            0.000482474296           
       1.714928             0.00885235666            0.000492314357           
       1.717568             0.00843242087            0.000452628524           
       1.720209             0.00860990845            0.000479060454           
       1.722849             0.00868690366             0.00047872383           
       1.725489             0.00925101425            0.000494437883           
       1.728130             0.00868907071            0.000509239978           
       1.730770             0.00831113252            0.000473006005           
       1.733410             0.00847587129            0.000470162315           
       1.736051             0.00813683102            0.000463869377           
       1.738691             0.00865718547            0.000468772631           
       1.741332             0.00892332193            0.000489839835           
       1.743972             0.00888805908             0.00050484234           
       1.746612             0.00797842533            0.000459301056           
       1.749253             0.00827795689             0.00047708247           
       1.751893             0.00804687234            0.000466923656           
       1.754533             0.00794531424            0.000463534531           
       1.757174             0.00798534827            0.000460349182           
       1.759814             0.00778739564            0.000447716499           
       1.762455             0.00850674589            0.000476530765           
       1.765095             0.00857273858            0.000457624406           
       1.767735             0.00793596659            0.000453883893           
       1.770376             0.00795261938            0.000455557675           
       1.773016             0.00946983289            0.000493788099           
       1.775657             0.00890609834            0.000471974904           
       1.778297             0.00845243391            0.000455837666           
       1.780937             0.00796575948            0.000467079706           
       1.783578             0.00950207347            0.000497381153           
       1.786218             0.00758240767            0.000463683544           
       1.788858             0.00894664901             0.00047836743           
       1.791499             0.00896643367            0.000473517623           
       1.794139             0.00902803798             0.00047128659           
       1.796780             0.00913699928            0.000471836391           
       1.799420             0.00934024012            0.000474413412           
       1.802060             0.00967057042            0.000486628812           
       1.804701             0.00938208066            0.000459972838           
       1.807341             0.00903334815            0.000474263616           
       1.809981             0.00952905974            0.000488726632           
       1.812622             0.00941617747             0.00047707686           
       1.815262             0.00924116738            0.000482662157           
       1.817903             0.00887815797            0.000466077599           
       1.820543             0.00925768365            0.000483351497           
       1.823183             0.00941534293            0.000487181909           
       1.825824             0.00903659149            0.000455976258           
       1.828464             0.00840035941            0.000458334884           
       1.831105             0.00957094638            0.000475702017           
       1.833745              0.0083858686            0.000454788143           
       1.836385             0.00870267818             0.00047652106           
       1.839026             0.00907238326            0.000485000323           
       1.841666              0.0085597414            0.000469427947           
       1.844306             0.00985301787            0.000489901364           
       1.846947             0.00852461806             0.00045967597           
       1.849587             0.00878639745            0.000515328527           
       1.852228             0.00824882668            0.000451504743           
       1.854868             0.00841520562            0.000481733996           
       1.857508             0.00943323556            0.000505038781           
       1.860149             0.00894574097            0.000500751472           
       1.862789             0.00924835325              0.0004914481           
       1.865429             0.00918770356            0.000511311769           
       1.868070             0.00922824454            0.000505608709           
       1.870710             0.00789877924            0.000456988516           
       1.873351             0.00928910915            0.000501704836           
       1.875991             0.00910264649            0.000504749217           
       1.878631             0.00833459426             0.00047373521           
       1.881272             0.00940186795            0.000499782241           
       1.883912             0.00862459352             0.00049816411           
       1.886553             0.00900058605            0.000503217514           
       1.889193             0.00882867066            0.000497536921           
       1.891833             0.00918786956            0.000527118034           
       1.894474             0.00767028587            0.000477427472           
       1.897114             0.00917913482            0.000505398418           
       1.899754             0.00824346701            0.000480951505           
       1.902395             0.00749623995            0.000449669049           
       1.905035             0.00863922853            0.000511297214           
       1.907676             0.00867980398             0.00048302946           
       1.910316             0.00928743127            0.000512917239           
       1.912956              0.0090836092             0.00049609804           
       1.915597             0.00932811396            0.000505540167           
       1.918237             0.00800164307            0.000483555521           
       1.920878             0.00824447164            0.000488828677           
       1.923518             0.00858833464            0.000499130341           
       1.926158             0.00920007929            0.000509897377           
       1.928799             0.00954010453            0.000513224238           
       1.931439             0.00881867973            0.000506380125           
       1.934079              0.0087785409             0.00052668609           
       1.936720             0.00903087727            0.000494953832           
       1.939360             0.00960670674            0.000544621328           
       1.942001             0.00831465052            0.000464393493           
       1.944641             0.00907593569            0.000494744864           
       1.947281             0.00903029024            0.000488950362           
       1.949922             0.00854285604            0.000491222887           
       1.952562             0.00868117905            0.000510705618           
       1.955202              0.0087412331            0.000511844354           
       1.957843             0.00852689548            0.000492420268           
       1.960483             0.00791359193            0.000495964687           
       1.963124             0.00897153559             0.00051724336           
       1.965764             0.00845421975            0.000473503171           
       1.968404             0.00753538763            0.000442808587           
       1.971045             0.00832712585            0.000474592016           
       1.973685             0.00819042988            0.000493708715           
       1.976326             0.00919568684             0.00051594013           
       1.978966             0.00777173655            0.000478476854           
       1.981606             0.00829044418            0.000504492986           
       1.984247              0.0076253661            0.000480653246           
       1.986887             0.00844917404            0.000499890526           
       1.989527             0.00827804711            0.000489473601           
       1.992168             0.00752786763            0.000484311626           
       1.994808             0.00748053991            0.000480717287           
       1.997449              0.0087962775            0.000510576678           
       2.000089             0.00785820442            0.000480670995           
       2.002729             0.00776232633            0.000478016071           
       2.005370             0.00895113286            0.000507793754           
       2.008010             0.00852425046            0.000517164327           
       2.010650             0.00712352414            0.000476295538           
       2.013291             0.00805136944            0.000485829482           
       2.015931             0.00818757271             0.00048645838           
       2.018572             0.00750116917            0.000498025721           
       2.021212              0.0081242336            0.000508984664           
       2.023852             0.00824481949            0.000485291937           
       2.026493             0.00744772074            0.000481844166           
       2.029133             0.00801475327            0.000489791334           
       2.031774             0.00779062419            0.000506786914           
       2.034414             0.00768150968            0.000463037277           
       2.037054             0.00820948263            0.000490818929           
       2.039695             0.00847845945            0.000495027582           
       2.042335             0.00879622145            0.000523993985           
       2.044975             0.00780272769            0.000487531241           
       2.047616             0.00778897339            0.000485891361           
       2.050256             0.00847799678            0.000511724651           
       2.052897             0.00726964723            0.000482591809           
       2.055537             0.00804359577            0.000490606358           
       2.058177             0.00791570994            0.000476601367           
       2.060818             0.00774252668            0.000493784947           
       2.063458              0.0086439906            0.000543704281           
       2.066098              0.0080636547            0.000495378908           
       2.068739             0.00796542498            0.000500005482           
       2.071379             0.00767203304            0.000503508586           
       2.074020             0.00796478892            0.000501875833           
       2.076660             0.00850685802            0.000522866048           
       2.079300             0.00784094022            0.000514283671           
       2.081941             0.00766578947            0.000465596272           
       2.084581             0.00758119287            0.000488722211           
       2.087222             0.00770779829            0.000475245123           
       2.089862             0.00751072251             0.00051095433           
       2.092502             0.00810827891            0.000514623275           
       2.095143             0.00766017925            0.000516532338           
       2.097783             0.00786394214            0.000506697862           
       2.100423             0.00788174867            0.000488802496           
       2.103064             0.00750355133            0.000494880006           
       2.105704             0.00771827828            0.000499424884           
       2.108345             0.00766782602            0.000478242992           
       2.110985             0.00834320667            0.000532818957           
       2.113625             0.00762218132            0.000513719693           
       2.116266             0.00824099392             0.00054174472           
       2.118906             0.00822275342            0.000504316675           
       2.121546             0.00739981507            0.000469280953           
       2.124187             0.00842598093            0.000525647096           
       2.126827             0.00801820534            0.000518492908           
       2.129468             0.00724824589             0.00049422944           
       2.132108             0.00800472761             0.00050531746           
       2.134748             0.00686575793            0.000466172901           
       2.137389             0.00697599641            0.000490222938           
       2.140029             0.00685163597            0.000434947988           
       2.142670             0.00757179782            0.000488657148           
       2.145310             0.00755387169            0.000475055412           
       2.147950              0.0072798873            0.000480012084           
       2.150591             0.00803889706            0.000499317447           
       2.153231             0.00680603709             0.00047291863           
       2.155871              0.0070805529             0.00046599352           
       2.158512             0.00768199011            0.000506461111           
       2.161152             0.00739052828            0.000481193122           
       2.163793             0.00857249613            0.000515912149           
       2.166433              0.0072307999            0.000486565341           
       2.169073             0.00733652097            0.000479197952           
       2.171714              0.0073110942            0.000474790814           
       2.174354             0.00760980452            0.000506145953           
       2.176995             0.00664788191            0.000471085139           
       2.179635             0.00728729159            0.000521193243           
       2.182275             0.00763161606            0.000503580551           
       2.184916             0.00757787162            0.000484677705           
       2.187556             0.00698596733            0.000460699634           
       2.190196              0.0076270352            0.000503029158           
       2.192837             0.00732301141            0.000490219712           
       2.195477             0.00762486422            0.000476901368           
       2.198118             0.00815873404            0.000505954985           
       2.200758             0.00729722941            0.000490909185           
       2.203398             0.00776846574             0.00050975239           
       2.206039             0.00704267588            0.000459348461           
       2.208679             0.00809819404            0.000504032947           
       2.211319             0.00671949389            0.000461774626           
       2.213960             0.00731590262            0.000488287858           
       2.216600             0.00763503429             0.00051602245           
       2.219241             0.00726952654            0.000481228439           
       2.221881             0.00822745329              0.0005130066           
       2.224521              0.0070710219            0.000481416273           
       2.227162             0.00685885049            0.000464645271           
       2.229802              0.0073326537            0.000495465173           
       2.232443             0.00784972616             0.00050455105           
       2.235083             0.00763507857            0.000512282847           
       2.237723             0.00743901568            0.000485256638           
       2.240364             0.00764983811            0.000504207583           
       2.243004             0.00821760003            0.000518412041           
       2.245644               0.007517369            0.000500796107           
       2.248285             0.00780251032            0.000499984631           
       2.250925             0.00665372586            0.000464517538           
       2.253566             0.00763622534            0.000532007599           
       2.256206             0.00687634212            0.000494749616           
       2.258846             0.00726034404            0.000483606522           
       2.261487             0.00751472792            0.000516405677           
       2.264127             0.00762042694            0.000502231691           
       2.266767             0.00777174197            0.000520706487           
       2.269408             0.00697196042            0.000495206199           
       2.272048             0.00852720555            0.000544392153           
       2.274689              0.0072144876            0.000507336689           
       2.277329             0.00796927458            0.000502056935           
       2.279969             0.00792780906            0.000533018726           
       2.282610             0.00731529476            0.000497773444           
       2.285250             0.00810014529             0.00050134399           
       2.287891             0.00707232478            0.000502257531           
       2.290531             0.00670691096            0.000495685053           
       2.293171             0.00664795724             0.00048071529           
       2.295812             0.00762687001            0.000512823319           
       2.298452             0.00705251974            0.000515689254           
       2.301092             0.00713332164            0.000481875651           
       2.303733             0.00838890489            0.000543651896           
       2.306373             0.00764669395            0.000527219321           
       2.309014             0.00803747833            0.000529978851           
       2.311654             0.00708701317            0.000519328858           
       2.314294             0.00718209115             0.00048165836           
       2.316935             0.00759016342            0.000497198451           
       2.319575             0.00748356273            0.000517277709           
       2.322215             0.00710287995            0.000525200188           
       2.324856             0.00733223772            0.000490601251           
       2.327496             0.00697100187            0.000508650553           
       2.330137             0.00672381407            0.000478032866           
       2.332777             0.00758238941            0.000523427485           
       2.335417              0.0076582346            0.000510336332           
       2.338058             0.00710915337             0.00050638919           
       2.340698             0.00691982346             0.00049567458           
       2.343339             0.00697418866            0.000508568436           
       2.345979             0.00714089032            0.000486862571           
       2.348619             0.00716396084              0.0005054737           
       2.351260             0.00679786535            0.000489520108           
       2.353900             0.00750350623            0.000512670635           
       2.356540             0.00790234702            0.000525372623           
       2.359181             0.00682059547            0.000481247917           
       2.361821             0.00717381872            0.000476758077           
       2.364462             0.00663261544            0.000479451853           
       2.367102             0.00812396006            0.000545300529           
       2.369742             0.00767712836            0.000557958673           
       2.372383             0.00758757131            0.000502274693           
       2.375023              0.0065048905            0.000488879861           
       2.377663             0.00694611408            0.000483033998           
       2.380304             0.00698208586            0.000492357965           
       2.382944             0.00772316156            0.000493215241           
       2.385585             0.00767180622            0.000524270739           
       2.388225             0.00799456459            0.000532670535           
       2.390865             0.00713155323            0.000497930909           
       2.393506              0.0069909048             0.00048369541           
       2.396146             0.00731829748            0.000535099398           
       2.398787             0.00650463486            0.000464914194           
       2.401427             0.00792059805            0.000495189455           
       2.404067             0.00653619289            0.000459870519           
       2.406708             0.00787622086            0.000498761251           
       2.409348             0.00642303436            0.000477743364           
       2.411988             0.00727192261            0.000498054875           
       2.414629             0.00664668817            0.000490992067           
       2.417269             0.00790110136            0.000541572713           
       2.419910             0.00717086102            0.000517136513           
       2.422550             0.00844460843            0.000536911229           
       2.425190             0.00779473743            0.000543747296           
       2.427831             0.00678282357            0.000504374843           
       2.430471             0.00729748871            0.000498411347           
       2.433112             0.00652181452            0.000458815506           
       2.435752             0.00766711981            0.000526482325           
       2.438392             0.00733594866            0.000497067171           
       2.441033             0.00634803842            0.000490038516           
       2.443673             0.00739268428            0.000529230995           
       2.446313             0.00701285867            0.000515910635           
       2.448954             0.00735429062            0.000503034815           
       2.451594             0.00712075282            0.000532222783           
       2.454235             0.00819271162            0.000535630594           
       2.456875             0.00704892253            0.000519868354           
       2.459515             0.00721749561            0.000539665864           
       2.462156             0.00845952154            0.000551620816           
       2.464796             0.00750986807            0.000513031846           
       2.467436             0.00759696186            0.000533602689           
       2.470077             0.00739683564            0.000499052459           
       2.472717             0.00828013231            0.000530296868           
       2.475358             0.00768788515             0.00051630798           
       2.477998             0.00687080938            0.000479871924           
       2.480638             0.00807166962            0.000529361472           
       2.483279             0.00754656477             0.00053496803           
       2.485919              0.0066183091            0.000482815789           
       2.488560             0.00685975422            0.000490170345           
       2.491200             0.00612252427            0.000476852202           
       2.493840             0.00760867874            0.000562487115           
       2.496481             0.00675425368            0.000521295269           
       2.499121             0.00707722107            0.000519023959           
       2.501761             0.00719108973            0.000530114615           
       2.504402             0.00663386612            0.000501722931           
       2.507042             0.00692175517            0.000508697402           
       2.509683             0.00731757656            0.000515046281           
       2.512323             0.00719174425            0.000536255524           
       2.514963             0.00729187675            0.000533304717           
       2.517604              0.0079427808            0.000577556573           
       2.520244             0.00708158798            0.000511264564           
       2.522884             0.00758417129            0.000536662515           
       2.525525              0.0140120671            0.000737734108           
       2.528165             0.00846154984            0.000564352889           
       2.530806             0.00759034205            0.000543827428           
       2.533446             0.00813082671            0.000550842831           
       2.536086               0.006999711            0.000506519072           
       2.538727             0.00739232495            0.000499369998           
       2.541367             0.00703349727            0.000491897547           
       2.544008               0.006846656             0.00050121716           
       2.546648             0.00686866249            0.000510633046           
       2.549288             0.00706195429            0.000528318045           
       2.551929             0.00752553677            0.000536689679           
       2.554569             0.00721214169            0.000506174914           
       2.557209             0.00755826962            0.000522937688           
       2.559850             0.00720000954            0.000512032663           
       2.562490             0.00653447868            0.000504161463           
       2.565131             0.00669384964            0.000529073488           
       2.567771             0.00625092254            0.000492940784           
       2.570411             0.00688728766            0.000511825818           
       2.573052             0.00721555225            0.000530478818           
       2.575692             0.00778523394            0.000547685482           
       2.578332             0.00703209222            0.000522672789           
       2.580973             0.00744557164            0.000532702435           
       2.583613             0.00656763357            0.000488398197           
       2.586254             0.00652129399            0.000485995781           
       2.588894             0.00636152247            0.000498462718           
       2.591534              0.0064039935             0.00051772206           
       2.594175              0.0067998864            0.000523417661           
       2.596815             0.00652125885            0.000515604206           
       2.599456             0.00656820797            0.000490701971           
       2.602096             0.00695598591            0.000508822502           
       2.604736             0.00639833091             0.00049957211           
       2.607377             0.00697648176            0.000507907328           
       2.610017              0.0069839485            0.000499286103           
       2.612657             0.00674402166            0.000521864204           
       2.615298             0.00700294547            0.000519192226           
       2.617938             0.00563397214            0.000498167274           
       2.620579             0.00710272847            0.000536966393           
       2.623219             0.00770571235            0.000558497687           
       2.625859             0.00696644277            0.000516311848           
       2.628500             0.00652930133            0.000496573925           
       2.631140             0.00633536191            0.000496680349           
       2.633780             0.00699918015            0.000521599473           
       2.636421               0.007331466             0.00054696545           
       2.639061             0.00798940214             0.00053751294           
       2.641702             0.00744084499            0.000530740809           
       2.644342             0.00694894376            0.000515083143           
       2.646982             0.00729769552            0.000519959103           
       2.649623             0.00768523379            0.000559177259           
       2.652263             0.00733244684            0.000540711091           
       2.654904              0.0067857736             0.00052068755           
       2.657544             0.00690538529            0.000494737178           
       2.660184             0.00730021191            0.000538336106           
       2.662825             0.00668499445            0.000527104548           
       2.665465             0.00754097006            0.000541452405           
       2.668105             0.00725349413            0.000559727593           
       2.670746             0.00704215199            0.000509480434           
       2.673386             0.00828459631            0.000569498087           
       2.676027             0.00998291034            0.000615118125           
       2.678667             0.00966419635            0.000590542798           
       2.681307              0.0117005509            0.000638453628           
       2.683948              0.0120038049            0.000664427973           
       2.686588             0.00997572246            0.000595659497           
       2.689229              0.0115290752            0.000625731772           
       2.691869             0.00987843038            0.000612165813           
       2.694509              0.0094564347            0.000599276695           
       2.697150             0.00675846754            0.000498406862           
       2.699790             0.00689427996             0.00052773182           
       2.702430             0.00676636742             0.00049974665           
       2.705071             0.00691957192            0.000522207235           
       2.707711             0.00571864269            0.000460764303           
       2.710352             0.00708251894            0.000541810185           
       2.712992             0.00657617845            0.000531736983           
       2.715632             0.00643977873            0.000488203247           
       2.718273             0.00758016144            0.000548930459           
       2.720913             0.00801009677            0.000562677453           
       2.723553             0.00693666611            0.000527132993           
       2.726194             0.00849007992             0.00060961262           
       2.728834             0.00809725622            0.000595621973           
       2.731475             0.00813049686            0.000550834019           
       2.734115             0.00812037122            0.000567575633           
       2.736755             0.00649065736             0.00051161127           
       2.739396             0.00743912065             0.00054454404           
       2.742036             0.00759701879            0.000575916325           
       2.744677             0.00735364835            0.000549774203           
       2.747317              0.0076974531            0.000558468293           
       2.749957             0.00763547091            0.000560118696           
       2.752598             0.00717125424            0.000548715878           
       2.755238             0.00721342537             0.00056026154           
       2.757878             0.00773634489            0.000575140713           
       2.760519             0.00777411976            0.000570429925           
       2.763159             0.00754011015            0.000556165048           
       2.765800             0.00793867915            0.000543844529           
       2.768440             0.00877393154             0.00057595086           
       2.771080             0.00756101969            0.000539123857           
       2.773721             0.00751834643             0.00055146839           
       2.776361             0.00768957489            0.000565407014           
       2.779001             0.00698567667             0.00055809337           
       2.781642             0.00741326401            0.000570683042           
       2.784282             0.00742509732            0.000580530098           
       2.786923             0.00530906481            0.000495210465           
       2.789563             0.00735886357            0.000561520258           
       2.792203             0.00753618184            0.000542836386           
       2.794844             0.00721872815            0.000582274393           
       2.797484             0.00634463949            0.000515181856           
       2.800125             0.00720995032            0.000577474276           
       2.802765             0.00705199401             0.00056128848           
       2.805405               0.007245658            0.000570869069           
       2.808046             0.00753305474            0.000592313345           
       2.810686             0.00691611946            0.000521504129           
       2.813326             0.00763357422            0.000569102701           
       2.815967             0.00698933256            0.000560041858           
       2.818607             0.00792612367            0.000569123099           
       2.821248             0.00634412324            0.000498597762           
       2.823888             0.00657629689            0.000526942446           
       2.826528             0.00726822341            0.000536493024           
       2.829169             0.00667779569            0.000538638388           
       2.831809             0.00742287051              0.0005756178           
       2.834449             0.00713454096            0.000567893984           
       2.837090             0.00670257131            0.000531631603           
       2.839730             0.00685594195            0.000535054504           
       2.842371              0.0074521242            0.000558638475           
       2.845011             0.00756999166            0.000567527008           
       2.847651             0.00674049742             0.00053618895           
       2.850292             0.00674095138            0.000541469413           
       2.852932             0.00607495114            0.000525227908           
       2.855573             0.00707887777            0.000549975021           
       2.858213             0.00702166289            0.000575201758           
       2.860853             0.00716605165            0.000540543192           
       2.863494             0.00635954398            0.000527223798           
       2.866134             0.00670192539            0.000562541432           
       2.868774             0.00641643384            0.000540959221           
       2.871415             0.00455928507            0.000463104142           
       2.874055             0.00717790186            0.000555431429           
       2.876696             0.00685208275            0.000557357674           
       2.879336             0.00729686088            0.000554346267           
       2.881976             0.00734264823            0.000573561063           
       2.884617              0.0075104134            0.000571557127           
       2.887257             0.00746470709             0.00057275644           
       2.889897             0.00644480315            0.000521239062           
       2.892538             0.00678085465            0.000585717461           
       2.895178             0.00718335612            0.000544635291           
       2.897819             0.00702984593            0.000549611539           
       2.900459             0.00677928543            0.000529228523           
       2.903099              0.0071575923            0.000538228086           
       2.905740             0.00720624035            0.000554026473           
       2.908380             0.00753674745            0.000573026749           
       2.911021             0.00756344324            0.000583373681           
       2.913661             0.00742056492            0.000577664141           
       2.916301             0.00820155303            0.000607881514           
       2.918942             0.00730741203             0.00054884388           
       2.921582             0.00813033848            0.000605720993           
       2.924222             0.00596911135            0.000502817891           
       2.926863             0.00666355212             0.00055337073           
       2.929503             0.00648882937            0.000552537164           
       2.932144             0.00580174919             0.00050153513           
       2.934784             0.00691483551            0.000538558141           
       2.937424             0.00633560082            0.000520800815           
       2.940065             0.00626829677            0.000494148963           
       2.942705              0.0071942434            0.000528725765           
       2.945346             0.00823715757            0.000600406743           
       2.947986             0.00691784521             0.00056104164           
       2.950626             0.00634002232            0.000534075833           
       2.953267             0.00697309543            0.000551056327           
       2.955907             0.00659840605            0.000556074886           
       2.958547             0.00684968386            0.000534865545           
       2.961188             0.00817717685            0.000609693559           
       2.963828             0.00723380677            0.000560937274           
       2.966469             0.00653175453            0.000522893509           
       2.969109             0.00759446466            0.000572182324           
       2.971749             0.00667875979            0.000533231752           
       2.974390             0.00662336474            0.000521820178           
       2.977030             0.00735616012            0.000562219578           
       2.979670              0.0084944703            0.000587657274           
       2.982311             0.00907390119            0.000629507938           
       2.984951              0.0071866224            0.000532828313           
       2.987592             0.00719967128            0.000543993621           
       2.990232             0.00761208917            0.000581725696           
       2.992872             0.00810488508            0.000565411441           
       2.995513             0.00891373908             0.00058010434           
       2.998153               0.013377271            0.000722596742           
       3.000794              0.0121182912              0.0006661601           
       3.003434             0.00907245257            0.000577265384           
       3.006074              0.0249455753            0.000943799679           
       3.008715              0.0886172665             0.00171715955           
       3.011355               0.244137293             0.00274847048           
       3.013995               0.164191532             0.00226010905           
       3.016636              0.0929719462             0.00166539694           
       3.019276               0.141609194             0.00202037531           
       3.021917               0.515916778             0.00370806505           
       3.024557                1.25939704             0.00569598491           
       3.027197                 1.0959152              0.0051803266           
       3.029838               0.625282385             0.00396847603           
       3.032478               0.262945513             0.00257608331           
       3.035118              0.0713525483             0.00135993939           
       3.037759              0.0755429457             0.00139749759           
       3.040399               0.100868881             0.00166576015           
       3.043040               0.378781739             0.00326752808           
       3.045680                0.39175634             0.00312648958           
       3.048320               0.120068256             0.00176852106           
       3.050961               0.138243384             0.00193109681           
       3.053601               0.110036746             0.00165932592           
       3.056242               0.100034701             0.00168212484           
       3.058882               0.112071731              0.0019098992           
       3.061522              0.0936405331             0.00171283735           
       3.064163               0.107482183             0.00181196119           
       3.066803               0.174821089                0.00243286           
       3.069443              0.0994109701             0.00191944378           
       3.072084              0.0416721201             0.00121009919           
       3.074724              0.0426112082             0.00136654669           
       3.077365              0.0310190754             0.00120695356           
       3.080005               0.011067422            0.000725025609           
       3.082645              0.0153913517            0.000898202402           
       3.085286              0.0135159195            0.000848343267           
       3.087926              0.0109163652            0.000756532699           
       3.090566             0.00996034727            0.000708054116           
       3.093207              0.0120844608            0.000811574001           
       3.095847             0.00932496872            0.000683318767           
       3.098488             0.00780437684            0.000693159674           
       3.101128              0.0101605223             0.00079598747           
       3.103768             0.00857820705            0.000717625761           
       3.106409             0.00836910683            0.000754380965           
       3.109049             0.00837363689            0.000724137955           
       3.111690             0.00875128802            0.000727578788           
       3.114330             0.00913671753            0.000759243555           
       3.116970             0.00794810201            0.000713574191           
       3.119611              0.0099138005            0.000848293735           
       3.122251              0.0170265997             0.00116288229           
       3.124891              0.0369732961             0.00172958728           
       3.127532               0.028069312             0.00147428817           
       3.130172              0.0168285662             0.00116126223           
       3.132813              0.0102109874            0.000890514756           
       3.135453             0.00655081488            0.000707396213           
       3.138093             0.00698988682            0.000791759415           
       3.140734             0.00772423116            0.000767871259           
       3.143374             0.00766924651            0.000809161973           
       3.146014             0.00582054687            0.000758880585           
       3.148655             0.00657047962             0.00074951916           
       3.151295             0.00631378851            0.000782972268           
       3.153936             0.00597434983            0.000735716096           
       3.156576              0.0055436053            0.000699058065           
       3.159216             0.00631191327            0.000749660192           
       3.161857             0.00579767109            0.000715549423           
       3.164497              0.0075100914            0.000855695195           
       3.167138             0.00790014678            0.000906811416           
       3.169778             0.00632880369             0.00079824904           
       3.172418             0.00622624685            0.000783701471           
       3.175059             0.00619212261            0.000692877959           
       3.177699             0.00511690797            0.000666978641           
       3.180339             0.00638936434            0.000798541876           
       3.182980             0.00575432912            0.000783509156           
       3.185620             0.00564993731            0.000790666383           
       3.188261             0.00526733338            0.000777049472           
       3.190901             0.00553072609            0.000732310299           
       3.193541             0.00683703812             0.00085554157           
       3.196182             0.00535399045            0.000788993482           
       3.198822             0.00627073765            0.000854160483           
       3.201463             0.00707396368            0.000891587733           
       3.204103             0.00644641903            0.000845943909           
       3.206743             0.00700416991            0.000881698035           
       3.209384             0.00477771025            0.000786759311           
       3.212024             0.00664660302            0.000865154943           
       3.214664             0.00568328329            0.000909721708           
       3.217305             0.00457548168            0.000775909366           
       3.219945             0.00654294893            0.000955000606           
       3.222586             0.00760766144            0.000980843863           
       3.225226             0.00763580219             0.00109010406           
       3.227866             0.00441618179            0.000757714353           
       3.230507             0.00542915095            0.000870889518           
       3.233147             0.00611140362            0.000931451768           
       3.235787             0.00710831804             0.00102803556           
       3.238428             0.00552159067            0.000977753081           
       3.241068             0.00510841769             0.00087937675           
       3.243709             0.00517433683            0.000914379001           
       3.246349             0.00483534683            0.000805775031           
       3.248989             0.00674263865              0.0011235255           
       3.251630             0.00468352099            0.000901712754           
       3.254270             0.00693364359            0.000980547205           
       3.256911              0.0065963818             0.00104354112           
       3.259551             0.00609560513             0.00107997847           
       3.262191             0.00635073918              0.0011259937           
       3.264832             0.00740785932             0.00127064493           
       3.267472             0.00591457347              0.0010651044           
       3.270112             0.00560619984             0.00114598019           
       3.272753             0.00569031131             0.00105678252           
       3.275393             0.00531238959             0.00104186402           
       3.278034             0.00450074325            0.000959516934           
       3.280674             0.00456993329             0.00104918184           
       3.283314             0.00674855182               0.001140278           
       3.285955             0.00615696873             0.00112376683           
       3.288595             0.00686326622             0.00131999655           
       3.291235             0.00427988206             0.00107155082           
       3.293876              0.0060339502             0.00129060724           
       3.296516             0.00658977328             0.00129482135           
       3.299157              0.0086635265             0.00146598802           
       3.301797             0.00712430735              0.0015164219           
       3.304437             0.00485506784             0.00108456418           
       3.307078             0.00465450838              0.0011697776           
       3.309718             0.00817062242             0.00159973948           
       3.312359             0.00565558542             0.00133126229           
       3.314999             0.00545631926             0.00128743869           
       3.317639             0.00614189048             0.00130634197           
       3.320280             0.00874298199             0.00165711714           
       3.322920             0.00552914316             0.00133998858           
       3.325560             0.00545444993             0.00133181104           
       3.328201             0.00762175542             0.00141787021           
       3.330841             0.00548338875             0.00146368081           
       3.333482             0.00628470244             0.00148115845           
       3.336122             0.00555929982             0.00139369839           
       3.338762             0.00324453994             0.00122991622           
       3.341403             0.00546693259             0.00152552631           
       3.344043             0.00700477601              0.0016578816           
       3.346683             0.00654925753             0.00163660353           
       3.349324             0.00779907263             0.00200799374           
       3.351964             0.00633521304             0.00191375589           
       3.354605             0.00530371599             0.00200258183           
       3.357245             0.00368802525             0.00150645042           
       3.359885             0.00592066163             0.00152766663           
       3.362526             0.00675384355             0.00204040887           
       3.365166             0.00438993767             0.00155157122           
       3.367807             0.00446260344             0.00200206276           
       3.370447             0.00614158557             0.00194826226           
       3.373087             0.00633331231             0.00211567947           
       3.375728              0.0089842742             0.00284390542           
       3.378368             0.00601681105             0.00345403501           
       3.381008             0.00663773962             0.00270477903           
       3.383649             0.00852356623             0.00245876382           
       3.386289             0.00698157203             0.00263368177           
       3.388930           -2.65598985e-05                         0           
       3.391570             0.00240720581             0.00173041033           
       3.394210             0.00600522571             0.00345881333           
       3.396851             0.00495676824              0.0035150828           
       3.399491             0.00978487412             0.00494010256           
       3.402131             0.00493018008             0.00496119416           
       3.404772           -2.66842893e-05                         0           
       3.407412                       nan                       nan           
       3.410053              0.0374696481              0.0193708463           
       3.412693                       nan                       nan           
       3.415333             0.00908099373             0.00954531015           
