################################################################################
# EDF_DataBlockID                     0.Image.Psd
# EDF_BinarySize                      4366944
# EDF_HeaderSize                      2560
# ByteOrder                           LowByteFirst
# DataType                            FloatValue
# Dim_1                               1028
# Dim_2                               1062
# Image                               0
# HeaderID                            EH:000000:000000:000000
# Size                                4366944
# Center_1                            607.5200
# Center_2                            651.5500
# Comment                             Xenocs_Cell_Window - 20251028_20perc_iodine_1.23mg
# DDummy                              0.6
# Date                                2025-10-31T10:07:19
# Delta                               0
# Dummy                               -1.5
# ExposureTime                        360
# Gamma                               0
# Intensity1                          8.52069e-10
# PSize_1                             7.5e-05
# PSize_2                             7.5e-05
# Pressure                            0.032793
# SampleDistance                      0.450002
# SampleEnvKind                       large
# SampleEnvPN                         ElectroChemical cell
# SampleEnvSN                         1141
# Thickness                           0
# Wavelength                          1.541891e-10
# Wavelength                          1.54189e-10
# aux                                 0
# aux_dial                            0.002375
# beamx                               588.434
# beamx_dial                          588.434
# beamz                               657.808
# beamz_dial                          657.808
# det0x                               0
# det0x_dial                          6.36945
# det0xvd                             0
# det0xvd_dial                        0
# det0y                               450.002
# det0y_dial                          481.635
# det0z                               0
# det0z_dial                          1.23302
# det0zvd                             0
# det0zvd_dial                        0
# mag                                 1.818
# mag_dial                            1.818
# om                                  0.2499
# om_dial                             -0.610199
# phi                                 -0.0120535
# phi_dial                            0
# ry                                  0.599993
# ry_dial                             0.599993
# s1bot                               0.8
# s1bot_dial                          -1.66094
# s1hl                                0.8
# s1hl_dial                           -0.608437
# s1hr                                0.8
# s1hr_dial                           0.970938
# s1top                               0.8
# s1top_dial                          -0.461562
# s2bot                               0.45
# s2bot_dial                          1.36109
# s2hl                                0.45
# s2hl_dial                           -0.83375
# s2hr                                0.45
# s2hr_dial                           -0.118594
# s2top                               0.45
# s2top_dial                          1.44734
# w2theta                             32
# w2theta_dial                        32
# waxsch                              19.2605
# waxsch_dial                         -32.7355
# waxsh                               137.085
# waxsh_dial                          -43.5338
# waxsth                              26.0607
# waxsth_dial                         -19.4086
# waxsz                               67.0407
# waxsz_dial                          -23.7954
# wind                                65.9854
# wind_dial                           66.0041
# wpsi                                124
# wpsi_dial                           124
# wstod                               115
# wstod_dial                          115
# x                                   0
# x_dial                              1.00969
# z                                   0
# z_dial                              13.3172
# CountCutoff                         15302352
# DetectorModel                       Dectris EIGER2 Si 1M, S/N E-02-0362
# ThresholdSetting                    4023.88989258
# Saturation                          0
# FlatField                           Corrected
# BackgroundReductionExtra            0.02
# BackgroundCorrectionConstant        0.0026712
# Detector                            0
# Monitor                             0
# Pil_Roi0                            0
# SumForIntensity1                    3.06745e+08
# TransmittedFlux                     852069
# det                                 0
# mon                                 0
# pilai0                              3.06745e+08
# pilai1                              783367
# pilct0                              5.31046e+08
# pilct1                              783367
# pilroi0                             0
# pilroi1                             0
# sec                                 1
# title                               20251028_20perc_iodine_1.23mg_0_00616.edf
# usaxs0                              0
# Operation                           Azimuthal average I(q)
# Error_model                         ErrorModel.poisson
# Geometrical_correction              True
# Transmission_correction             True
# Thickness_correction                False
# Binning mode                        Uniform
# Binning factor                      1.0
# Psi                                 0.0
# Omega                               0.2499
# MaskInvalidPixels                   True
# DetectorEdge                        3
# MaskFiles                           ['20251028_20perc_iodine_1.23mg_0_00012_mask.edf']
################################################################################
    q(A⁻¹)                Intensity(a.u.)            Sigma_I(a.u.)            
       0.000340                371580.712                 120.56757           
       0.001019                359195.297                72.5913536           
       0.001698                349796.067                50.6538048           
       0.002377                330805.127                44.0591152           
       0.003056                308017.305                35.9313279           
       0.003735                253486.031                 28.746871           
       0.004415                205132.185                25.8601221           
       0.005094                153132.236                19.3498559           
       0.005773                101179.219                14.5618596           
       0.006452                59032.1033                10.6572357           
       0.007131                32348.3594                7.64249194           
       0.007810                16131.8298                5.35593843           
       0.008490                8043.28847                3.35230192           
       0.009169                3836.63536                2.28819075           
       0.009848                1179.51935                1.22666244           
       0.010527                456.699668               0.763287486           
       0.011206                115.283619               0.366007602           
       0.011885                54.0577623               0.232864563           
       0.012564                24.7571963               0.161791935           
       0.013244                16.6629421               0.124091478           
       0.013923                 12.449762               0.108992421           
       0.014602                 9.4203767               0.087929547           
       0.015281                7.35217255              0.0790746759           
       0.015960                6.04290716               0.071175162           
       0.016639                4.84928287              0.0602086491           
       0.017319                4.05081293              0.0541731382           
       0.017998                3.40990827              0.0475505575           
       0.018677                3.02012709              0.0463491766           
       0.019356                2.40161872              0.0408395124           
       0.020035                2.17653371              0.0364757706           
       0.020714                 1.8139122              0.0336513229           
       0.021394                1.61935568               0.030083959           
       0.022073                1.40677586               0.029173308           
       0.022752                1.27607534              0.0265793838           
       0.023431                1.13002516              0.0242788494           
       0.024110               0.990514146              0.0236985129           
       0.024789               0.920958666              0.0212222302           
       0.025469               0.803999922              0.0204338888           
       0.026148               0.715652958              0.0181137843           
       0.026827               0.667869596              0.0177786449           
       0.027506               0.598507981              0.0170728419           
       0.028185                0.53878619              0.0154477555           
       0.028864               0.505539331              0.0148795892           
       0.029544               0.479652026              0.0140547256           
       0.030223               0.445325211              0.0137366623           
       0.030902               0.390175282              0.0129756369           
       0.031581               0.340026701              0.0115148251           
       0.032260               0.323550936              0.0114237784           
       0.032939               0.315318872              0.0108739822           
       0.033619               0.288596394               0.010555902           
       0.034298                0.26958032             0.00992839792           
       0.034977               0.245969742             0.00929728497           
       0.035656               0.219900614             0.00902345932           
       0.036335               0.216499437             0.00868368077           
       0.037014               0.208700601             0.00855127415           
       0.037693               0.183309255             0.00770957259           
       0.038373               0.185425859             0.00783004735           
       0.039052                 0.1614791             0.00733806016           
       0.039731               0.160462896             0.00714446321           
       0.040410               0.157686382             0.00703489858           
       0.041089               0.149513925             0.00674287036           
       0.041768               0.146523979             0.00670998289           
       0.042448                0.14254555             0.00656690644           
       0.043127               0.128390302              0.0060851306           
       0.043806               0.124690149             0.00604151766           
       0.044485               0.125448561             0.00593537334           
       0.045164               0.118882965              0.0058918449           
       0.045843               0.112196574             0.00548977843           
       0.046523               0.112169527             0.00550807137           
       0.047202               0.106429079             0.00540277018           
       0.047881                0.09367351             0.00497093257           
       0.048560              0.0971979028             0.00510973621           
       0.049239               0.102527199              0.0050389778           
       0.049918              0.0935042243             0.00490621519           
       0.050598              0.0884131086              0.0046992023           
       0.051277              0.0806577412             0.00447412949           
       0.051956              0.0827437036             0.00450315801           
       0.052635              0.0870741045             0.00452145674           
       0.053314               0.077533722             0.00439131495           
       0.053993              0.0695459465             0.00404489559           
       0.054673              0.0815734767             0.00428314107           
       0.055352              0.0837801863             0.00440444618           
       0.056031              0.0749446554             0.00407820087           
       0.056710              0.0641662323             0.00386603342           
       0.057389               0.068386921             0.00384871718           
       0.058068              0.0686717341             0.00389647968           
       0.058748               0.065749401             0.00386023054           
       0.059427              0.0645709158             0.00376071014           
       0.060106              0.0545795456             0.00349025739           
       0.060785              0.0570102533              0.0034602508           
       0.061464              0.0586939684             0.00359560327           
       0.062143              0.0610676389              0.0036303323           
       0.062822              0.0546888881             0.00339518839           
       0.063502              0.0634567583             0.00365070431           
       0.064181              0.0563535208             0.00340398633           
       0.064860              0.0522754457             0.00332844232           
       0.065539              0.0478225451             0.00315239677           
       0.066218              0.0560725211             0.00334040826           
       0.066897              0.0545964225             0.00332159234           
       0.067577              0.0459750703               0.003077357           
       0.068256              0.0473214054              0.0031987833           
       0.068935              0.0446168698             0.00305580656           
       0.069614              0.0463540496             0.00314573468           
       0.070293              0.0400201509             0.00294987717           
       0.070972              0.0388813086              0.0028863133           
       0.071652              0.0456331829             0.00313263125           
       0.072331              0.0394922863             0.00286229952           
       0.073010              0.0443087473             0.00310109595           
       0.073689              0.0472100472              0.0031834248           
       0.074368              0.0336484883             0.00268268448           
       0.075047              0.0396165963             0.00287959983           
       0.075727              0.0403657031             0.00288874439           
       0.076406              0.0398249881             0.00292658102           
       0.077085              0.0360795416             0.00273350615           
       0.077764              0.0391070641              0.0028359117           
       0.078443              0.0317164115             0.00256973128           
       0.079122              0.0387871572             0.00281447489           
       0.079802              0.0377677501             0.00280669863           
       0.080481              0.0370118096              0.0026847452           
       0.081160              0.0381715976             0.00278243243           
       0.081839              0.0371433766             0.00270076012           
       0.082518              0.0399769446             0.00280424353           
       0.083197               0.034907755              0.0025797101           
       0.083876              0.0387897807             0.00267418533           
       0.084556              0.0333156349             0.00254724196           
       0.085235              0.0333612352             0.00249973719           
       0.085914              0.0313550353             0.00244695182           
       0.086593              0.0347117859             0.00255803257           
       0.087272              0.0300656847             0.00234703989           
       0.087951              0.0360588391             0.00262840266           
       0.088631              0.0302266601             0.00232450791           
       0.089310              0.0309363832             0.00240151619           
       0.089989              0.0271415118             0.00222310811           
       0.090668              0.0281304038             0.00228822705           
       0.091347              0.0312681857             0.00242598012           
       0.092026              0.0347512245             0.00244458624           
       0.092706              0.0341872875             0.00251267851           
       0.093385              0.0262869764             0.00216947188           
       0.094064              0.0284287678             0.00228238079           
       0.094743              0.0294842745             0.00228894364           
       0.095422              0.0305443353             0.00230374898           
       0.096101              0.0266333995             0.00219551636           
       0.096781              0.0257274628             0.00212695608           
       0.097460              0.0331913439             0.00234996244           
       0.098139              0.0297249725             0.00220675753           
       0.098818              0.0269128657             0.00207392183           
       0.099497              0.0270936653             0.00208514879           
       0.100176              0.0304971239             0.00215418087           
       0.100856              0.0284881568             0.00208068585           
       0.101535              0.0295505163             0.00211503943           
       0.102214              0.0259458195             0.00198185701           
       0.102893              0.0312969356             0.00215185429           
       0.103572              0.0272086506             0.00197675031           
       0.104251              0.0250970098             0.00190550779           
       0.104931              0.0305328637             0.00208262733           
       0.105610              0.0248096738              0.0018853281           
       0.106289              0.0260935475              0.0019013182           
       0.106968              0.0258004505             0.00189622063           
       0.107647              0.0242052965             0.00183776935           
       0.108326              0.0280110857             0.00195052546           
       0.109005               0.022975488             0.00175540744           
       0.109685               0.022436788             0.00171524793           
       0.110364              0.0250080614             0.00183143482           
       0.111043              0.0214554682             0.00168964348           
       0.111722              0.0254618704             0.00181815226           
       0.112401              0.0244080991             0.00178508172           
       0.113080               0.024615627              0.0017721115           
       0.113760              0.0220445505             0.00170502282           
       0.114439              0.0235603517             0.00173751141           
       0.115118              0.0230100547             0.00170415271           
       0.115797              0.0207351646             0.00163270699           
       0.116476              0.0224792557             0.00167454264           
       0.117155              0.0238479801             0.00173868037           
       0.117835              0.0238659024             0.00170475605           
       0.118514              0.0235039909             0.00171323179           
       0.119193              0.0226242416             0.00168087518           
       0.119872              0.0227879473             0.00166584799           
       0.120551              0.0229293201              0.0016598766           
       0.121230              0.0222459814             0.00161850266           
       0.121910              0.0231570747              0.0016672728           
       0.122589              0.0217728942             0.00161834157           
       0.123268               0.020456837             0.00153827876           
       0.123947              0.0222811184             0.00161578656           
       0.124626              0.0213625691             0.00156278582           
       0.125305                0.02056984             0.00154104095           
       0.125985              0.0202073364             0.00151554982           
       0.126664              0.0207052539             0.00151949512           
       0.127343              0.0206421919             0.00153476547           
       0.128022              0.0234619648             0.00162368742           
       0.128701              0.0193341335             0.00146627137           
       0.129380              0.0201531275             0.00147825563           
       0.130059              0.0192523855             0.00144819821           
       0.130739              0.0233862552             0.00160734633           
       0.131418              0.0200959451             0.00148581835           
       0.132097               0.019341772             0.00143897704           
       0.132776              0.0259619852             0.00165962337           
       0.133455              0.0211034276             0.00150791948           
       0.134134              0.0212744783             0.00150919677           
       0.134814              0.0211903891             0.00149069162           
       0.135493               0.019435329             0.00143340302           
       0.136172              0.0177645781             0.00136006245           
       0.136851              0.0189349998             0.00141231818           
       0.137530                0.01844259             0.00136071819           
       0.138209               0.019904188             0.00143020605           
       0.138889              0.0209035792             0.00147213242           
       0.139568               0.020258661             0.00144861901           
       0.140247              0.0207229877             0.00146320604           
       0.140926              0.0188550026              0.0013557945           
       0.141605               0.019862631             0.00142690382           
       0.142284               0.020763136             0.00143471598           
       0.142964              0.0159431515             0.00126201485           
       0.143643              0.0190039851             0.00137610238           
       0.144322              0.0182904307             0.00132177094           
       0.145001              0.0199734584             0.00140959713           
       0.145680               0.019860346             0.00137234575           
       0.146359              0.0202922386             0.00139226163           
       0.147039              0.0203694476              0.0014063919           
       0.147718              0.0179901062             0.00129989243           
       0.148397              0.0202057776             0.00139902375           
       0.149076              0.0192691467             0.00132383118           
       0.149755               0.016164692              0.0012312312           
       0.150434              0.0185332321             0.00131889037           
       0.151114              0.0201654901             0.00136813425           
       0.151793              0.0164958843              0.0012374172           
       0.152472              0.0170401285              0.0012354489           
       0.153151              0.0174783925             0.00126333239           
       0.153830               0.020637406             0.00136275778           
       0.154509              0.0189434023             0.00130018247           
       0.155188               0.019009985             0.00130198402           
       0.155868                0.01989058              0.0013223212           
       0.156547              0.0183830225             0.00127938861           
       0.157226              0.0190788723             0.00127154356           
       0.157905              0.0178235948             0.00123932497           
       0.158584              0.0162418008              0.0011809049           
       0.159263              0.0202520275             0.00132350969           
       0.159943               0.017414954             0.00122822468           
       0.160622              0.0176901501              0.0012140015           
       0.161301              0.0194997302             0.00129162982           
       0.161980              0.0160612877             0.00115230427           
       0.162659              0.0178450309             0.00122806911           
       0.163338              0.0181975364             0.00123003138           
       0.164018              0.0184892636             0.00123334413           
       0.164697              0.0156262838             0.00114840033           
       0.165376               0.016856246             0.00116668038           
       0.166055              0.0148029721               0.001100527           
       0.166734              0.0190704111             0.00124353056           
       0.167413              0.0154282899             0.00111928141           
       0.168093              0.0173841071             0.00119934855           
       0.168772              0.0193978007             0.00122985849           
       0.169451              0.0169656564             0.00117133711           
       0.170130              0.0155641881             0.00110718588           
       0.170809              0.0165987192             0.00115703574           
       0.171488              0.0173911211               0.001173535           
       0.172168               0.018249636             0.00119060318           
       0.172847              0.0183150245             0.00120840196           
       0.173526               0.016315822             0.00111878662           
       0.174205              0.0155427716             0.00109698977           
       0.174884              0.0166086261             0.00112807006           
       0.175563              0.0163616265             0.00112443093           
       0.176243              0.0160659732             0.00112537626           
       0.176922              0.0174015386             0.00114069695           
       0.177601              0.0174808156              0.0011558569           
       0.178280              0.0161058049             0.00109708251           
       0.178959              0.0160781552               0.001104957           
       0.179638              0.0163435271             0.00111083032           
       0.180317              0.0170879804             0.00112757334           
       0.180997              0.0156310764             0.00108428827           
       0.181676              0.0180287331             0.00115204831           
       0.182355              0.0154839067             0.00107406088           
       0.183034              0.0162622552             0.00108305968           
       0.183713               0.017350491             0.00113233512           
       0.184392              0.0181118872             0.00115656369           
       0.185072               0.015198661             0.00104739972           
       0.185751              0.0170169474             0.00111136607           
       0.186430              0.0175601118             0.00112105628           
       0.187109              0.0166387094             0.00110340132           
       0.187788              0.0163273537             0.00109033401           
       0.188467              0.0152374781             0.00104084979           
       0.189147              0.0152087724             0.00105039958           
       0.189826              0.0155674091             0.00104391939           
       0.190505              0.0165428791             0.00109384358           
       0.191184              0.0151217661             0.00103073307           
       0.191863              0.0165309838             0.00107996147           
       0.192542              0.0162192131             0.00107981688           
       0.193222              0.0170686152              0.0010829067           
       0.193901              0.0166755326             0.00108471136           
       0.194580              0.0156317711             0.00103184462           
       0.195259              0.0160369759             0.00105713589           
       0.195938              0.0150237888             0.00102563976           
       0.196617              0.0149813761             0.00100989474           
       0.197297               0.017673049             0.00110135079           
       0.197976              0.0161217252             0.00103574533           
       0.198655              0.0158510982             0.00103823317           
       0.199334              0.0157720071             0.00102650674           
       0.200013               0.014493702             0.00098348359           
       0.200692              0.0162917308             0.00104897591           
       0.201371               0.017838803             0.00108529026           
       0.202051              0.0136947889            0.000953869964           
       0.202730              0.0147841648            0.000981183893           
       0.203409              0.0160547105             0.00102934001           
       0.204088              0.0137732348            0.000952346428           
       0.204767              0.0163510324             0.00103219312           
       0.205446              0.0159095023             0.00102015107           
       0.206126              0.0153338407            0.000987917848           
       0.206805              0.0167115833             0.00105025257           
       0.207484              0.0145084031            0.000960984033           
       0.208163              0.0137392943            0.000940785215           
       0.208842              0.0161420062               0.001016971           
       0.209521               0.014677895            0.000961694991           
       0.210201              0.0165109471             0.00103136171           
       0.210880              0.0148050528            0.000957465397           
       0.211559              0.0148567883            0.000973317742           
       0.212238              0.0135734419            0.000925596308           
       0.212917              0.0141539598            0.000941670586           
       0.213596              0.0151281392            0.000979294122           
       0.214276              0.0148744256            0.000950817199           
       0.214955              0.0148925021            0.000971401944           
       0.215634              0.0144227575            0.000949107738           
       0.216313              0.0160337651            0.000998610686           
       0.216992              0.0123078118            0.000874701956           
       0.217671              0.0164286998              0.0010037361           
       0.218351                0.01441962            0.000949558408           
       0.219030              0.0167532138             0.00100735824           
       0.219709              0.0148197326            0.000953357241           
       0.220388              0.0139154289            0.000922625596           
       0.221067              0.0151791724            0.000964373845           
       0.221746               0.016115217            0.000992645927           
       0.222426              0.0140117163            0.000911764086           
       0.223105              0.0157135851            0.000978703456           
       0.223784              0.0140165319            0.000915175564           
       0.224463              0.0129690534            0.000887325869           
       0.225142              0.0150702111            0.000941373797           
       0.225821              0.0156296763            0.000962549938           
       0.226500              0.0140999268            0.000920045627           
       0.227180              0.0134065494             0.00088331684           
       0.227859              0.0153007714            0.000947891484           
       0.228538              0.0147055236            0.000919939369           
       0.229217                0.01492905            0.000934241537           
       0.229896              0.0160212038            0.000967345304           
       0.230575              0.0162307616            0.000958130542           
       0.231255              0.0139051342            0.000900112476           
       0.231934              0.0160987552            0.000961895893           
       0.232613               0.013807053            0.000894091077           
       0.233292              0.0148939131            0.000919642818           
       0.233971              0.0150435832            0.000923820719           
       0.234650              0.0145946713            0.000920635568           
       0.235330              0.0146240135            0.000913513196           
       0.236009              0.0156388449            0.000942641878           
       0.236688              0.0148112729            0.000914078687           
       0.237367              0.0135932701            0.000876959794           
       0.238046              0.0149854033            0.000927256143           
       0.238725              0.0148433869            0.000908614291           
       0.239405              0.0143049904            0.000897514718           
       0.240084              0.0136866518            0.000872312591           
       0.240763              0.0141675043            0.000896001885           
       0.241442              0.0144753699            0.000892923292           
       0.242121              0.0156838158            0.000931202611           
       0.242800              0.0135791575            0.000870574453           
       0.243480              0.0136482862            0.000868700956           
       0.244159              0.0150063379            0.000911336343           
       0.244838              0.0159515079             0.00092413749           
       0.245517              0.0134543238            0.000860932883           
       0.246196              0.0147784437            0.000902738718           
       0.246875              0.0146212023            0.000885406475           
       0.247554              0.0137861154            0.000868487672           
       0.248234              0.0150080072             0.00089241841           
       0.248913              0.0131348117            0.000844234978           
       0.249592              0.0130777755            0.000834395178           
       0.250271              0.0128631045            0.000825115688           
       0.250950              0.0130203528            0.000835228286           
       0.251629              0.0123081555            0.000805162035           
       0.252309              0.0132638701            0.000837534041           
       0.252988               0.014539062            0.000861766162           
       0.253667              0.0131583463            0.000829405126           
       0.254346              0.0122606018            0.000800446985           
       0.255025              0.0124271143            0.000804098847           
       0.255704              0.0138485557            0.000844953596           
       0.256384              0.0118542519            0.000779045158           
       0.257063              0.0131940511            0.000826577756           
       0.257742              0.0124379605            0.000796983989           
       0.258421              0.0134170869            0.000826166087           
       0.259100              0.0126236138            0.000802761952           
       0.259779              0.0138373498            0.000839755938           
       0.260459              0.0134344608            0.000829065359           
       0.261138              0.0137364408            0.000821948487           
       0.261817              0.0113496062            0.000762214455           
       0.262496              0.0136688437            0.000828271026           
       0.263175              0.0119154395            0.000774985223           
       0.263854              0.0116578573            0.000763001439           
       0.264534              0.0127280031            0.000790443769           
       0.265213                0.01223361            0.000787152295           
       0.265892              0.0125112038            0.000785834285           
       0.266571              0.0126945418            0.000789771016           
       0.267250              0.0123830014            0.000781333817           
       0.267929              0.0124081521            0.000781324908           
       0.268609              0.0130552451            0.000805827408           
       0.269288              0.0138002903            0.000814738872           
       0.269967              0.0122520321            0.000775947916           
       0.270646              0.0122465822            0.000772421797           
       0.271325              0.0121387558            0.000770298228           
       0.272004              0.0114933377            0.000742068456           
       0.272683              0.0119675863            0.000758159286           
       0.273363              0.0114453504            0.000746161442           
       0.274042              0.0113484143             0.00073861129           
       0.274721              0.0131113229            0.000793439921           
       0.275400              0.0114097882            0.000735266103           
       0.276079              0.0115388003             0.00074360984           
       0.276758              0.0107616132            0.000727193221           
       0.277438              0.0126328103            0.000779037779           
       0.278117              0.0120161324            0.000773600972           
       0.278796              0.0115787916            0.000751684364           
       0.279475              0.0122187158            0.000784932617           
       0.280154              0.0121621264            0.000771848336           
       0.280833              0.0111647791            0.000744021278           
       0.281513               0.011495772            0.000766813878           
       0.282192              0.0126050832            0.000789260944           
       0.282871              0.0118842007            0.000771715011           
       0.283550              0.0111867497            0.000752740135           
       0.284229              0.0104491038            0.000738184454           
       0.284908              0.0104638404            0.000746496457           
       0.285588              0.0110670496            0.000758721678           
       0.286267              0.0104605312             0.00074944914           
       0.286946              0.0110470828            0.000765165943           
       0.287625              0.0104824808             0.00075804716           
       0.288304             0.00979694285             0.00072303176           
       0.288983               0.011753764            0.000801984153           
       0.289663              0.0100780216            0.000746963529           
       0.290342              0.0110622445            0.000778422521           
       0.291021              0.0105913327            0.000765777399           
       0.291700               0.010393835            0.000748693953           
       0.292379             0.00959846948            0.000735951019           
       0.293058               0.010144468            0.000753735515           
       0.293738              0.0106374888            0.000765352578           
       0.294417              0.0107736896            0.000779189342           
       0.295096             0.00915320235            0.000710307724           
       0.295775             0.00910239828            0.000719151367           
       0.296454              0.0109107614            0.000777169823           
       0.297133              0.0111973436            0.000791035004           
       0.297812               0.010343512            0.000764090797           
       0.298492              0.0102112011            0.000760654888           
       0.299171             0.00892663447            0.000709856724           
       0.299850             0.00925512722             0.00071786409           
       0.300529             0.00947335791            0.000734459336           
       0.301208              0.0103333442             0.00076893875           
       0.301887             0.00954417711            0.000738115211           
       0.302567             0.00989931947            0.000747957662           
       0.303246             0.00848444378            0.000696967043           
       0.303925             0.00941590109            0.000743656264           
       0.304604              0.0100259718            0.000750799798           
       0.305283              0.0093351579            0.000735217006           
       0.305962              0.0105965123            0.000778582409           
       0.306642             0.00965396847            0.000753242314           
       0.307321              0.0100610231            0.000766502961           
       0.308000             0.00906995708            0.000719145602           
       0.308679             0.00735469404            0.000661608443           
       0.309358               0.010272128            0.000771319127           
       0.310037             0.00757387515            0.000663788185           
       0.310717             0.00971631115            0.000751109253           
       0.311396             0.00990909911            0.000763611441           
       0.312075             0.00847965858            0.000715347813           
       0.312754             0.00865371328             0.00070819514           
       0.313433             0.00775966842            0.000676447403           
       0.314112             0.00869963304             0.00071608276           
       0.314792             0.00929772029            0.000745516189           
       0.315471             0.00818511493            0.000690839237           
       0.316150             0.00939758355            0.000747091111           
       0.316829             0.00875489017             0.00072585402           
       0.317508             0.00861695059            0.000712032599           
       0.318187             0.00920667958            0.000745703506           
       0.318866             0.00896087847            0.000725771287           
       0.319546             0.00802049525             0.00069692609           
       0.320225             0.00797290776            0.000694869085           
       0.320904             0.00747695812            0.000662505587           
       0.321583             0.00838149786            0.000716891663           
       0.322262             0.00794413867            0.000687358939           
       0.322941             0.00870532284            0.000728754595           
       0.323621             0.00895439873            0.000734596008           
       0.324300             0.00848307948            0.000715562172           
       0.324979             0.00717722045            0.000659376087           
       0.325658             0.00853645663            0.000720412165           
       0.326337             0.00711689335            0.000658648866           
       0.327016             0.00839619503            0.000710859895           
       0.327696             0.00871425911            0.000732253484           
       0.328375             0.00855908327            0.000719580773           
       0.329054             0.00908874726            0.000745533326           
       0.329733             0.00805271556             0.00070431894           
       0.330412             0.00755220177             0.00067649082           
       0.331091             0.00652745809            0.000640330857           
       0.331771             0.00764935341            0.000675014429           
       0.332450             0.00753706627            0.000683050744           
       0.333129             0.00682049682            0.000648093568           
       0.333808             0.00751685726            0.000681273486           
       0.334487             0.00801422286            0.000706786597           
       0.335166             0.00651758759            0.000628055524           
       0.335846             0.00888552618            0.000746211325           
       0.336525             0.00803590277            0.000702632893           
       0.337204             0.00579017891            0.000597990389           
       0.337883             0.00723463408            0.000669316903           
       0.338562             0.00713096158            0.000668191484           
       0.339241             0.00664671252            0.000646313717           
       0.339921             0.00810611078            0.000701780597           
       0.340600             0.00706279358            0.000667503381           
       0.341279              0.0064615277            0.000631621896           
       0.341958             0.00577589417            0.000605596717           
       0.342637             0.00688656484            0.000651922725           
       0.343316             0.00581534549            0.000600811351           
       0.343995              0.0063471128            0.000637958003           
       0.344675             0.00628198015            0.000623012364           
       0.345354             0.00668262299            0.000646810657           
       0.346033             0.00739559689            0.000678666972           
       0.346712             0.00704210578            0.000666474776           
       0.347391             0.00664099563            0.000651223122           
       0.348070             0.00718220412            0.000667621406           
       0.348750              0.0068850579            0.000663110045           
       0.349429             0.00645136525            0.000633598963           
       0.350108             0.00636406018            0.000636869796           
       0.350787             0.00727067091            0.000669158809           
       0.351466             0.00575205081            0.000606150884           
       0.352145             0.00537531779            0.000586450956           
       0.352825               0.006195299            0.000626742494           
       0.353504             0.00645794476            0.000639732846           
       0.354183              0.0061739094            0.000618299667           
       0.354862             0.00526016525            0.000583975946           
       0.355541             0.00516748868            0.000571228322           
       0.356220              0.0057514195            0.000603777677           
       0.356900             0.00634421491            0.000640153491           
       0.357579             0.00652652016            0.000641324489           
       0.358258             0.00530810201            0.000586374934           
       0.358937             0.00590909066            0.000607048608           
       0.359616             0.00563329463            0.000600989712           
       0.360295             0.00512500546            0.000573712903           
       0.360975             0.00458072518            0.000540073929           
       0.361654             0.00578598756            0.000610109931           
       0.362333             0.00527396103            0.000579527282           
       0.363012             0.00581496069            0.000616355032           
       0.363691             0.00545527409            0.000585210294           
       0.364370             0.00616978435            0.000630076348           
       0.365050             0.00482895239            0.000554439909           
       0.365729             0.00583228839             0.00061513283           
       0.366408             0.00520968319            0.000582660556           
       0.367087             0.00345523702            0.000466903219           
       0.367766             0.00637204695            0.000647266833           
       0.368445             0.00482595461            0.000553293417           
       0.369124             0.00548507625            0.000594502356           
       0.369804             0.00475119044            0.000552418216           
       0.370483             0.00388439949            0.000501677684           
       0.371162             0.00459460178            0.000548778911           
       0.371841             0.00442870153            0.000529386343           
       0.372520             0.00480950754            0.000562735097           
       0.373199             0.00482624676            0.000556978638           
       0.373879             0.00461525664             0.00055097389           
       0.374558             0.00523466516             0.00057822049           
       0.375237              0.0036462678            0.000483375517           
       0.375916             0.00413839914            0.000524828972           
       0.376595             0.00573273508            0.000605634243           
       0.377274             0.00614412021            0.000637024332           
       0.377954             0.00466810163            0.000546537325           
       0.378633             0.00440718088            0.000537754454           
       0.379312             0.00426754295            0.000529033138           
       0.379991             0.00422279452            0.000523528392           
       0.380670             0.00391441159            0.000512958821           
       0.381349             0.00333699986            0.000466816724           
       0.382029             0.00417815138            0.000529832901           
       0.382708             0.00488820291            0.000560573444           
       0.383387             0.00391215608            0.000512859301           
       0.384066             0.00429092668            0.000532184805           
       0.384745             0.00393313077            0.000511516933           
       0.385424             0.00376512834            0.000502172888           
       0.386104             0.00551079802            0.000600820178           
       0.386783             0.00473650175            0.000569062149           
       0.387462             0.00449546235            0.000540601786           
       0.388141             0.00370651595            0.000498717762           
       0.388820              0.0039087011            0.000508437235           
       0.389499             0.00395643019            0.000514411754           
       0.390178             0.00405254411            0.000522695818           
       0.390858             0.00365701839            0.000492515895           
       0.391537             0.00476456016            0.000567911035           
       0.392216              0.0048189132            0.000563982362           
       0.392895             0.00413464271            0.000524168107           
       0.393574             0.00397670731            0.000512785298           
       0.394253             0.00414610249            0.000525948426           
       0.394933             0.00383868293            0.000511857307           
       0.395612             0.00431033852            0.000526637146           
       0.396291             0.00396553716            0.000515418114           
       0.396970             0.00422889269            0.000527541994           
       0.397649             0.00358136293            0.000486970829           
       0.398328             0.00368009957            0.000491468178           
       0.399008             0.00392736098            0.000506606966           
       0.399687             0.00515034325            0.000582404222           
       0.400366             0.00391135527            0.000505598513           
       0.401045             0.00384763068            0.000500514822           
       0.401724              0.0036033993            0.000485177627           
       0.402403             0.00529706155            0.000592835061           
       0.403083             0.00405584202            0.000511268376           
       0.403762             0.00540389344            0.000593059294           
       0.404441             0.00369113248            0.000493266711           
       0.405120             0.00302178873            0.000444843796           
       0.405799             0.00370509311            0.000490438136           
       0.406478             0.00422721966            0.000523869344           
       0.407158             0.00432374188            0.000528822131           
       0.407837             0.00394383699            0.000509513445           
       0.408516             0.00322104384            0.000456456974           
       0.409195             0.00354639551            0.000484388689           
       0.409874             0.00462301288            0.000560742856           
       0.410553             0.00438008375            0.000551681384           
       0.411233             0.00366098322            0.000501752811           
       0.411912             0.00406070269            0.000535922426           
       0.412591             0.00289402399            0.000455425362           
       0.413270             0.00315526497            0.000473277553           
       0.413949             0.00263228831            0.000437000953           
       0.414628             0.00335294198            0.000492320843           
       0.415307             0.00321963747            0.000487801245           
       0.415987             0.00214614123            0.000394979824           
       0.416666             0.00283354801            0.000451118043           
       0.417345             0.00301444227            0.000473065089           
       0.418024             0.00286392921             0.00046111539           
       0.418703             0.00249251733            0.000429387096           
       0.419382             0.00238828092            0.000418253092           
       0.420062             0.00349955895            0.000507712912           
       0.420741             0.00338755554            0.000502178644           
       0.421420             0.00320635919            0.000490416485           
       0.422099             0.00335636162            0.000501769934           
       0.422778              0.0036168873            0.000523700808           
       0.423457              0.0024429253            0.000433032961           
       0.424137             0.00264937292            0.000443610225           
       0.424816             0.00292568418            0.000475911959           
       0.425495             0.00269118874            0.000456009544           
       0.426174             0.00246139494            0.000436259147           
       0.426853             0.00190079742            0.000381044546           
       0.427532             0.00200335775            0.000394496802           
       0.428212             0.00204340301            0.000401050158           
       0.428891              0.0028116944            0.000469371599           
       0.429570             0.00226373845            0.000421446758           
       0.430249              0.0022373048            0.000416803599           
       0.430928             0.00332417518            0.000519164949           
       0.431607             0.00195579239            0.000391379185           
       0.432287             0.00135289635            0.000327897259           
       0.432966             0.00266270074             0.00046405565           
       0.433645             0.00218406646            0.000420721881           
       0.434324             0.00287556573            0.000479841724           
       0.435003             0.00184476693            0.000384988925           
       0.435682             0.00260931205            0.000461623469           
       0.436361             0.00195330197            0.000398866843           
       0.437041             0.00236047279            0.000437887726           
       0.437720              0.0025435147            0.000456741145           
       0.438399             0.00241172306            0.000447071631           
       0.439078             0.00343471461            0.000549001194           
       0.439757             0.00235667413            0.000451953756           
       0.440436              0.0031122712            0.000531082271           
       0.441116             0.00275528829             0.00050786788           
       0.441795             0.00211418129            0.000445411328           
       0.442474             0.00268935484            0.000503759809           
       0.443153             0.00245200274            0.000492238389           
       0.443832             0.00285002309            0.000531582427           
       0.444511             0.00213840837            0.000458385081           
       0.445191             0.00235329545            0.000492561417           
       0.445870             0.00163627333            0.000410735224           
       0.446549             0.00199405634             0.00045820353           
       0.447228              0.0025769289            0.000517940593           
       0.447907              0.0022323434            0.000487853544           
       0.448586             0.00325562277            0.000603325742           
       0.449266             0.00285164601            0.000559460459           
       0.449945             0.00217662158            0.000486785934           
       0.450624             0.00298961437            0.000579557743           
       0.451303             0.00312421726            0.000600140888           
       0.451982              0.0024144899            0.000524326973           
       0.452661             0.00250812621            0.000544353094           
       0.453341             0.00336686812            0.000632904745           
       0.454020             0.00206411982             0.00049631119           
       0.454699             0.00257471114            0.000559370274           
       0.455378              0.0028245214            0.000586192911           
       0.456057             0.00118046624            0.000385700991           
       0.456736             0.00230112699            0.000536831351           
       0.457416             0.00155727992            0.000441634763           
       0.458095             0.00250100483            0.000567776289           
       0.458774             0.00100211644            0.000364150581           
       0.459453             0.00207659934            0.000526845318           
       0.460132             0.00108478502            0.000372560491           
       0.460811            0.000757032637            0.000322842463           
       0.461490             0.00169371851             0.00047798512           
       0.462170            0.000921955133            0.000358157173           
       0.462849             0.00178535983            0.000501636744           
       0.463528            0.000945117247             0.00036413383           
       0.464207             0.00226780778            0.000574608902           
       0.464886             0.00153379635            0.000468876155           
       0.465565            0.000554340903            0.000284975501           
       0.466245             0.00320212936            0.000687043249           
       0.466924             0.00229112582            0.000594879029           
       0.467603             0.00160085821            0.000486709445           
       0.468282            0.000916748237            0.000377048007           
       0.468961             0.00124671047            0.000442586422           
       0.469640             0.00108581848            0.000414689457           
       0.470320              0.0010932789            0.000416399241           
       0.470999            0.000482522117            0.000279241589           
       0.471678             0.00180664529            0.000545522246           
       0.472357             0.00214191511            0.000595645526           
       0.473036             0.00101760238            0.000413150717           
       0.473715             0.00153257351            0.000510992247           
       0.474395            0.000714161022            0.000353642078           
       0.475074             0.00106430107            0.000431728542           
       0.475753             0.00121803498            0.000457872665           
       0.476432             0.00132257689             0.00049448737           
       0.477111            4.07921121e-05            8.57924287e-05           
       0.477790            0.000586201456            0.000326962963           
       0.478470            0.000979536476            0.000428243745           
       0.479149            0.000627036089            0.000346175189           
       0.479828             0.00101107598             0.00043854887           
       0.480507             0.00102481892            0.000445078916           
       0.481186            0.000885435705            0.000423032048           
       0.481865            0.000844781341            0.000408089433           
       0.482545            7.95013252e-05            0.000126660733           
       0.483224            8.81259623e-05            0.000134265428           
       0.483903            0.000102415382            0.000147022033           
       0.484582           -9.96101973e-05                         0           
       0.485261            0.000505151426            0.000323423306           
       0.485940            0.000569200946            0.000357164976           
       0.486619             0.00055472875            0.000348716551           
       0.487299            0.000125830953            0.000168730963           
       0.487978            0.000119212242            0.000162560122           
       0.488657            0.000396884172            0.000308849488           
       0.489336            0.000136886143            0.000178202084           
       0.490015           -9.25991882e-05                         0           
       0.490694           -0.000320417286                         0           
       0.491374            0.000146403911            0.000188551813           
       0.492053           -5.83847619e-05                         0           
       0.492732            -6.8284391e-05                         0           
       0.493411           -6.52739325e-05                         0           
       0.494090            0.000196077464             0.00022566476           
       0.494769           -5.62162984e-05                         0           
       0.495449           -0.000320553912                         0           
       0.496128           -5.47742417e-05                         0           
       0.496807           -4.22005535e-05                         0           
       0.497486           -0.000320612792                         0           
       0.498165           -3.11271484e-05                         0           
       0.498844           -0.000320652406                         0           
       0.499524           -0.000320672156                         0           
       0.500203           -0.000320692218                         0           
       0.500882            0.000280413666            0.000290845514           
       0.501561           -0.000320731616                         0           
       0.502240           -0.000320751609                         0           
       0.502919            0.000636025433            0.000449506553           
       0.503599           -0.000320791497                         0           
       0.504278            0.000316171744            0.000316947667           
       0.504957            0.000649231694            0.000457226009           
       0.505636           -0.000320851687                         0           
       0.506315           -0.000320871913                         0           
       0.506994             1.8194937e-05            7.86889971e-05           
       0.507673           -0.000320911602                         0           
       0.508353           -0.000320931844                         0           
       0.509032              -0.000320952                         0           
       0.509711           -0.000320972163                         0           
       0.510390           -0.000320992644                         0           
       0.511069           -0.000321013057                         0           
       0.511748           -0.000321033387                         0           
       0.512428           -0.000321053863                         0           
       0.513107           -0.000321074023                         0           
       0.513786           -0.000321094247                         0           
       0.514465            5.85227355e-05            0.000148739292           
       0.515144            -0.00032113537                         0           
       0.515823             7.4968587e-05            0.000173333964           
       0.516503            0.000102138736            0.000207582789           
       0.517182            0.000101508778            0.000207678248           
       0.517861           -0.000321217359                         0           
       0.518540           -0.000321237981                         0           
       0.519219             0.00095309386            0.000645617928           
       0.519898            0.000619901746              0.0005386206           
       0.520578           -0.000321300029                         0           
       0.521257           -0.000321320595                         0           
       0.521936           -0.000321341209                         0           
       0.522615           -0.000321362071                         0           
       0.523294            0.000173727348            0.000289729468           
       0.523973            0.000655968762            0.000566429971           
       0.524653           -0.000321424161                         0           
       0.525332             0.00014898142            0.000266198678           
       0.526011           -0.000321466134                         0           
       0.526690            0.000168221963             0.00028746633           
       0.527369           -0.000321508225                         0           
       0.528048           -0.000321529333                         0           
       0.528728           -0.000321550416                         0           
       0.529407           -0.000321571401                         0           
       0.530086           -0.000321592278                         0           
       0.530765             0.00024950301            0.000379121544           
       0.531444           -0.000321634317                         0           
       0.532123           -0.000321655823                         0           
       0.532802           -0.000321677154                         0           
       0.533482           -0.000321698412                         0           
       0.534161           -0.000321719704                         0           
       0.534840             0.00025917912            0.000391187339           
       0.535519            0.000276353139            0.000402967155           
       0.536198           -0.000321783592                         0           
       0.536877            0.000321619061            0.000455190285           
       0.537557           -0.000321825922                         0           
       0.538236            -0.00032184746                         0           
       0.538915            -0.00032186899                         0           
       0.539594           -0.000321890491                         0           
       0.540273           -0.000321912328                         0           
       0.540952           -0.000321933922                         0           
       0.541632           -0.000321955121                         0           
       0.542311           -0.000321976515                         0           
       0.542990            0.000398999149            0.000536662471           
       0.543669           -0.000322019962                         0           
       0.544348            -0.00032204175                         0           
       0.545027           -0.000322063492                         0           
       0.545707           -0.000322085298                         0           
       0.546386           -0.000322107166                         0           
       0.547065           -0.000322128772                         0           
       0.547744           -0.000322150476                         0           
       0.548423           -0.000322172419                         0           
       0.549102           -0.000322194384                         0           
       0.549782           -0.000322216239                         0           
       0.550461           -0.000322238353                         0           
       0.551140             -0.0003222606                         0           
       0.551819           -0.000322282584                         0           
       0.552498           -0.000322304757                         0           
       0.553177           -0.000322326548                         0           
       0.553856           -0.000322348418                         0           
       0.554536             0.00129779098             0.00103573891           
       0.555215             0.00059773413            0.000753687849           
       0.555894            -0.00032241486                         0           
       0.556573           -0.000322437215                         0           
       0.557252           -0.000322459553                         0           
       0.557931           -0.000322481788                         0           
       0.558611           -0.000322504544                         0           
       0.559290           -0.000322526721                         0           
       0.559969           -0.000322548353                         0           
       0.560648           -0.000322570558                         0           
       0.561327            0.000867597911             0.00101352297           
       0.562006           -0.000322615853                         0           
       0.562686            -0.00032263846                         0           
       0.563365           -0.000322661151                         0           
       0.564044           -0.000322683727                         0           
       0.564723            0.000843959335            0.000980749982           
       0.565402            -0.00032272836                         0           
       0.566081           -0.000322750613                         0           
       0.566761           -0.000322773106                         0           
       0.567440           -0.000322796057                         0           
       0.568119           -0.000322818825                         0           
       0.568798           -0.000322841914                         0           
       0.569477           -0.000322864855                         0           
       0.570156           -0.000322887907                         0           
       0.570836           -0.000322910872                         0           
       0.571515           -0.000322933352                         0           
       0.572194           -0.000322956483                         0           
       0.572873           -0.000322979085                         0           
       0.573552           -0.000323001554                         0           
       0.574231           -0.000323024479                         0           
       0.574911           -0.000323047982                         0           
       0.575590           -0.000323071033                         0           
       0.576269           -0.000323094012                         0           
       0.576948           -0.000323117434                         0           
       0.577627           -0.000323140141                         0           
       0.578306             0.00175320239              0.0019123164           
       0.578985           -0.000323186393                         0           
       0.579665           -0.000323209483                         0           
       0.580344           -0.000323232923                         0           
       0.581023           -0.000323256338                         0           
       0.581702           -0.000323279536                         0           
       0.582381           -0.000323302523                         0           
       0.583060           -0.000323326196                         0           
       0.583740           -0.000323349497                         0           
       0.584419           -0.000323372876                         0           
       0.585098           -0.000323396227                         0           
       0.585777           -0.000323419759                         0           
       0.586456           -0.000323443675                         0           
       0.587135           -0.000323466954                         0           
       0.587815           -0.000323489983                         0           
       0.588494           -0.000323513729                         0           
       0.589173            -0.00032353802                         0           
       0.589852            -0.00032356102                         0           
       0.590531           -0.000323584888                         0           
       0.591210           -0.000323608204                         0           
       0.591890           -0.000323631972                         0           
       0.592569           -0.000323654944                         0           
       0.593248           -0.000323680059                         0           
       0.593927           -0.000323703938                         0           
       0.594606           -0.000323728308                         0           
       0.595285           -0.000323751226                         0           
       0.595965           -0.000323772612                         0           
       0.596644           -0.000323794619                         0           
