################################################################################
# EDF_DataBlockID                     0.Image.Psd
# EDF_BinarySize                      4366944
# EDF_HeaderSize                      2560
# ByteOrder                           LowByteFirst
# DataType                            FloatValue
# Dim_1                               1028
# Dim_2                               1062
# Image                               0
# HeaderID                            EH:000000:000000:000000
# Size                                4366944
# Center_1                            607.5200
# Center_2                            651.5500
# Comment                             Xenocs_Cell_Window - 20251028_20perc_iodine_1.23mg
# DDummy                              0.6
# Date                                2025-10-28T17:55:48
# Delta                               0
# Dummy                               -1.5
# ExposureTime                        360
# Gamma                               0
# Intensity1                          8.52631e-10
# PSize_1                             7.5e-05
# PSize_2                             7.5e-05
# Pressure                            0.035737
# SampleDistance                      0.450002
# SampleEnvKind                       large
# SampleEnvPN                         ElectroChemical cell
# SampleEnvSN                         1141
# Thickness                           0
# Wavelength                          1.541891e-10
# Wavelength                          1.54189e-10
# aux                                 0
# aux_dial                            0.002375
# beamx                               588.434
# beamx_dial                          588.434
# beamz                               657.808
# beamz_dial                          657.808
# det0x                               0
# det0x_dial                          6.36945
# det0xvd                             0
# det0xvd_dial                        0
# det0y                               450.002
# det0y_dial                          481.635
# det0z                               0
# det0z_dial                          1.23302
# det0zvd                             0
# det0zvd_dial                        0
# mag                                 1.818
# mag_dial                            1.818
# om                                  0.2499
# om_dial                             -0.610199
# phi                                 -0.0120535
# phi_dial                            0
# ry                                  0.599993
# ry_dial                             0.599993
# s1bot                               0.8
# s1bot_dial                          -1.66094
# s1hl                                0.8
# s1hl_dial                           -0.608437
# s1hr                                0.8
# s1hr_dial                           0.970938
# s1top                               0.8
# s1top_dial                          -0.461562
# s2bot                               0.45
# s2bot_dial                          1.36109
# s2hl                                0.45
# s2hl_dial                           -0.83375
# s2hr                                0.45
# s2hr_dial                           -0.118594
# s2top                               0.45
# s2top_dial                          1.44734
# w2theta                             32
# w2theta_dial                        32
# waxsch                              19.2605
# waxsch_dial                         -32.7355
# waxsh                               137.085
# waxsh_dial                          -43.5338
# waxsth                              26.0607
# waxsth_dial                         -19.4086
# waxsz                               67.0407
# waxsz_dial                          -23.7954
# wind                                65.9854
# wind_dial                           66.0041
# wpsi                                124
# wpsi_dial                           124
# wstod                               115
# wstod_dial                          115
# x                                   0
# x_dial                              1.00969
# z                                   0
# z_dial                              13.3172
# CountCutoff                         15302352
# DetectorModel                       Dectris EIGER2 Si 1M, S/N E-02-0362
# ThresholdSetting                    4023.88989258
# Saturation                          0
# FlatField                           Corrected
# BackgroundReductionExtra            0.02
# BackgroundCorrectionConstant        0.0026712
# Detector                            0
# Monitor                             0
# Pil_Roi0                            0
# SumForIntensity1                    3.06947e+08
# TransmittedFlux                     852631
# det                                 0
# mon                                 0
# pilai0                              3.06947e+08
# pilai1                              805741
# pilct0                              5.31404e+08
# pilct1                              805741
# pilroi0                             0
# pilroi1                             0
# sec                                 1
# title                               20251028_20perc_iodine_1.23mg_0_00032.edf
# usaxs0                              0
# Operation                           Azimuthal average I(q)
# Error_model                         ErrorModel.poisson
# Geometrical_correction              True
# Transmission_correction             True
# Thickness_correction                False
# Binning mode                        Uniform
# Binning factor                      1.0
# Psi                                 0.0
# Omega                               0.2499
# MaskInvalidPixels                   True
# DetectorEdge                        3
# MaskFiles                           ['20251028_20perc_iodine_1.23mg_0_00012_mask.edf']
################################################################################
    q(A⁻¹)                Intensity(a.u.)            Sigma_I(a.u.)            
       0.000340                368948.814                120.100221           
       0.001019                358367.494                72.4837582           
       0.001698                349786.555                50.6364197           
       0.002377                330936.588                44.0533431           
       0.003056                307947.584                35.9154186           
       0.003735                253569.705                 28.742138           
       0.004415                205335.258                25.8643909           
       0.005094                153336.393                19.3563678           
       0.005773                101222.356                14.5601625           
       0.006452                58912.0421                10.6428834           
       0.007131                 32296.626                7.63386121           
       0.007810                16139.2485                5.35540399           
       0.008490                8006.46245                3.34351643           
       0.009169                3863.94615                2.29556354           
       0.009848                1191.31364                1.23237368           
       0.010527                458.716596               0.764718935           
       0.011206                116.784394               0.368260834           
       0.011885                55.0406528               0.234894573           
       0.012564                25.7512571               0.164953745           
       0.013244                17.3672624               0.126645167           
       0.013923                12.5345705               0.109326974           
       0.014602                9.73303533              0.0893473496           
       0.015281                7.81859623              0.0815174885           
       0.015960                6.34748634              0.0729227795           
       0.016639                5.17212744              0.0621600788           
       0.017319                4.27857022              0.0556569055           
       0.017998                3.63014434              0.0490459369           
       0.018677                 3.0642838              0.0466713894           
       0.019356                2.59438131              0.0424328542           
       0.020035                2.27610484              0.0372884844           
       0.020714                1.98002023              0.0351467886           
       0.021394                1.63838922              0.0302502681           
       0.022073                1.51759298              0.0302905878           
       0.022752                 1.3005177              0.0268238867           
       0.023431                1.15560126              0.0245439734           
       0.024110                1.05847913              0.0244899967           
       0.024789               0.948942077              0.0215351364           
       0.025469               0.873823417              0.0212956884           
       0.026148               0.736348187              0.0183677683           
       0.026827               0.686166602              0.0180145919           
       0.027506                0.66418585              0.0179792875           
       0.028185               0.596193816              0.0162445511           
       0.028864               0.559832413              0.0156530621           
       0.029544               0.495811984              0.0142848131           
       0.030223               0.469536532              0.0141004865           
       0.030902               0.436038365              0.0137125424           
       0.031581               0.390955375              0.0123430149           
       0.032260               0.372273181              0.0122497194           
       0.032939               0.364439487              0.0116864653           
       0.033619               0.329223197              0.0112707272           
       0.034298               0.310589951              0.0106533355           
       0.034977               0.272931054              0.0097903586           
       0.035656                0.27145041              0.0100221735           
       0.036335               0.240321286             0.00914594124           
       0.037014               0.238679917             0.00914184266           
       0.037693               0.226441066             0.00856589062           
       0.038373               0.203133415             0.00819269424           
       0.039052               0.186071366             0.00787444049           
       0.039731               0.185116861             0.00767117875           
       0.040410               0.180762767             0.00752960266           
       0.041089               0.161943288             0.00701523604           
       0.041768               0.150171515             0.00679074878           
       0.042448               0.154259165             0.00682914458           
       0.043127               0.134735121             0.00623162088           
       0.043806               0.133716103             0.00625429923           
       0.044485               0.137317537             0.00620776153           
       0.045164               0.135423844              0.0062863113           
       0.045843               0.125881447             0.00581303189           
       0.046523               0.124300349             0.00579635682           
       0.047202               0.118460466             0.00569809759           
       0.047881                0.10934336             0.00536886526           
       0.048560               0.116478082             0.00559176565           
       0.049239              0.0940298174             0.00482405796           
       0.049918               0.102682799             0.00513968673           
       0.050598              0.0928237896             0.00481340364           
       0.051277              0.0874933945             0.00465832707           
       0.051956                0.09697146             0.00487336005           
       0.052635              0.0895811474             0.00458457419           
       0.053314              0.0871600892              0.0046544131           
       0.053993              0.0861913385             0.00450152888           
       0.054673               0.081375081             0.00427651926           
       0.055352              0.0832250341             0.00438838236           
       0.056031                0.08757398              0.0044069959           
       0.056710              0.0851149436             0.00445114831           
       0.057389              0.0771734886             0.00408714798           
       0.058068              0.0742185371              0.0040494536           
       0.058748              0.0767844391             0.00417023734           
       0.059427              0.0833320466             0.00427084918           
       0.060106              0.0777392337             0.00416408369           
       0.060785              0.0683345664              0.0037871119           
       0.061464              0.0635393673             0.00373984236           
       0.062143               0.063604749             0.00370375636           
       0.062822              0.0678508038             0.00378049486           
       0.063502              0.0647045159             0.00368520657           
       0.064181              0.0637260802             0.00361861772           
       0.064860              0.0656104961             0.00372765445           
       0.065539              0.0599739683             0.00352909011           
       0.066218              0.0601566126             0.00345878062           
       0.066897              0.0613146086             0.00351886852           
       0.067577              0.0547357018             0.00335667156           
       0.068256               0.059415294             0.00358312493           
       0.068935              0.0531648753             0.00333461373           
       0.069614               0.049257353             0.00324168349           
       0.070293               0.057852061             0.00354552713           
       0.070972               0.049109922             0.00324275754           
       0.071652              0.0555026255             0.00345368307           
       0.072331              0.0516320447             0.00327171469           
       0.073010              0.0505528001             0.00331131045           
       0.073689              0.0492058081             0.00324894519           
       0.074368              0.0506955447             0.00329176284           
       0.075047               0.050258279             0.00324230741           
       0.075727              0.0553568042             0.00338177868           
       0.076406              0.0464617858             0.00316000301           
       0.077085               0.053843735             0.00333821236           
       0.077764               0.046660979             0.00309669793           
       0.078443              0.0470104588             0.00312751757           
       0.079122              0.0467478522             0.00308880902           
       0.079802              0.0504150096             0.00324169369           
       0.080481              0.0394996851             0.00277259576           
       0.081160              0.0409793903             0.00288200034           
       0.081839              0.0429661559             0.00290379126           
       0.082518              0.0432642756             0.00291630182           
       0.083197              0.0377441806             0.00268158624           
       0.083876              0.0401847008             0.00272094669           
       0.084556              0.0433842635             0.00290582255           
       0.085235              0.0378511832             0.00266176582           
       0.085914              0.0397735675             0.00275502705           
       0.086593              0.0377387782             0.00266635721           
       0.087272              0.0404672844             0.00272203545           
       0.087951              0.0400791493             0.00277014242           
       0.088631               0.039656586             0.00266164685           
       0.089310              0.0322285818             0.00245035028           
       0.089989               0.036029808             0.00256053881           
       0.090668              0.0364847146             0.00260509419           
       0.091347              0.0393425928              0.0027203464           
       0.092026              0.0367404967             0.00251275208           
       0.092706              0.0417114629             0.00277452816           
       0.093385              0.0359783972             0.00253723934           
       0.094064              0.0335360285             0.00247811652           
       0.094743              0.0342804863             0.00246728993           
       0.095422              0.0294850153             0.00226270178           
       0.096101              0.0313581803             0.00238152764           
       0.096781              0.0356869088             0.00250421338           
       0.097460              0.0289950888             0.00219567242           
       0.098139              0.0350405202             0.00239516801           
       0.098818              0.0303996721             0.00220345246           
       0.099497               0.031024286              0.0022305445           
       0.100176              0.0322790292             0.00221548992           
       0.100856              0.0295266027             0.00211757061           
       0.101535              0.0283578221             0.00207123412           
       0.102214              0.0304213427             0.00214528321           
       0.102893              0.0322789951             0.00218463446           
       0.103572               0.033049512             0.00217789863           
       0.104251              0.0289108722             0.00204450021           
       0.104931               0.033878889             0.00219305335           
       0.105610              0.0296613769               0.002060767           
       0.106289              0.0302976412             0.00204809206           
       0.106968              0.0310643003              0.0020799976           
       0.107647              0.0289024557             0.00200752053           
       0.108326               0.024500517             0.00182360637           
       0.109005              0.0316765659             0.00206049436           
       0.109685              0.0294432955             0.00196424924           
       0.110364              0.0316469047             0.00205955738           
       0.111043              0.0301836956             0.00200340664           
       0.111722              0.0274310796              0.0018865285           
       0.112401              0.0284216692             0.00192562953           
       0.113080              0.0289222544             0.00192025315           
       0.113760              0.0296382874             0.00197634586           
       0.114439               0.028718138             0.00191766059           
       0.115118              0.0285417566              0.0018973474           
       0.115797               0.027498082             0.00187958743           
       0.116476              0.0288094546              0.0018950889           
       0.117155              0.0259640731             0.00181358195           
       0.117835              0.0262585213             0.00178757909           
       0.118514              0.0258342543             0.00179556077           
       0.119193              0.0270501158              0.0018373413           
       0.119872              0.0263013095             0.00178907388           
       0.120551              0.0294167281              0.0018794649           
       0.121230              0.0245618452             0.00170010189           
       0.121910              0.0237660288             0.00168849566           
       0.122589              0.0259470218             0.00176608942           
       0.123268              0.0256680814             0.00172254005           
       0.123947              0.0216399837             0.00159184503           
       0.124626              0.0290389617             0.00182146188           
       0.125305              0.0247626222             0.00169026135           
       0.125985              0.0240676035             0.00165344186           
       0.126664               0.024823653             0.00166321617           
       0.127343              0.0240613859             0.00165646116           
       0.128022              0.0258294945             0.00170307987           
       0.128701              0.0210924859             0.00153099124           
       0.129380              0.0248108851             0.00163966931           
       0.130059              0.0268526666             0.00170976437           
       0.130739              0.0252413607             0.00166933048           
       0.131418              0.0248958189             0.00165322335           
       0.132097              0.0231973688             0.00157536764           
       0.132776              0.0246593581             0.00161691913           
       0.133455              0.0241672973              0.0016131417           
       0.134134               0.024255272             0.00161092865           
       0.134814              0.0225896319             0.00153861423           
       0.135493               0.021740435              0.0015155257           
       0.136172              0.0244188312             0.00159404531           
       0.136851              0.0234564599             0.00157140436           
       0.137530              0.0239461258             0.00154999996           
       0.138209              0.0221300728             0.00150756006           
       0.138889              0.0241792688             0.00158275959           
       0.139568              0.0232310579             0.00155074407           
       0.140247              0.0224708861             0.00152316244           
       0.140926              0.0243320849              0.0015396679           
       0.141605              0.0208053654             0.00145989228           
       0.142284              0.0208440061             0.00143703346           
       0.142964              0.0242277161             0.00155521501           
       0.143643              0.0213597587             0.00145842265           
       0.144322              0.0203776319             0.00139469072           
       0.145001              0.0222113952             0.00148598051           
       0.145680              0.0209646745             0.00140951928           
       0.146359              0.0209658522               0.001414715           
       0.147039              0.0222689487             0.00147002057           
       0.147718              0.0210810544             0.00140667425           
       0.148397              0.0226901033             0.00148204832           
       0.149076              0.0196374014             0.00133598074           
       0.149755              0.0225172662             0.00145268198           
       0.150434                0.02066293             0.00139214955           
       0.151114               0.020165685             0.00136768989           
       0.151793               0.023780709             0.00148524319           
       0.152472              0.0209754477             0.00137025311           
       0.153151              0.0241157506             0.00148345406           
       0.153830              0.0225002268             0.00142246434           
       0.154509              0.0209759153             0.00136770552           
       0.155188              0.0190040732             0.00130135246           
       0.155868               0.016277101             0.00119580011           
       0.156547              0.0201656764             0.00133954479           
       0.157226              0.0184637627             0.00125046581           
       0.157905              0.0199856648             0.00131190888           
       0.158584              0.0166541628             0.00119540773           
       0.159263              0.0191086622              0.0012851826           
       0.159943              0.0187985334             0.00127566154           
       0.160622               0.021480484             0.00133731069           
       0.161301              0.0207800464             0.00133291926           
       0.161980              0.0191674221             0.00125839118           
       0.162659              0.0194263546             0.00128090415           
       0.163338              0.0207195501              0.0013120696           
       0.164018              0.0196461685             0.00127092587           
       0.164697              0.0198244174             0.00129307137           
       0.165376              0.0183452223             0.00121671756           
       0.166055              0.0188617673             0.00124186463           
       0.166734               0.016791836             0.00116649357           
       0.167413              0.0198903876              0.0012704537           
       0.168093               0.018599431             0.00124015473           
       0.168772              0.0170378302             0.00115223978           
       0.169451              0.0181782455             0.00121207467           
       0.170130              0.0186960861              0.0012130801           
       0.170809              0.0159389731             0.00113343463           
       0.171488              0.0186716129             0.00121557007           
       0.172168              0.0182250751             0.00118940955           
       0.172847              0.0180718346             0.00119995681           
       0.173526               0.018978694             0.00120623734           
       0.174205              0.0197165944             0.00123512559           
       0.174884              0.0200339818             0.00123853898           
       0.175563               0.016274182             0.00112105251           
       0.176243              0.0168487938             0.00115208749           
       0.176922              0.0162573861             0.00110219551           
       0.177601              0.0178587602             0.00116790011           
       0.178280              0.0193153993             0.00120103798           
       0.178959              0.0166827433             0.00112516918           
       0.179638              0.0155999178             0.00108490775           
       0.180317              0.0175123719             0.00114111323           
       0.180997              0.0159207176             0.00109392729           
       0.181676               0.018379678             0.00116282366           
       0.182355              0.0196253809             0.00120880012           
       0.183034              0.0177027659             0.00112963825           
       0.183713                0.01880987             0.00117860645           
       0.184392              0.0164297115             0.00110118298           
       0.185072              0.0179146507             0.00113676524           
       0.185751              0.0167205301               0.001101281           
       0.186430              0.0162575892             0.00107832251           
       0.187109               0.020069279              0.0012114246           
       0.187788              0.0184475765             0.00115858564           
       0.188467              0.0170929256             0.00110203792           
       0.189147              0.0185299645             0.00115904841           
       0.189826              0.0167432867             0.00108227089           
       0.190505              0.0176846923             0.00113059029           
       0.191184              0.0177895801             0.00111759545           
       0.191863              0.0149869241                0.00102795           
       0.192542               0.016979271               0.001104464           
       0.193222              0.0179354048             0.00110969675           
       0.193901              0.0165188048             0.00107924605           
       0.194580              0.0162740416             0.00105248216           
       0.195259              0.0156938583             0.00104542111           
       0.195938              0.0157497821             0.00104978221           
       0.196617              0.0170300694             0.00107637918           
       0.197297              0.0163620359             0.00105936451           
       0.197976                0.01623184             0.00103893392           
       0.198655              0.0165344127              0.0010600258           
       0.199334              0.0175641105             0.00108289968           
       0.200013              0.0163558567             0.00104440977           
       0.200692              0.0171077045             0.00107456971           
       0.201371              0.0179656945             0.00108878438           
       0.202051              0.0162685175             0.00103930332           
       0.202730               0.014578935            0.000974028661           
       0.203409              0.0146366341            0.000982505624           
       0.204088              0.0151887162            0.000999756735           
       0.204767              0.0143882085            0.000967940257           
       0.205446              0.0149109091            0.000987290774           
       0.206126              0.0158824634             0.00100510426           
       0.206805              0.0140693768            0.000963339144           
       0.207484               0.016667629             0.00102967484           
       0.208163              0.0137785037            0.000941816125           
       0.208842              0.0155530355            0.000997916533           
       0.209521              0.0162432832             0.00101134469           
       0.210201              0.0159694135             0.00101397283           
       0.210880              0.0149586001            0.000962100425           
       0.211559              0.0157383678             0.00100144901           
       0.212238              0.0162005788             0.00101087791           
       0.212917              0.0147198507            0.000959994071           
       0.213596               0.014550435            0.000960097199           
       0.214276              0.0155977429            0.000973340132           
       0.214955              0.0162682632              0.0010149451           
       0.215634              0.0163426816             0.00100997319           
       0.216313              0.0155328144            0.000982562877           
       0.216992              0.0151514311            0.000970182253           
       0.217671              0.0150508678            0.000960407498           
       0.218351              0.0153050633             0.00097795566           
       0.219030              0.0156620225            0.000973678592           
       0.219709               0.017256653             0.00102842018           
       0.220388              0.0129842273            0.000890926912           
       0.221067              0.0155369775            0.000975352201           
       0.221746              0.0164086266             0.00100131155           
       0.222426              0.0149633126            0.000941905887           
       0.223105              0.0150886619            0.000958728567           
       0.223784              0.0131196841            0.000885120995           
       0.224463              0.0155041722            0.000969862389           
       0.225142              0.0184112821              0.0010401627           
       0.225821              0.0146004095            0.000930010005           
       0.226500              0.0168397524             0.00100513781           
       0.227180              0.0153874459            0.000946015159           
       0.227859              0.0158913088             0.00096569196           
       0.228538              0.0148614473            0.000924498764           
       0.229217               0.016838714            0.000991869121           
       0.229896              0.0157669923            0.000959323771           
       0.230575              0.0144344661            0.000903259255           
       0.231255              0.0173223242             0.00100431302           
       0.231934              0.0127015569            0.000854116722           
       0.232613              0.0160950151            0.000965014373           
       0.233292               0.015118694            0.000926251101           
       0.233971              0.0136687714            0.000880305907           
       0.234650              0.0143094852            0.000911295905           
       0.235330              0.0131391343            0.000865608943           
       0.236009              0.0153390572            0.000933255485           
       0.236688              0.0146265042             0.00090805987           
       0.237367              0.0158458905            0.000946526676           
       0.238046              0.0140690741             0.00089816284           
       0.238725              0.0140161601             0.00088264163           
       0.239405              0.0152414998            0.000926122571           
       0.240084              0.0139465726            0.000880266352           
       0.240763              0.0147437759             0.00091374167           
       0.241442              0.0119994534            0.000812712373           
       0.242121              0.0145956262             0.00089802103           
       0.242800              0.0147234324            0.000906214197           
       0.243480              0.0150833949            0.000912930281           
       0.244159              0.0142609186            0.000888120515           
       0.244838              0.0146342016            0.000884865083           
       0.245517              0.0137232628            0.000869208315           
       0.246196              0.0138360473            0.000873193633           
       0.246875              0.0143625324            0.000877250216           
       0.247554              0.0142291718            0.000882042149           
       0.248234              0.0145784709            0.000879265059           
       0.248913              0.0139956427            0.000871173513           
       0.249592              0.0138155781            0.000857326405           
       0.250271              0.0131697404            0.000834617287           
       0.250950              0.0140168352            0.000866314583           
       0.251629              0.0134647629            0.000841866019           
       0.252309              0.0128409202             0.00082380085           
       0.252988              0.0136644972            0.000835170017           
       0.253667              0.0142414746            0.000862581942           
       0.254346              0.0126336425              0.0008122651           
       0.255025               0.015064898            0.000885042676           
       0.255704              0.0136867826            0.000839727016           
       0.256384              0.0141731608            0.000851560947           
       0.257063              0.0145766183            0.000868520045           
       0.257742              0.0139663729            0.000844255019           
       0.258421               0.013397885            0.000825302564           
       0.259100              0.0117137911            0.000773037373           
       0.259779              0.0142233697            0.000851108046           
       0.260459              0.0120570482            0.000785156031           
       0.261138              0.0135864708            0.000817179839           
       0.261817              0.0136459268            0.000835497445           
       0.262496              0.0136184013            0.000826468809           
       0.263175              0.0119199761             0.00077487724           
       0.263854              0.0119568874            0.000772470463           
       0.264534              0.0128126789            0.000792807296           
       0.265213              0.0133354691            0.000821565932           
       0.265892              0.0154046596            0.000871694486           
       0.266571              0.0123289871            0.000778060195           
       0.267250              0.0112575241             0.00074473528           
       0.267929              0.0115238651            0.000752720978           
       0.268609              0.0113000031             0.00074945511           
       0.269288              0.0124547768            0.000773747263           
       0.269967              0.0136186805             0.00081781081           
       0.270646              0.0121889503            0.000770348156           
       0.271325              0.0112607913            0.000741674061           
       0.272004              0.0133226529            0.000798680476           
       0.272683              0.0130125347            0.000790305399           
       0.273363               0.011921489            0.000761272833           
       0.274042              0.0125496311            0.000776462798           
       0.274721              0.0117610174            0.000751225047           
       0.275400              0.0118302249            0.000748443596           
       0.276079              0.0103737887            0.000704839641           
       0.276758              0.0101283086            0.000705239155           
       0.277438              0.0113451225             0.00073802309           
       0.278117              0.0104596815            0.000721523878           
       0.278796              0.0100994288            0.000701793152           
       0.279475              0.0104419857            0.000725383988           
       0.280154              0.0117086156            0.000757071352           
       0.280833              0.0129918753            0.000802330003           
       0.281513              0.0107728908            0.000742068241           
       0.282192               0.010181054            0.000709089328           
       0.282871              0.0102736147            0.000717282805           
       0.283550              0.0097812386            0.000703634073           
       0.284229             0.00986640347            0.000717070131           
       0.284908              0.0108411353             0.00075958504           
       0.285588              0.0107904634             0.00074893381           
       0.286267              0.0113635038            0.000780869124           
       0.286946              0.0113542026            0.000775473517           
       0.287625              0.0108338397            0.000770392795           
       0.288304              0.0102174189            0.000738141309           
       0.288983             0.00996256027            0.000738107484           
       0.289663              0.0114521797            0.000795999242           
       0.290342              0.0100055143            0.000740065735           
       0.291021             0.00913437352            0.000710924443           
       0.291700             0.00979458443            0.000726551237           
       0.292379              0.0109445261             0.00078560316           
       0.293058             0.00918149614            0.000716832839           
       0.293738              0.0100048317            0.000741999664           
       0.294417             0.00969398635            0.000738871304           
       0.295096             0.00908721384            0.000707509381           
       0.295775               0.010743688            0.000781044738           
       0.296454              0.0106748402            0.000768468226           
       0.297133             0.00832093623            0.000681680891           
       0.297812              0.0103935047            0.000765682621           
       0.298492             0.00940451363            0.000729750229           
       0.299171              0.0098137572            0.000744048598           
       0.299850             0.00935553246            0.000721509594           
       0.300529             0.00895862964            0.000713992085           
       0.301208             0.00876258711            0.000707854987           
       0.301887              0.0100025553            0.000755383014           
       0.302567             0.00962078554            0.000737117013           
       0.303246              0.0102061891             0.00076416859           
       0.303925             0.00958745827            0.000750153022           
       0.304604              0.0101763931            0.000756161684           
       0.305283             0.00972824379            0.000750289305           
       0.305962             0.00875024531            0.000707277841           
       0.306642             0.00878005344            0.000718103716           
       0.307321             0.00901175337            0.000725194058           
       0.308000             0.00901947856            0.000716905234           
       0.308679             0.00852612465            0.000712117069           
       0.309358               0.008523885            0.000702391915           
       0.310037             0.00885019339            0.000717304658           
       0.310717             0.00896088249            0.000721081942           
       0.311396             0.00931481903            0.000740115287           
       0.312075              0.0092548522            0.000747084348           
       0.312754              0.0104385083            0.000777548941           
       0.313433             0.00882185311            0.000721023112           
       0.314112             0.00738046544            0.000659343076           
       0.314792             0.00708932442            0.000650770846           
       0.315471             0.00876540424            0.000714673046           
       0.316150             0.00973160805            0.000760001761           
       0.316829             0.00821808665            0.000703017469           
       0.317508             0.00725493122            0.000653125363           
       0.318187             0.00840678973            0.000712338777           
       0.318866             0.00801971158            0.000686373783           
       0.319546             0.00868990155             0.00072518762           
       0.320225             0.00832361475            0.000709753314           
       0.320904             0.00777293284            0.000675268284           
       0.321583             0.00848840207             0.00072121127           
       0.322262             0.00751765801            0.000668433615           
       0.322941             0.00717331099            0.000661310652           
       0.323621             0.00702161042            0.000650287697           
       0.324300             0.00697298279            0.000648539937           
       0.324979             0.00832857998            0.000710063769           
       0.325658             0.00750800787            0.000675400536           
       0.326337             0.00752398764             0.00067700142           
       0.327016             0.00876044334            0.000725876305           
       0.327696             0.00785032257            0.000694779165           
       0.328375             0.00734806759            0.000666514066           
       0.329054             0.00719185608            0.000662967693           
       0.329733             0.00651862823            0.000633480305           
       0.330412             0.00839018529            0.000712800039           
       0.331091             0.00821053932            0.000717918344           
       0.331771             0.00652305339            0.000623136202           
       0.332450             0.00678925473            0.000648066656           
       0.333129             0.00747319135            0.000678171571           
       0.333808             0.00646026788            0.000631372151           
       0.334487             0.00740209545            0.000679034377           
       0.335166             0.00662637336            0.000633066563           
       0.335846             0.00673812754            0.000649601019           
       0.336525             0.00642782626            0.000628203032           
       0.337204             0.00711951839            0.000662873022           
       0.337883             0.00710310229            0.000662986012           
       0.338562             0.00719041945             0.00067075022           
       0.339241             0.00727104083            0.000675763983           
       0.339921             0.00732480324             0.00066688338           
       0.340600             0.00659632816            0.000644871468           
       0.341279             0.00720699617            0.000666842914           
       0.341958             0.00607895755            0.000621076757           
       0.342637             0.00584016799            0.000600156194           
       0.343316             0.00545352303            0.000581628618           
       0.343995             0.00690136628            0.000665010257           
       0.344675             0.00671421195            0.000643876734           
       0.345354             0.00616296626            0.000620948246           
       0.346033             0.00576797697            0.000599154301           
       0.346712             0.00660578881            0.000645285061           
       0.347391             0.00548906916            0.000591860545           
       0.348070             0.00698668673            0.000658254505           
       0.348750             0.00592375883             0.00061487568           
       0.349429             0.00806423357            0.000708152862           
       0.350108             0.00514504371            0.000572446456           
       0.350787             0.00660356417            0.000637511436           
       0.351466             0.00548349869            0.000591636666           
       0.352145             0.00580637879            0.000609311158           
       0.352825             0.00646001697            0.000639781472           
       0.353504             0.00683362383            0.000657860551           
       0.354183             0.00697698008            0.000657066691           
       0.354862             0.00615997593            0.000631744683           
       0.355541             0.00554674241            0.000591624005           
       0.356220             0.00625358357            0.000629376948           
       0.356900              0.0050323884             0.00056995304           
       0.357579             0.00529105756            0.000577251471           
       0.358258             0.00628035925            0.000637609579           
       0.358937             0.00658922863            0.000640821763           
       0.359616             0.00594887083            0.000617390435           
       0.360295             0.00512767424            0.000573673102           
       0.360975             0.00591310147            0.000613409621           
       0.361654             0.00557764416            0.000598827273           
       0.362333             0.00621654567            0.000628979969           
       0.363012             0.00541018302            0.000594320015           
       0.363691             0.00462693387            0.000538774631           
       0.364370             0.00448689779            0.000537140745           
       0.365050             0.00513849084            0.000571745346           
       0.365729             0.00551731642            0.000598095011           
       0.366408             0.00384515007            0.000500407065           
       0.367087               0.004220721             0.00051586741           
       0.367766             0.00466924806            0.000553890819           
       0.368445             0.00543993112            0.000587242406           
       0.369124             0.00450849805            0.000538809211           
       0.369804             0.00591596557            0.000616220886           
       0.370483              0.0060085945            0.000623743611           
       0.371162              0.0055706057            0.000604061988           
       0.371841             0.00442412736            0.000528938477           
       0.372520             0.00435065733            0.000535042104           
       0.373199              0.0059060074            0.000615938845           
       0.373879             0.00488335176            0.000566563925           
       0.374558             0.00496441643            0.000562911277           
       0.375237             0.00479704109            0.000554247715           
       0.375916             0.00604540461            0.000634119521           
       0.376595               0.004083794             0.00051099685           
       0.377274              0.0050162592            0.000575404133           
       0.377954             0.00446776698             0.00053450498           
       0.378633             0.00465691512            0.000552598323           
       0.379312             0.00523399693            0.000585689558           
       0.379991             0.00421763893            0.000523036246           
       0.380670             0.00378730402            0.000504395457           
       0.381349             0.00404083553            0.000513523973           
       0.382029             0.00457682289            0.000554352122           
       0.382708             0.00481513502            0.000556184608           
       0.383387             0.00398791477            0.000517630557           
       0.384066             0.00495603438            0.000571756225           
       0.384745             0.00526493444            0.000591621746           
       0.385424             0.00375768707             0.00050151104           
       0.386104             0.00438570154            0.000535813464           
       0.386783             0.00398124075            0.000521551132           
       0.387462             0.00396243836            0.000507374197           
       0.388141             0.00371186806            0.000498913193           
       0.388820             0.00344538381            0.000477195945           
       0.389499             0.00388548994            0.000509611063           
       0.390178             0.00595027335            0.000633155569           
       0.390858             0.00412568103            0.000522951395           
       0.391537             0.00339189116            0.000479012313           
       0.392216             0.00443427461            0.000540827897           
       0.392895             0.00406038563            0.000519268603           
       0.393574             0.00344203106            0.000476911689           
       0.394253             0.00387819649            0.000508504582           
       0.394933             0.00478735825            0.000571429391           
       0.395612             0.00380352952            0.000494545231           
       0.396291             0.00409486092            0.000523582432           
       0.396970             0.00401427114            0.000513811569           
       0.397649             0.00384806801            0.000504611301           
       0.398328             0.00420726276            0.000525317973           
       0.399008             0.00281679928             0.00042889948           
       0.399687             0.00382369531            0.000501654705           
       0.400366             0.00443890508            0.000538439495           
       0.401045             0.00337742887            0.000468781196           
       0.401724             0.00411252831            0.000518150408           
       0.402403             0.00425545071            0.000531185212           
       0.403083             0.00449746439            0.000538206707           
       0.403762             0.00325257146            0.000459954609           
       0.404441             0.00382925383            0.000502245312           
       0.405120             0.00412832476            0.000519779611           
       0.405799             0.00447816157            0.000539003235           
       0.406478             0.00447497444            0.000538824928           
       0.407158             0.00412732654            0.000516500778           
       0.407837             0.00386987199            0.000504546612           
       0.408516             0.00392892468            0.000503958998           
       0.409195             0.00316457037            0.000457419433           
       0.409874             0.00380986169            0.000508876769           
       0.410553             0.00341777363            0.000487164454           
       0.411233             0.00277473619             0.00043667529           
       0.411912             0.00333186041            0.000485290239           
       0.412591             0.00239598098             0.00041425204           
       0.413270             0.00371885715            0.000513640856           
       0.413949             0.00292756651            0.000460708118           
       0.414628             0.00351193953            0.000503692566           
       0.415307             0.00225745436            0.000408324774           
       0.415987             0.00417828696            0.000550936718           
       0.416666             0.00376884921            0.000520099114           
       0.417345              0.0036822444            0.000522673573           
       0.418024             0.00434138077            0.000567543612           
       0.418703             0.00314739598            0.000482350143           
       0.419382             0.00194422753            0.000377247894           
       0.420062             0.00298570299            0.000468804397           
       0.420741             0.00346682598            0.000507852824           
       0.421420             0.00356850323            0.000517200391           
       0.422099             0.00350259687            0.000512415387           
       0.422778             0.00294097755            0.000472083079           
       0.423457             0.00274907423            0.000459214843           
       0.424137              0.0021967505            0.000403810114           
       0.424816             0.00262281776            0.000450457453           
       0.425495             0.00285176146            0.000469261878           
       0.426174              0.0021517023             0.00040775736           
       0.426853             0.00181639011            0.000372365315           
       0.427532             0.00255543299             0.00044540317           
       0.428212             0.00180015323            0.000376299151           
       0.428891               0.002724164            0.000461855583           
       0.429570             0.00266006639            0.000456701728           
       0.430249             0.00168887634            0.000362013388           
       0.430928             0.00235057758              0.0004364229           
       0.431607             0.00272231914            0.000461596695           
       0.432287             0.00229583214            0.000427004461           
       0.432966             0.00161863647             0.00036169322           
       0.433645             0.00209980432            0.000412390271           
       0.434324             0.00287442017               0.000479588           
       0.435003             0.00288399294            0.000481206409           
       0.435682             0.00334738573            0.000522678426           
       0.436361             0.00163503026            0.000364806831           
       0.437041             0.00145679843            0.000343890223           
       0.437720              0.0017991034            0.000384005899           
       0.438399             0.00183285696            0.000389613955           
       0.439078             0.00204470285            0.000423447804           
       0.439757             0.00252884666            0.000468017728           
       0.440436             0.00283787144            0.000506963005           
       0.441116             0.00219453707            0.000453101508           
       0.441795             0.00295833485            0.000526708871           
       0.442474             0.00353056344            0.000577003296           
       0.443153             0.00195951192            0.000439891715           
       0.443832             0.00273669055            0.000520734193           
       0.444511             0.00233462714            0.000478796249           
       0.445191             0.00265818418            0.000523325046           
       0.445870              0.0017427753            0.000423751788           
       0.446549             0.00220125291            0.000481261935           
       0.447228              0.0020679064            0.000463821625           
       0.447907             0.00202521311            0.000464516506           
       0.448586             0.00258964547            0.000537912698           
       0.449266              0.0020850997            0.000478235518           
       0.449945             0.00185653165            0.000449422237           
       0.450624             0.00387122132            0.000659280075           
       0.451303             0.00197708516            0.000477256788           
       0.451982               0.001725611            0.000443116353           
       0.452661             0.00225980426            0.000516533196           
       0.453341            0.000511703682            0.000246655834           
       0.454020             0.00217001691            0.000508715531           
       0.454699             0.00186357714            0.000475735585           
       0.455378             0.00283054152             0.00058662385           
       0.456057             0.00155592424            0.000442664826           
       0.456736              0.0013083604            0.000404657967           
       0.457416             0.00230462201            0.000537077037           
       0.458095               0.001355256            0.000417818321           
       0.458774             0.00230756332            0.000552402392           
       0.459453             0.00140195672            0.000432743841           
       0.460132             0.00159512882            0.000451626754           
       0.460811             0.00267454967              0.0006066183           
       0.461490              0.0011592783            0.000395316041           
       0.462170             0.00120315554            0.000409012398           
       0.462849             0.00136461787            0.000438418438           
       0.463528             0.00205604541            0.000536897472           
       0.464207             0.00141324037             0.00045345487           
       0.464886            0.000963835922            0.000371563183           
       0.465565             0.00288723295            0.000650154839           
       0.466245             0.00130574958            0.000438582613           
       0.466924              0.0010562938            0.000403787971           
       0.467603             0.00219666052            0.000569943279           
       0.468282            0.000600177481            0.000304977837           
       0.468961             0.00155752424            0.000494526436           
       0.469640              0.0018960159            0.000547800204           
       0.470320             0.00157533974            0.000499675879           
       0.470999             0.00161267596            0.000510330902           
       0.471678            0.000665476843            0.000330978144           
       0.472357             0.00133026613            0.000469259256           
       0.473036            0.000511118411            0.000292709649           
       0.473715             0.00102982426            0.000418737674           
       0.474395            0.000381322217            0.000258326369           
       0.475074            0.000202723953            0.000188359647           
       0.475753            0.000528024415            0.000301369059           
       0.476432             0.00115126639            0.000461200186           
       0.477111              0.0014725578             0.00051529255           
       0.477790             0.00112208815            0.000452215481           
       0.478470             0.00153650318            0.000536172181           
       0.479149            0.000811617136            0.000393715123           
       0.479828            0.000244740013            0.000215692683           
       0.480507             0.00122145098            0.000485744953           
       0.481186             0.00107516591            0.000466003651           
       0.481865            0.000845307408            0.000408081919           
       0.482545            8.10231904e-05            0.000127825149           
       0.483224            0.000286644982            0.000242070162           
       0.483903           -0.000121316569                         0           
       0.484582            0.000552561987            0.000346938729           
       0.485261             0.00090752004             0.00043335664           
       0.485940            0.000783950882            0.000419022466           
       0.486619            0.000531363438            0.000341181033           
       0.487299           -9.57405506e-05                         0           
       0.487978           -0.000104191484                         0           
       0.488657             0.00013477499             0.00017991877           
       0.489336           -0.000320167085                         0           
       0.490015           -0.000320186687                         0           
       0.490694           -7.09098867e-05                         0           
       0.491374            0.000161049395            0.000197692752           
       0.492053           -0.000320244891                         0           
       0.492732           -6.53407374e-05                         0           
       0.493411           -0.000320283875                         0           
       0.494090           -0.000320303622                         0           
       0.494769           -5.25985562e-05                         0           
       0.495449           -0.000320342624                         0           
       0.496128           -0.000320362321                         0           
       0.496807           -3.91269704e-05                         0           
       0.497486           -4.98532581e-05                         0           
       0.498165           -0.000320421409                         0           
       0.498844           -0.000320441053                         0           
       0.499524           -0.000320460789                         0           
       0.500203           -0.000320480838                         0           
       0.500882             0.00058746855            0.000420835062           
       0.501561            0.000278171263             0.00028959369           
       0.502240           -2.71810267e-05                         0           
       0.502919            0.000626590158            0.000446012873           
       0.503599            0.000877910487            0.000515163284           
       0.504278           -0.000320600303                         0           
       0.504957           -0.000320620317                         0           
       0.505636            6.90266794e-06            4.74504525e-05           
       0.506315           -0.000320660415                         0           
       0.506994           -0.000320680266                         0           
       0.507673            3.12089319e-05            0.000104214039           
       0.508353           -0.000320720306                         0           
       0.509032           -0.000320740449                         0           
       0.509711           -0.000320760599                         0           
       0.510390            0.000402913729            0.000381757998           
       0.511069             0.00112161529            0.000638895682           
       0.511748           -0.000320821783                         0           
       0.512428           -0.000320842245                         0           
       0.513107            6.11017019e-05             0.00015264324           
       0.513786            8.96434972e-05            0.000190095195           
       0.514465           -0.000320903157                         0           
       0.515144           -0.000320923698                         0           
       0.515823           -0.000320944052                         0           
       0.516503           -0.000320964597                         0           
       0.517182            -0.00032098514                         0           
       0.517861            0.000105654112            0.000212565686           
       0.518540           -0.000321026242                         0           
       0.519219           -0.000321046731                         0           
       0.519898            0.000629175885            0.000542455838           
       0.520578             0.00012779631            0.000238969246           
       0.521257             -0.0003211088                         0           
       0.521936           -0.000321129401                         0           
       0.522615           -0.000321150249                         0           
       0.523294           -0.000321171175                         0           
       0.523973           -0.000321191811                         0           
       0.524653           -0.000321212298                         0           
       0.525332           -0.000321233084                         0           
       0.526011           -0.000321254244                         0           
       0.526690            0.000683219652            0.000579138763           
       0.527369           -0.000321296307                         0           
       0.528048           -0.000321317401                         0           
       0.528728            -0.00032133847                         0           
       0.529407           -0.000321359442                         0           
       0.530086           -0.000321380305                         0           
       0.530765           -0.000321401198                         0           
       0.531444           -0.000321422316                         0           
       0.532123           -0.000321443808                         0           
       0.532802            0.000228153155            0.000352477033           
       0.533482           -0.000321486369                         0           
       0.534161           -0.000321507647                         0           
       0.534840           -0.000321528742                         0           
       0.535519           -0.000321550228                         0           
       0.536198            0.000270266891            0.000400344591           
       0.536877           -0.000321592463                         0           
       0.537557           -0.000321613795                         0           
       0.538236           -0.000321635318                         0           
       0.538915           -0.000321656834                         0           
       0.539594           -0.000321678321                         0           
       0.540273           -0.000321700144                         0           
       0.540952           -0.000321721724                         0           
       0.541632           -0.000321742909                         0           
       0.542311           -0.000321764288                         0           
       0.542990           -0.000321785908                         0           
       0.543669             0.00220725059             0.00118930134           
       0.544348           -0.000321829481                         0           
       0.545027           -0.000321851208                         0           
       0.545707              -0.000321873                         0           
       0.546386           -0.000321894854                         0           
       0.547065           -0.000321916445                         0           
       0.547744           -0.000321938135                         0           
       0.548423           -0.000321960063                         0           
       0.549102              0.0012353516             0.00100990718           
       0.549782           -0.000322003855                         0           
       0.550461           -0.000322025954                         0           
       0.551140           -0.000322048186                         0           
       0.551819           -0.000322070156                         0           
       0.552498           -0.000322092314                         0           
       0.553177           -0.000322114091                         0           
       0.553856           -0.000322135946                         0           
       0.554536           -0.000322157874                         0           
       0.555215           -0.000322180135                         0           
       0.555894           -0.000322202344                         0           
       0.556573           -0.000322224685                         0           
       0.557252            0.000586770667            0.000729540849           
       0.557931           -0.000322269229                         0           
       0.558611            -0.00032229197                         0           
       0.559290           -0.000322314132                         0           
       0.559969            -0.00032233575                         0           
       0.560648            -0.00032235794                         0           
       0.561327           -0.000322380625                         0           
       0.562006           -0.000322403205                         0           
       0.562686           -0.000322425797                         0           
       0.563365           -0.000322448473                         0           
       0.564044           -0.000322471034                         0           
       0.564723           -0.000322493546                         0           
       0.565402           -0.000322515638                         0           
       0.566081           -0.000322537877                         0           
       0.566761            0.000736697759            0.000916102411           
       0.567440            -0.00032258329                         0           
       0.568119           -0.000322606044                         0           
       0.568798           -0.000322629118                         0           
       0.569477           -0.000322652043                         0           
       0.570156            -0.00032267508                         0           
       0.570836            -0.00032269803                         0           
       0.571515           -0.000322720495                         0           
       0.572194           -0.000322743611                         0           
       0.572873           -0.000322766198                         0           
       0.573552           -0.000322788652                         0           
       0.574231             0.00114850159             0.00131717093           
       0.574911           -0.000322835049                         0           
       0.575590           -0.000322858085                         0           
       0.576269           -0.000322881049                         0           
       0.576948           -0.000322904455                         0           
       0.577627           -0.000322927148                         0           
       0.578306            -0.00032295016                         0           
       0.578985           -0.000322973369                         0           
       0.579665           -0.000322996444                         0           
       0.580344           -0.000323019869                         0           
       0.581023             0.00220222296             0.00235552198           
       0.581702           -0.000323066451                         0           
       0.582381           -0.000323089423                         0           
       0.583060            -0.00032311308                         0           
       0.583740              0.0105390762             0.00544511119           
       0.584419           -0.000323159729                         0           
       0.585098           -0.000323183064                         0           
       0.585777           -0.000323206582                         0           
       0.586456           -0.000323230481                         0           
       0.587135           -0.000323253745                         0           
       0.587815           -0.000323276759                         0           
       0.588494           -0.000323300489                         0           
       0.589173           -0.000323324764                         0           
       0.589852           -0.000323347749                         0           
       0.590531           -0.000323371601                         0           
       0.591210           -0.000323394903                         0           
       0.591890           -0.000323418654                         0           
       0.592569           -0.000323441611                         0           
       0.593248              0.0157504915              0.0112762063           
       0.593927           -0.000323490573                         0           
       0.594606           -0.000323514927                         0           
       0.595285           -0.000323537829                         0           
       0.595965           -0.000323559201                         0           
       0.596644           -0.000323581194                         0           
