################################################################################
# EDF_DataBlockID                     0.Image.Psd
# EDF_BinarySize                      2105344
# EDF_HeaderSize                      2560
# ByteOrder                           LowByteFirst
# DataType                            FloatValue
# Dim_1                               512
# Dim_2                               1028
# Image                               0
# HeaderID                            EH:000000:000000:000000
# Size                                2105344
# Center_1                            304.9000
# Center_2                            588.7000
# Comment                             Xenocs_Cell_Window - 20251028_20perc_iodine_1.23mg
# DDummy                              0.6
# Date                                2025-11-03T08:48:49
# Delta                               21.910000
# Dummy                               -1.5
# ExposureTime                        360
# Gamma                               15.360000
# Intensity1                          8.82448e-10
# PSize_1                             7.5e-05
# PSize_2                             7.5e-05
# Pressure                            0.0330276
# SampleDistance                      0.115750
# SampleEnvKind                       large
# SampleEnvPN                         ElectroChemical cell
# SampleEnvSN                         1141
# Thickness                           0
# Wavelength                          1.541891e-10
# Wavelength                          1.54189e-10
# aux                                 0
# aux_dial                            0.002375
# beamx                               588.434
# beamx_dial                          588.434
# beamz                               657.808
# beamz_dial                          657.808
# det0x                               0
# det0x_dial                          6.36945
# det0xvd                             0
# det0xvd_dial                        0
# det0y                               450.002
# det0y_dial                          481.635
# det0z                               0
# det0z_dial                          1.23302
# det0zvd                             0
# det0zvd_dial                        0
# mag                                 1.818
# mag_dial                            1.818
# om                                  0.2499
# om_dial                             -0.610199
# phi                                 -0.0120535
# phi_dial                            0
# ry                                  0.599993
# ry_dial                             0.599993
# s1bot                               0.8
# s1bot_dial                          -1.66094
# s1hl                                0.8
# s1hl_dial                           -0.608437
# s1hr                                0.8
# s1hr_dial                           0.970938
# s1top                               0.8
# s1top_dial                          -0.461562
# s2bot                               0.45
# s2bot_dial                          1.36109
# s2hl                                0.45
# s2hl_dial                           -0.83375
# s2hr                                0.45
# s2hr_dial                           -0.118594
# s2top                               0.45
# s2top_dial                          1.44734
# w2theta                             32
# w2theta_dial                        32
# waxsch                              19.2605
# waxsch_dial                         -32.7355
# waxsh                               137.085
# waxsh_dial                          -43.5338
# waxsth                              26.0607
# waxsth_dial                         -19.4086
# waxsz                               67.0407
# waxsz_dial                          -23.7954
# wind                                65.9854
# wind_dial                           66.0041
# wpsi                                124
# wpsi_dial                           124
# wstod                               115
# wstod_dial                          115
# x                                   0
# x_dial                              1.00969
# z                                   0
# z_dial                              13.3172
# CountCutoff                         6807993
# DetectorModel                       Dectris EIGER2 Si 500K, S/N E-01-0554
# ThresholdSetting                    4023.88989258
# Saturation                          0
# FlatField                           Corrected
# BackgroundReductionExtra            0.02
# BackgroundCorrectionConstant        0.0026712
# Detector                            0
# Monitor                             0
# Pil_Roi0                            0
# SumForIntensity1                    3.17681e+08
# TransmittedFlux                     882448
# det                                 0
# mon                                 0
# pilai0                              3.17681e+08
# pilai1                              797657
# pilct0                              5.49479e+08
# pilct1                              797657
# pilroi0                             0
# pilroi1                             0
# sec                                 1
# title                               20251028_20perc_iodine_1.23mg_1_01258.edf
# usaxs0                              0
# Operation                           Azimuthal average I(q)
# Error_model                         ErrorModel.poisson
# Geometrical_correction              True
# Transmission_correction             True
# Thickness_correction                False
# Binning mode                        Uniform
# Binning factor                      1.0
# Psi                                 0.0
# Omega                               0.2499
# MaskInvalidPixels                   True
# DetectorEdge                        3
# MaskFiles                           ['WAXS_corrected.edf']
################################################################################
    q(A⁻¹)                Intensity(a.u.)            Sigma_I(a.u.)            
       0.693100              0.0080119997             0.00587408152           
       0.695741              0.0136060674             0.00624659768           
       0.698381           -2.29888148e-05                         0           
       0.701021               0.017106945              0.0121290978           
       0.703662           -2.29610178e-05                         0           
       0.706302             0.00160175969             0.00165858436           
       0.708942              0.0111472816              0.0056473464           
       0.711583             0.00214220972             0.00214376278           
       0.714223             0.00279091223             0.00282500189           
       0.716864             0.00847540341             0.00322104377           
       0.719504             0.00568982135             0.00284795818           
       0.722144              0.0109576996             0.00366008191           
       0.724785             0.00771703538             0.00245012228           
       0.727425              0.0113527257             0.00402024605           
       0.730065             0.00776586912              0.0023520081           
       0.732706              0.0039257011             0.00140427168           
       0.735346              0.0067445428             0.00239934607           
       0.737987             0.00761687231             0.00180178117           
       0.740627              0.0103771877             0.00313790669           
       0.743267             0.00423104568             0.00134204231           
       0.745908             0.00753746172             0.00194340642           
       0.748548             0.00805460709             0.00185177274           
       0.751189             0.00309243696             0.00154608178           
       0.753829              0.0104935786             0.00261799584           
       0.756469             0.00673922163             0.00169178573           
       0.759110             0.00803918966             0.00194722959           
       0.761750             0.00699392726             0.00160595082           
       0.764390             0.00645241164             0.00161450051           
       0.767031             0.00846815832             0.00160166173           
       0.769671             0.00565440592             0.00163261749           
       0.772312              0.0103725685             0.00168339279           
       0.774952             0.00848033467             0.00205545757           
       0.777592             0.00606038947             0.00126563792           
       0.780233             0.00650808642             0.00158237582           
       0.782873             0.00666196273             0.00153118164           
       0.785513             0.00400109137             0.00126858223           
       0.788154             0.00642490217             0.00134476537           
       0.790794             0.00883748433             0.00188554379           
       0.793435             0.00713024293             0.00152150952           
       0.796075             0.00632797973             0.00138076959           
       0.798715             0.00836709875             0.00187624206           
       0.801356             0.00770917299             0.00155003402           
       0.803996             0.00645435923             0.00144596112           
       0.806637             0.00385841313            0.000889706233           
       0.809277             0.00625859388             0.00122648429           
       0.811917             0.00716302783             0.00122661867           
       0.814558             0.00744925317             0.00130007222           
       0.817198             0.00635705994             0.00114099647           
       0.819838              0.0085823164             0.00134174697           
       0.822479             0.00606231349             0.00132420937           
       0.825119             0.00711979825                0.00122142           
       0.827760             0.00755261434             0.00127430291           
       0.830400             0.00643475469             0.00110704486           
       0.833040             0.00708003809             0.00121660804           
       0.835681             0.00757113618             0.00143023862           
       0.838321             0.00742677098             0.00118894484           
       0.840961             0.00855275183             0.00139014665           
       0.843602             0.00660576799              0.0011203611           
       0.846242             0.00816350184             0.00124528807           
       0.848883             0.00656753952             0.00114303546           
       0.851523             0.00616700408              0.0010938731           
       0.854163             0.00677198245               0.001219009           
       0.856804             0.00619593987             0.00104840367           
       0.859444             0.00729757637             0.00111481987           
       0.862085             0.00757356393             0.00118368886           
       0.864725             0.00755802999             0.00121014042           
       0.867365             0.00631558575             0.00102577989           
       0.870006             0.00663222353             0.00100169342           
       0.872646             0.00749488278             0.00111664062           
       0.875286             0.00707463073             0.00104372454           
       0.877927             0.00657932538            0.000971249971           
       0.880567             0.00571499283            0.000937813442           
       0.883208             0.00678678965             0.00101234832           
       0.885848             0.00777837637             0.00112529265           
       0.888488             0.00818346437             0.00108258963           
       0.891129              0.0086067589              0.0011399801           
       0.893769             0.00801959134             0.00105311866           
       0.896410             0.00719153533            0.000929803473           
       0.899050             0.00930280002             0.00116298076           
       0.901690             0.00792538292              0.0011692828           
       0.904331             0.00636912484             0.00092929805           
       0.906971             0.00642683115             0.00099308856           
       0.909611             0.00722027282            0.000958209457           
       0.912252             0.00785064949             0.00103203068           
       0.914892             0.00727941549             0.00108598424           
       0.917533             0.00838938298             0.00110288375           
       0.920173             0.00735529328             0.00095812171           
       0.922813             0.00784489336             0.00103836497           
       0.925454             0.00757521362            0.000918807176           
       0.928094             0.00747892577            0.000974650105           
       0.930734             0.00957945894             0.00118756738           
       0.933375              0.0079152316              0.0010688803           
       0.936015             0.00618094475            0.000857852894           
       0.938656             0.00715152846            0.000989894473           
       0.941296             0.00720446522            0.000900431152           
       0.943936             0.00855508529            0.000962228148           
       0.946577             0.00637784861            0.000825319799           
       0.949217             0.00867639441            0.000885216238           
       0.951858             0.00860354382            0.000922746285           
       0.954498              0.0080844707             0.00103534189           
       0.957138             0.00820173722            0.000987932783           
       0.959779               0.008675827             0.00100165068           
       0.962419             0.00693186146            0.000889379985           
       0.965059             0.00818054423             0.00101615796           
       0.967700             0.00792604672             0.00102443061           
       0.970340             0.00806743317            0.000914569311           
       0.972981             0.00789235695            0.000824169259           
       0.975621             0.00750325184            0.000854887768           
       0.978261             0.00807536014            0.000842692796           
       0.980902             0.00790205949            0.000997362593           
       0.983542             0.00740342795            0.000854908987           
       0.986182             0.00781779097            0.000862513285           
       0.988823             0.00718048337            0.000802639652           
       0.991463             0.00724959269             0.00086044383           
       0.994104             0.00815181816            0.000890076003           
       0.996744             0.00910601496            0.000959534949           
       0.999384               0.008091935            0.000808952096           
       1.002025              0.0066403266             0.00081791267           
       1.004665             0.00656830963            0.000743406622           
       1.007306             0.00858675214            0.000845639796           
       1.009946             0.00728147513            0.000794184182           
       1.012586             0.00713345389            0.000765586336           
       1.015227             0.00853385978            0.000899596702           
       1.017867             0.00781214536            0.000827208331           
       1.020507             0.00838486007            0.000830114904           
       1.023148             0.00927057972            0.000941837976           
       1.025788             0.00908592949            0.000854947449           
       1.028429             0.00875434015            0.000879201986           
       1.031069             0.00815074264             0.00079833084           
       1.033709             0.00721912408             0.00079865799           
       1.036350             0.00775875843            0.000743630424           
       1.038990             0.00789321643            0.000763829381           
       1.041630             0.00950146754            0.000874084089           
       1.044271             0.00860931235             0.00078249961           
       1.046911              0.0087518899            0.000829875041           
       1.049552             0.00722375152            0.000792121292           
       1.052192             0.00717750501            0.000720988124           
       1.054832             0.00891117777            0.000810665638           
       1.057473             0.00803729787            0.000758949982           
       1.060113             0.00716226568            0.000698729465           
       1.062754             0.00902676945            0.000800881499           
       1.065394             0.00858814099            0.000825910248           
       1.068034             0.00809038623            0.000729363198           
       1.070675             0.00939250094            0.000819757324           
       1.073315              0.0077302447            0.000754348706           
       1.075955             0.00780280951             0.00071548301           
       1.078596             0.00954409486            0.000840994974           
       1.081236             0.00773608719            0.000725028515           
       1.083877             0.00888529089             0.00077004616           
       1.086517             0.00804221668            0.000785565039           
       1.089157             0.00810301327            0.000818186928           
       1.091798             0.00904432501            0.000757838234           
       1.094438             0.00895772599             0.00075176714           
       1.097078             0.00869316131            0.000710296124           
       1.099719             0.00922769131            0.000791562152           
       1.102359              0.0098936336            0.000767590748           
       1.105000             0.00923576942            0.000829288915           
       1.107640             0.00972504222            0.000813667228           
       1.110280             0.00859157514            0.000697804949           
       1.112921             0.00790938955            0.000719218482           
       1.115561             0.00905361405            0.000731331381           
       1.118202             0.00852626742            0.000710381635           
       1.120842             0.00810234713            0.000727818457           
       1.123482             0.00907920079            0.000767079654           
       1.126123             0.00863685523            0.000717610773           
       1.128763              0.0093509511            0.000751807272           
       1.131403             0.00902500618            0.000711693019           
       1.134044             0.00904012995            0.000732947203           
       1.136684             0.00804470044            0.000737170818           
       1.139325             0.00871421007            0.000706774069           
       1.141965             0.00828959759             0.00069389689           
       1.144605             0.00886611853              0.0006842535           
       1.147246             0.00818687088            0.000672915254           
       1.149886             0.00786304079            0.000657131374           
       1.152527             0.00819238426            0.000680506263           
       1.155167             0.00957400793             0.00069971942           
       1.157807             0.00933939055            0.000740974502           
       1.160448              0.0108426896            0.000779643641           
       1.163088             0.00855884361            0.000660718632           
       1.165728              0.0100058547            0.000733478964           
       1.168369             0.00897441013            0.000701063521           
       1.171009             0.00817662709            0.000649418879           
       1.173650             0.00933429936            0.000712076988           
       1.176290             0.00913331017            0.000688326455           
       1.178930             0.00895934331            0.000668166763           
       1.181571             0.00931374918            0.000694763485           
       1.184211             0.00907143812            0.000688097355           
       1.186851             0.00937940144            0.000684066925           
       1.189492             0.00931095615            0.000676981146           
       1.192132             0.00999987837            0.000693707608           
       1.194773              0.0100108746            0.000697121572           
       1.197413             0.00914308261            0.000638334797           
       1.200053             0.00937124033              0.0006626705           
       1.202694             0.00867192902            0.000606193592           
       1.205334             0.00959250141            0.000687087533           
       1.207975             0.00994247545            0.000667701207           
       1.210615             0.00784820602            0.000654428949           
       1.213255              0.0101503438             0.00066645696           
       1.215896             0.00869826984            0.000628125909           
       1.218536             0.00986920767            0.000643339226           
       1.221176              0.0105534987            0.000723283614           
       1.223817             0.00938105008            0.000640133849           
       1.226457             0.00990417301            0.000670990892           
       1.229098             0.00853959629            0.000623024359           
       1.231738             0.00940278232            0.000656971827           
       1.234378              0.0100731362            0.000638950425           
       1.237019             0.00949249298            0.000639173792           
       1.239659              0.0112147299            0.000688689575           
       1.242299               0.010824596            0.000668008251           
       1.244940             0.00981950415            0.000618782989           
       1.247580              0.0106889701             0.00066534052           
       1.250221             0.00936013119             0.00061876958           
       1.252861              0.0105543633            0.000625522804           
       1.255501              0.0103218515            0.000671675202           
       1.258142              0.0103316755            0.000631459646           
       1.260782              0.0103043033            0.000644267555           
       1.263423              0.0108192294            0.000634347715           
       1.266063               0.010465037            0.000639456962           
       1.268703              0.0100510633            0.000621481357           
       1.271344              0.0107535232            0.000664618046           
       1.273984               0.010224297            0.000625895598           
       1.276624              0.0103553126            0.000618059486           
       1.279265              0.0102969662            0.000626550703           
       1.281905              0.0108742157            0.000646731107           
       1.284546              0.0117530569            0.000649894414           
       1.287186              0.0112358008            0.000623426676           
       1.289826             0.00975820761            0.000612315515           
       1.292467             0.00917850408            0.000580769202           
       1.295107             0.00976029595            0.000592943676           
       1.297747             0.00897269901            0.000544023603           
       1.300388              0.0112830142             0.00066503661           
       1.303028              0.0109302563            0.000624880389           
       1.305669               0.010623166            0.000630708177           
       1.308309              0.0103059798            0.000615103424           
       1.310949             0.00998129657            0.000604728321           
       1.313590              0.0118480913            0.000638261666           
       1.316230              0.0109919792            0.000656044726           
       1.318871              0.0109458896            0.000641166804           
       1.321511              0.0105351976            0.000617364331           
       1.324151              0.0105220079            0.000598686628           
       1.326792              0.0110785881            0.000618114842           
       1.329432              0.0103089091            0.000592049098           
       1.332072              0.0112987682            0.000610584659           
       1.334713              0.0114108007            0.000633300538           
       1.337353             0.00978019311            0.000562280669           
       1.339994              0.0113376726            0.000635305493           
       1.342634              0.0111824046            0.000605032107           
       1.345274              0.0113055042            0.000629588379           
       1.347915              0.0112827784            0.000611586756           
       1.350555              0.0119441988            0.000640278443           
       1.353195              0.0111366477            0.000621291516           
       1.355836              0.0108069953            0.000602483703           
       1.358476              0.0120120596             0.00061686296           
       1.361117              0.0106952012             0.00058286791           
       1.363757               0.011392027            0.000619924393           
       1.366397              0.0111732347            0.000595363836           
       1.369038              0.0118461647            0.000619134285           
       1.371678              0.0109568011            0.000590190369           
       1.374319              0.0107439326            0.000579396713           
       1.376959              0.0109907884            0.000580121822           
       1.379599              0.0107082715            0.000613672345           
       1.382240              0.0116514416            0.000601624051           
       1.384880              0.0118438093            0.000642495654           
       1.387520              0.0107045225            0.000580107779           
       1.390161              0.0108178588            0.000553872068           
       1.392801              0.0111940595             0.00058702951           
       1.395442              0.0115498753            0.000604430128           
       1.398082               0.010762994            0.000546401118           
       1.400722              0.0115845638            0.000593785221           
       1.403363               0.011291913            0.000617085781           
       1.406003              0.0110798567            0.000572061041           
       1.408644              0.0104246833            0.000581283138           
       1.411284              0.0116607214            0.000582141135           
       1.413924              0.0108608633            0.000559737905           
       1.416565              0.0113026122            0.000568764705           
       1.419205              0.0114350288            0.000596777722           
       1.421845              0.0120587705            0.000612477869           
       1.424486              0.0107330738             0.00055542855           
       1.427126              0.0109156363            0.000581869209           
       1.429767              0.0120130674            0.000574329761           
       1.432407              0.0118683719            0.000597418774           
       1.435047              0.0115366967            0.000553179888           
       1.437688              0.0108025951            0.000543294229           
       1.440328              0.0107545663            0.000553258724           
       1.442968              0.0106396752            0.000562625239           
       1.445609              0.0108430091            0.000549958216           
       1.448249              0.0106744592            0.000559482966           
       1.450890              0.0103644496            0.000547700497           
       1.453530              0.0105717212            0.000578706086           
       1.456170              0.0102886426            0.000554077197           
       1.458811               0.009474582            0.000508428237           
       1.461451                0.01151416             0.00056195758           
       1.464092              0.0104090055            0.000537801638           
       1.466732              0.0118643669            0.000569235081           
       1.469372                 0.0101809            0.000514965117           
       1.472013              0.0104775956            0.000563434894           
       1.474653              0.0111634332            0.000572611488           
       1.477293              0.0107094231            0.000572667527           
       1.479934              0.0107357769            0.000547116388           
       1.482574              0.0108729225            0.000532619381           
       1.485215               0.010851363            0.000542001383           
       1.487855              0.0103126372            0.000535346193           
       1.490495              0.0113757276            0.000560192152           
       1.493136              0.0112536172            0.000549540243           
       1.495776              0.0113761238            0.000550007465           
       1.498416             0.00995527782            0.000531348567           
       1.501057              0.0103825565            0.000530672672           
       1.503697               0.010680035            0.000526197206           
       1.506338              0.0108197406            0.000539305769           
       1.508978              0.0105096919            0.000526295325           
       1.511618              0.0110219433            0.000573999118           
       1.514259              0.0111166593            0.000556545266           
       1.516899              0.0115282427            0.000551830911           
       1.519540              0.0100829278            0.000524403102           
       1.522180              0.0103644323             0.00053634357           
       1.524820              0.0112931289            0.000556716387           
       1.527461              0.0100890316            0.000528803339           
       1.530101              0.0100300873            0.000521983205           
       1.532741              0.0111662511            0.000547558028           
       1.535382              0.0109249901            0.000550329647           
       1.538022              0.0105239348            0.000508834753           
       1.540663              0.0106892384            0.000551564649           
       1.543303              0.0113501776            0.000527732585           
       1.545943              0.0101401992            0.000527954374           
       1.548584               0.010622948            0.000550075608           
       1.551224              0.0122723337            0.000546656788           
       1.553864             0.00961195396            0.000511214679           
       1.556505              0.0102788104            0.000510690369           
       1.559145              0.0106159108            0.000525354692           
       1.561786              0.0104116232            0.000520675989           
       1.564426             0.00979970044            0.000489431408           
       1.567066              0.0101250891             0.00052127461           
       1.569707             0.00984668691            0.000504824004           
       1.572347              0.0105183676            0.000539028162           
       1.574988             0.00927860714            0.000481880254           
       1.577628             0.00967726811            0.000513163491           
       1.580268              0.0100688896            0.000507161404           
       1.582909             0.00917791523            0.000513235867           
       1.585549              0.0110165691            0.000545975424           
       1.588189              0.0102372352            0.000514822647           
       1.590830             0.00978066785            0.000502579915           
       1.593470             0.00940211971            0.000512269281           
       1.596111             0.00970553712            0.000508139834           
       1.598751              0.0100454756            0.000500918947           
       1.601391             0.00956947142            0.000499693554           
       1.604032             0.00910584844            0.000497628657           
       1.606672             0.00859866689            0.000469835662           
       1.609312             0.00921737261            0.000507791975           
       1.611953             0.00937476107            0.000501130529           
       1.614593             0.00938413163            0.000491814974           
       1.617234               0.009115395            0.000502354278           
       1.619874             0.00909224396            0.000499734033           
       1.622514              0.0104179687            0.000527630285           
       1.625155             0.00951906789            0.000507333391           
       1.627795             0.00969159694            0.000499367625           
       1.630436             0.00883313661            0.000474249085           
       1.633076             0.00942985808            0.000496432863           
       1.635716             0.00907386163            0.000479395164           
       1.638357             0.00944775468            0.000490461704           
       1.640997              0.0101584946            0.000523981335           
       1.643637             0.00887643254            0.000476632348           
       1.646278             0.00959611901            0.000511149203           
       1.648918             0.00920574259            0.000502010041           
       1.651559             0.00857671913            0.000488316431           
       1.654199             0.00890243588            0.000483864774           
       1.656839             0.00936875709            0.000496549032           
       1.659480             0.00864510431            0.000494898442           
       1.662120             0.00907471696            0.000477553968           
       1.664761             0.00873944967            0.000486805638           
       1.667401             0.00924076646            0.000478440754           
       1.670041             0.00870061198            0.000471325679           
       1.672682             0.00848284153            0.000463476988           
       1.675322              0.0100294427              0.0005007191           
       1.677962              0.0090212853            0.000469648047           
       1.680603              0.0082257264            0.000449841815           
       1.683243             0.00843390659            0.000475227883           
       1.685884             0.00901145134            0.000494857568           
       1.688524             0.00860504996            0.000474222736           
       1.691164             0.00902047903            0.000485645129           
       1.693805             0.00903329644            0.000491328832           
       1.696445             0.00932513822            0.000502098238           
       1.699085             0.00867287542            0.000467994581           
       1.701726             0.00885589872            0.000455563181           
       1.704366             0.00893265386            0.000481998612           
       1.707007             0.00873025047            0.000465884717           
       1.709647             0.00885110706            0.000474395922           
       1.712287             0.00838093659            0.000465642139           
       1.714928              0.0082115892            0.000464629848           
       1.717568             0.00937888491            0.000467758657           
       1.720209             0.00893431855            0.000478191905           
       1.722849             0.00880062225            0.000472160533           
       1.725489             0.00820464969            0.000456275903           
       1.728130               0.009480203            0.000521224825           
       1.730770             0.00792524083             0.00045260905           
       1.733410             0.00844171433            0.000459781416           
       1.736051             0.00906809082            0.000479851033           
       1.738691             0.00870169864            0.000460528334           
       1.741332             0.00808197309            0.000456804074           
       1.743972             0.00789962479            0.000466375776           
       1.746612             0.00835776352            0.000460642855           
       1.749253             0.00794195246            0.000457905615           
       1.751893              0.0091613376            0.000488193749           
       1.754533             0.00895691771             0.00048226561           
       1.757174              0.0092206047            0.000484730777           
       1.759814             0.00780419604             0.00043918906           
       1.762455             0.00851738798             0.00046724308           
       1.765095             0.00834303322             0.00044237627           
       1.767735             0.00869908607            0.000465652693           
       1.770376             0.00791057517            0.000445218035           
       1.773016             0.00882902182            0.000467203626           
       1.775657             0.00888429965            0.000461920473           
       1.778297             0.00875062586            0.000454484757           
       1.780937             0.00883603723            0.000482043933           
       1.783578             0.00859173906            0.000463448115           
       1.786218             0.00876626191            0.000488546366           
       1.788858             0.00866778552            0.000461387612           
       1.791499             0.00932910928            0.000473289441           
       1.794139             0.00878222735             0.00045548196           
       1.796780             0.00887339402            0.000455632789           
       1.799420             0.00880956761            0.000451477054           
       1.802060             0.00851122176            0.000447350755           
       1.804701             0.00853342979            0.000429857852           
       1.807341             0.00869997778            0.000456073621           
       1.809981             0.00917351458            0.000469882539           
       1.812622             0.00908913595            0.000459296127           
       1.815262             0.00926407673            0.000473545105           
       1.817903             0.00905049344            0.000461119379           
       1.820543              0.0087421086            0.000460257048           
       1.823183             0.00846313045            0.000452604688           
       1.825824             0.00910602618            0.000448523085           
       1.828464             0.00880983255            0.000459936901           
       1.831105             0.00759279767            0.000415182379           
       1.833745             0.00890545201            0.000459244052           
       1.836385             0.00803740459            0.000448739191           
       1.839026             0.00798904975            0.000445973799           
       1.841666             0.00897207996             0.00047094006           
       1.844306             0.00785768349            0.000428698267           
       1.846947             0.00796014047            0.000435266407           
       1.849587             0.00773386591            0.000473759062           
       1.852228             0.00784631116            0.000431498649           
       1.854868             0.00781446151            0.000454888446           
       1.857508             0.00804135047             0.00045691912           
       1.860149             0.00793713821            0.000462196333           
       1.862789             0.00842974021            0.000459761921           
       1.865429             0.00755667586            0.000454389354           
       1.868070             0.00840126833            0.000472724243           
       1.870710             0.00846830812            0.000463664742           
       1.873351             0.00841899343            0.000468027949           
       1.875991             0.00747455839            0.000448192963           
       1.878631             0.00769375269            0.000446008354           
       1.881272             0.00825914471            0.000459009562           
       1.883912             0.00795951591            0.000468950382           
       1.886553             0.00794620198            0.000463319525           
       1.889193             0.00707963808            0.000436579795           
       1.891833             0.00838291073            0.000493376357           
       1.894474             0.00867634519            0.000497565764           
       1.897114             0.00784943823            0.000457965477           
       1.899754             0.00802723974            0.000465060979           
       1.902395             0.00880690744            0.000477599013           
       1.905035             0.00884541804            0.000506962195           
       1.907676             0.00838711668            0.000465270429           
       1.910316             0.00845326099            0.000479503826           
       1.912956             0.00773759347            0.000448664485           
       1.915597             0.00732620625            0.000439014399           
       1.918237              0.0067536843            0.000435318962           
       1.920878             0.00731426976            0.000451171021           
       1.923518             0.00874909988            0.000493652826           
       1.926158             0.00772312478            0.000457787539           
       1.928799             0.00832068451            0.000469667565           
       1.931439             0.00796567883            0.000471592306           
       1.934079             0.00764244994            0.000481545613           
       1.936720             0.00851737816             0.00047101326           
       1.939360             0.00687303291            0.000451400503           
       1.942001             0.00800524218             0.00044651064           
       1.944641             0.00747224814             0.00043988756           
       1.947281             0.00836636604            0.000461171858           
       1.949922             0.00649011769            0.000419550057           
       1.952562             0.00764509449            0.000469627107           
       1.955202             0.00773291168            0.000471740909           
       1.957843             0.00840707243            0.000479118889           
       1.960483             0.00769238534            0.000479153753           
       1.963124             0.00786450077            0.000474545173           
       1.965764             0.00855325918            0.000466694186           
       1.968404             0.00738708524            0.000429615794           
       1.971045             0.00776947953            0.000449209855           
       1.973685             0.00788778687            0.000474761482           
       1.976326             0.00785646608            0.000467305928           
       1.978966             0.00789030158            0.000472420951           
       1.981606             0.00824984943            0.000493139389           
       1.984247             0.00822984647            0.000489302963           
       1.986887             0.00823604635            0.000483623747           
       1.989527             0.00722496917            0.000448088476           
       1.992168             0.00830804133            0.000498561434           
       1.994808             0.00776573327            0.000479948846           
       1.997449             0.00744379472             0.00046024508           
       2.000089             0.00795847775            0.000474003673           
       2.002729             0.00765760416            0.000465236151           
       2.005370             0.00727179162            0.000448486644           
       2.008010             0.00837450518            0.000502296886           
       2.010650             0.00738514079            0.000475213644           
       2.013291              0.0075138705            0.000459897755           
       2.015931              0.0079791433            0.000470572654           
       2.018572             0.00735690267            0.000483298277           
       2.021212             0.00779816562            0.000488641301           
       2.023852             0.00824293054            0.000475481658           
       2.026493               0.007683915            0.000479586155           
       2.029133             0.00740736661            0.000461400846           
       2.031774             0.00722638393            0.000478277807           
       2.034414             0.00744810567            0.000446782371           
       2.037054             0.00734655327            0.000454973052           
       2.039695             0.00734944521            0.000451625703           
       2.042335              0.0068635819            0.000453559307           
       2.044975             0.00710566168            0.000455891963           
       2.047616              0.0070142519            0.000451824936           
       2.050256             0.00838153619            0.000498576697           
       2.052897             0.00679587217            0.000457221167           
       2.055537             0.00723463598            0.000455928608           
       2.058177             0.00807556554            0.000471712375           
       2.060818             0.00703818026            0.000461325151           
       2.063458             0.00696270773            0.000478162089           
       2.066098             0.00748052144            0.000467539099           
       2.068739             0.00737573192            0.000471469171           
       2.071379             0.00817971488            0.000509449546           
       2.074020              0.0074316753            0.000475043041           
       2.076660             0.00796145745            0.000495658533           
       2.079300             0.00647066335            0.000457797604           
       2.081941              0.0066489177            0.000424900241           
       2.084581             0.00740889587            0.000473424249           
       2.087222             0.00697231639            0.000442916123           
       2.089862             0.00744197249            0.000498385851           
       2.092502             0.00746505664            0.000483862635           
       2.095143             0.00692250748            0.000481160774           
       2.097783              0.0071421327             0.00047317667           
       2.100423             0.00738747269             0.00046371433           
       2.103064             0.00801966114            0.000501331434           
       2.105704             0.00825687661             0.00050617222           
       2.108345             0.00701916532            0.000448369098           
       2.110985             0.00695671093            0.000476755371           
       2.113625             0.00775158391            0.000507647499           
       2.116266             0.00783778586            0.000517704614           
       2.118906             0.00743008794            0.000469755767           
       2.121546             0.00733553403            0.000457845354           
       2.124187             0.00770768288             0.00049263629           
       2.126827             0.00743569001            0.000489266319           
       2.129468              0.0074133004            0.000489777016           
       2.132108              0.0070728321            0.000465444763           
       2.134748             0.00719118354            0.000467501938           
       2.137389             0.00694351596              0.0004792484           
       2.140029              0.0075942617            0.000448707588           
       2.142670             0.00759228825            0.000479481157           
       2.145310              0.0074875572            0.000463457584           
       2.147950             0.00775136143            0.000485354751           
       2.150591             0.00727867443            0.000465570123           
       2.153231             0.00748289923            0.000485908688           
       2.155871             0.00738673087            0.000466393917           
       2.158512             0.00811782593            0.000510163693           
       2.161152             0.00701518253            0.000459390072           
       2.163793              0.0064983134            0.000440152204           
       2.166433             0.00767434299            0.000491189471           
       2.169073             0.00652978968            0.000442996115           
       2.171714             0.00750138443            0.000471261844           
       2.174354             0.00770214711            0.000498971076           
       2.176995             0.00714511482            0.000478567069           
       2.179635             0.00706455313            0.000502850052           
       2.182275               0.006593464            0.000458667491           
       2.184916             0.00789922649            0.000484899966           
       2.187556             0.00747711653             0.00046703789           
       2.190196             0.00726623454            0.000481116708           
       2.192837             0.00768799164            0.000492190033           
       2.195477             0.00816895028            0.000483699999           
       2.198118             0.00699427925               0.000459042           
       2.200758              0.0073660516             0.00048330355           
       2.203398             0.00728578719            0.000483738143           
       2.206039             0.00681135104             0.00044266022           
       2.208679             0.00759229454            0.000478224486           
       2.211319             0.00660055213            0.000448468934           
       2.213960              0.0075495731            0.000486052983           
       2.216600             0.00770341307            0.000507908103           
       2.219241             0.00673780589            0.000453981251           
       2.221881             0.00611950676            0.000433539725           
       2.224521             0.00812647931            0.000505721411           
       2.227162              0.0070038238             0.00046009118           
       2.229802             0.00684643148            0.000469132075           
       2.232443             0.00831153929            0.000508743696           
       2.235083             0.00749326862            0.000497300801           
       2.237723             0.00730520663            0.000471205606           
       2.240364             0.00699487574            0.000472447658           
       2.243004             0.00792619463            0.000498902173           
       2.245644             0.00724764685            0.000481844571           
       2.248285             0.00705416099            0.000465846258           
       2.250925             0.00688092712            0.000462885515           
       2.253566             0.00753714433            0.000517919583           
       2.256206             0.00729190529            0.000499238059           
       2.258846             0.00689701532            0.000461875146           
       2.261487             0.00690314354            0.000484996135           
       2.264127             0.00808115323            0.000506794136           
       2.266767             0.00741062934            0.000498243677           
       2.269408             0.00765362528            0.000508420042           
       2.272048             0.00693951691            0.000481230958           
       2.274689             0.00723812471            0.000497951453           
       2.277329             0.00862702098             0.00051186384           
       2.279969             0.00737515791            0.000503769635           
       2.282610             0.00702374391            0.000477947937           
       2.285250             0.00721489821            0.000463644339           
       2.287891             0.00710306729            0.000493229192           
       2.290531             0.00683443117            0.000490316139           
       2.293171             0.00819280069            0.000522926283           
       2.295812             0.00705828333            0.000483419968           
       2.298452             0.00680630185            0.000496423095           
       2.301092             0.00753605894            0.000485335066           
       2.303733             0.00694695462            0.000484781403           
       2.306373             0.00691983312            0.000491453828           
       2.309014             0.00700941363             0.00048497564           
       2.311654             0.00676683861            0.000497260766           
       2.314294              0.0074839776            0.000481792832           
       2.316935             0.00800401828             0.00050030943           
       2.319575             0.00738999249            0.000503700067           
       2.322215             0.00767878674            0.000535099306           
       2.324856             0.00748243859            0.000485637721           
       2.327496             0.00687088624            0.000494833108           
       2.330137             0.00705483104            0.000479814829           
       2.332777             0.00703883333            0.000494178983           
       2.335417             0.00682770334            0.000472182541           
       2.338058             0.00573914637            0.000445840568           
       2.340698             0.00679188121            0.000481198904           
       2.343339             0.00776752153            0.000525925512           
       2.345979              0.0071421946            0.000477118762           
       2.348619             0.00678170507            0.000481916572           
       2.351260             0.00714482724            0.000491768347           
       2.353900             0.00696500616            0.000484002405           
       2.356540             0.00728320458            0.000494232263           
       2.359181             0.00756874844            0.000496764097           
       2.361821             0.00716356264            0.000466839764           
       2.364462             0.00751645111            0.000500137547           
       2.367102             0.00692393031            0.000493297394           
       2.369742             0.00728198177            0.000532485608           
       2.372383              0.0070892073            0.000475739477           
       2.375023              0.0072741174            0.000506585499           
       2.377663             0.00654267167            0.000459372249           
       2.380304             0.00686468672            0.000478386798           
       2.382944             0.00749794382            0.000476201181           
       2.385585             0.00682049983            0.000484390209           
       2.388225                0.00800961            0.000522453208           
       2.390865             0.00768801393             0.00050659926           
       2.393506             0.00652441389            0.000457885059           
       2.396146             0.00692207059            0.000509950349           
       2.398787             0.00672683022            0.000463283706           
       2.401427             0.00703879639            0.000457427268           
       2.404067             0.00651974389            0.000450058383           
       2.406708             0.00673939725            0.000452089832           
       2.409348              0.0068947518            0.000485025204           
       2.411988              0.0067407902            0.000469881585           
       2.414629             0.00703945964            0.000495133069           
       2.417269             0.00740420194            0.000513727168           
       2.419910             0.00740738213            0.000515029818           
       2.422550             0.00688262477            0.000474974423           
       2.425190             0.00681744086            0.000498296117           
       2.427831             0.00688138417            0.000497813313           
       2.430471             0.00621625258            0.000450760633           
       2.433112             0.00740898109             0.00047919641           
       2.435752              0.0064911388            0.000474688343           
       2.438392             0.00648608073            0.000457992707           
       2.441033             0.00642025512            0.000482910929           
       2.443673             0.00640529164            0.000482718668           
       2.446313             0.00669828214            0.000494070705           
       2.448954             0.00703509591            0.000482106636           
       2.451594             0.00690660459            0.000513621567           
       2.454235             0.00658656011            0.000470610182           
       2.456875             0.00801673854            0.000543264493           
       2.459515             0.00689253209            0.000516775042           
       2.462156              0.0081936015            0.000531968129           
       2.464796             0.00707314513            0.000487882122           
       2.467436             0.00776415156            0.000528597966           
       2.470077             0.00782182424            0.000502872273           
       2.472717             0.00840754595            0.000523619121           
       2.475358             0.00842210607            0.000529536861           
       2.477998             0.00826639012            0.000515774407           
       2.480638              0.0077809667            0.000509293188           
       2.483279             0.00687720871            0.000500425841           
       2.485919             0.00756393754             0.00050578082           
       2.488560             0.00675361594            0.000476586114           
       2.491200             0.00831157331            0.000544428188           
       2.493840             0.00683861426            0.000522543508           
       2.496481              0.0074539259            0.000536621518           
       2.499121             0.00770295573            0.000530597469           
       2.501761             0.00754439488            0.000532065474           
       2.504402             0.00699578117            0.000504869525           
       2.507042             0.00689365825            0.000497458351           
       2.509683             0.00740958714            0.000507855396           
       2.512323             0.00736651051            0.000531821654           
       2.514963             0.00672291239             0.00050178184           
       2.517604             0.00734480257            0.000544225333           
       2.520244             0.00662690769            0.000484636672           
       2.522884             0.00819862476             0.00054676178           
       2.525525              0.0112731108            0.000648412077           
       2.528165             0.00758079015            0.000523435869           
       2.530806             0.00755462004            0.000531639445           
       2.533446              0.0069687604            0.000499710603           
       2.536086             0.00746629939            0.000512612152           
       2.538727             0.00673790678            0.000467169917           
       2.541367             0.00766759856            0.000503267781           
       2.544008             0.00696854503            0.000495493751           
       2.546648             0.00645863767            0.000485203291           
       2.549288             0.00727237989            0.000525353609           
       2.551929              0.0072705112            0.000516912965           
       2.554569             0.00625958113            0.000462084688           
       2.557209             0.00680676836            0.000486283671           
       2.559850             0.00773133361            0.000519922707           
       2.562490             0.00620230928            0.000481306062           
       2.565131              0.0070285724            0.000531241547           
       2.567771             0.00753579077            0.000530356086           
       2.570411              0.0073382155            0.000517694746           
       2.573052             0.00728942647            0.000522468832           
       2.575692             0.00698098019            0.000508199281           
       2.578332             0.00652777874            0.000493458658           
       2.580973             0.00752321307            0.000524708123           
       2.583613             0.00774048635            0.000519558158           
       2.586254              0.0071296744            0.000497944462           
       2.588894             0.00723384529            0.000520855441           
       2.591534              0.0066687581            0.000517695227           
       2.594175              0.0072334843            0.000528995239           
       2.596815             0.00733328586            0.000535772585           
       2.599456             0.00718584623            0.000502937204           
       2.602096             0.00710437569            0.000503883771           
       2.604736             0.00706929742            0.000514556906           
       2.607377             0.00731479934             0.00050962169           
       2.610017              0.0068262503            0.000483693796           
       2.612657             0.00616092003            0.000488766312           
       2.615298             0.00657896789            0.000493113782           
       2.617938             0.00706242008            0.000546543922           
       2.620579             0.00673254361             0.00051227662           
       2.623219             0.00718800694            0.000528566549           
       2.625859             0.00763920832            0.000529799055           
       2.628500             0.00659932249            0.000489193502           
       2.631140             0.00792071605            0.000544194231           
       2.633780             0.00710060415            0.000514803697           
       2.636421             0.00751379501            0.000542593518           
       2.639061             0.00613670694            0.000461615012           
       2.641702             0.00762475292            0.000526459164           
       2.644342             0.00700256518            0.000506672073           
       2.646982             0.00722091216            0.000506818893           
       2.649623             0.00730143374            0.000534078975           
       2.652263             0.00760655156            0.000539653715           
       2.654904             0.00675177103            0.000508940266           
       2.657544             0.00769612822            0.000511796352           
       2.660184             0.00655816086            0.000499985323           
       2.662825             0.00702416336            0.000529448824           
       2.665465             0.00720560913            0.000518635783           
       2.668105             0.00607609019            0.000501990663           
       2.670746             0.00703686864            0.000499051061           
       2.673386             0.00837012308            0.000560922634           
       2.676027             0.00929799602            0.000581708038           
       2.678667             0.00978178497            0.000582180976           
       2.681307              0.0110217724            0.000607200853           
       2.683948              0.0138969096            0.000700532048           
       2.686588              0.0115313861            0.000627548212           
       2.689229              0.0105070297            0.000585344309           
       2.691869             0.00949199957            0.000588009584           
       2.694509              0.0087249018            0.000564058823           
       2.697150             0.00656415805            0.000481315514           
       2.699790             0.00829033682            0.000567068286           
       2.702430             0.00758864931            0.000518602724           
       2.705071             0.00724687105            0.000523671557           
       2.707711             0.00702863196             0.00050055084           
       2.710352              0.0067970509             0.00052010856           
       2.712992             0.00701397106            0.000538111787           
       2.715632             0.00642534424            0.000477852474           
       2.718273             0.00652153947            0.000498923103           
       2.720913             0.00697414075            0.000514477557           
       2.723553              0.0074377424            0.000534867019           
       2.726194             0.00743297433            0.000558933094           
       2.728834             0.00731384718             0.00055469616           
       2.731475             0.00676496816            0.000492351809           
       2.734115             0.00731260871            0.000527779377           
       2.736755             0.00693053092            0.000518035429           
       2.739396             0.00741107173            0.000532590193           
       2.742036             0.00771247765            0.000568610921           
       2.744677             0.00598251007            0.000485909171           
       2.747317             0.00645228037            0.000501028072           
       2.749957             0.00597913311            0.000485692855           
       2.752598             0.00757629126            0.000552660909           
       2.755238             0.00780177932            0.000570949002           
       2.757878             0.00708945232            0.000539501917           
       2.760519             0.00826957249            0.000576499143           
       2.763159              0.0107440741             0.00065054867           
       2.765800             0.00790112698            0.000531649743           
       2.768440             0.00881891161            0.000565817342           
       2.771080             0.00914381186            0.000580954948           
       2.773721             0.00655171593            0.000504449197           
       2.776361             0.00753858414            0.000548574187           
       2.779001             0.00700732754            0.000547720858           
       2.781642             0.00683883967            0.000537108337           
       2.784282              0.0067843353            0.000543760638           
       2.786923             0.00732088219            0.000569826914           
       2.789563             0.00740153891            0.000551825182           
       2.792203             0.00675870895            0.000503739013           
       2.794844             0.00674643483            0.000551588193           
       2.797484             0.00750279814            0.000548970698           
       2.800125             0.00684370395            0.000551305802           
       2.802765             0.00626324218            0.000518334614           
       2.805405             0.00854205792            0.000607378341           
       2.808046             0.00728244221             0.00057066985           
       2.810686             0.00569677664            0.000463790184           
       2.813326             0.00652126576            0.000515434019           
       2.815967             0.00727613299            0.000559929563           
       2.818607             0.00702193153            0.000524909622           
       2.821248             0.00728734151            0.000523636039           
       2.823888             0.00712980435            0.000537640197           
       2.826528             0.00660361351            0.000501096325           
       2.829169             0.00775550097            0.000568808548           
       2.831809             0.00672630579            0.000536929203           
       2.834449             0.00763354505            0.000575609344           
       2.837090             0.00728162462            0.000542981033           
       2.839730             0.00709040363            0.000533188025           
       2.842371               0.007523882            0.000550037422           
       2.845011             0.00612518061            0.000500240364           
       2.847651             0.00655136888            0.000517986405           
       2.850292             0.00705468929            0.000542791109           
       2.852932             0.00749505994            0.000571668686           
       2.855573             0.00697077486              0.0005347881           
       2.858213             0.00660683773            0.000546735767           
       2.860853             0.00761618225            0.000546058973           
       2.863494              0.0059916873            0.000501460854           
       2.866134             0.00784491762            0.000596388641           
       2.868774             0.00655915509            0.000535947274           
       2.871415             0.00681148809            0.000554666251           
       2.874055             0.00730773806            0.000549165982           
       2.876696             0.00679105615            0.000543715601           
       2.879336             0.00871061552            0.000593496231           
       2.881976             0.00818214811             0.00059329053           
       2.884617             0.00722067554            0.000549157712           
       2.887257             0.00755411727             0.00056459354           
       2.889897             0.00751914582             0.00055169218           
       2.892538             0.00616597017            0.000547302097           
       2.895178             0.00661762468            0.000512240126           
       2.897819             0.00675582307            0.000527961824           
       2.900459             0.00666641422            0.000514254237           
       2.903099               0.006520254            0.000503379568           
       2.905740             0.00707255858            0.000537829811           
       2.908380             0.00673932697            0.000530972008           
       2.911021             0.00766324605            0.000575405342           
       2.913661             0.00682505391            0.000542863217           
       2.916301             0.00709719632            0.000554108415           
       2.918942             0.00581799339            0.000479881589           
       2.921582             0.00702152213            0.000551587474           
       2.924222             0.00662796146            0.000519189999           
       2.926863             0.00719712066            0.000563537894           
       2.929503             0.00776893985             0.00059243355           
       2.932144              0.0061993487            0.000508013629           
       2.934784             0.00672880328             0.00052058426           
       2.937424             0.00653649434            0.000518359002           
       2.940065             0.00715378666            0.000517286988           
       2.942705             0.00769318021            0.000535761266           
       2.945346             0.00732414242            0.000554773507           
       2.947986             0.00713620037            0.000558372012           
       2.950626             0.00631003851            0.000522100352           
       2.953267             0.00719243214            0.000548405149           
       2.955907             0.00706151661            0.000563693729           
       2.958547             0.00725503613            0.000539398329           
       2.961188             0.00695025166            0.000550795807           
       2.963828              0.0087174992            0.000603402708           
       2.966469             0.00630896432            0.000503567632           
       2.969109             0.00649975024            0.000518698077           
       2.971749             0.00666591049            0.000522009345           
       2.974390              0.0065154736            0.000507148302           
       2.977030             0.00739573308            0.000552397165           
       2.979670             0.00804230676            0.000560307881           
       2.982311             0.00813650415            0.000584121998           
       2.984951             0.00739962477            0.000529797833           
       2.987592             0.00675388337            0.000516291173           
       2.990232             0.00825325808             0.00059355296           
       2.992872             0.00803620793            0.000551692643           
       2.995513             0.00804366033              0.0005399872           
       2.998153               0.011618047            0.000659871316           
       3.000794              0.0115458078            0.000637162982           
       3.003434              0.0118894554            0.000647551914           
       3.006074               0.043148677             0.00121631834           
       3.008715               0.117791537             0.00193994299           
       3.011355               0.187059127             0.00235745773           
       3.013995              0.0991561777             0.00172105343           
       3.016636              0.0617990023             0.00133049418           
       3.019276               0.125971259             0.00186725018           
       3.021917               0.463861562             0.00344534058           
       3.024557                1.59299852              0.0062773397           
       3.027197                1.19390968             0.00529827933           
       3.029838                0.51594128             0.00353237052           
       3.032478               0.272557908             0.00257002214           
       3.035118              0.0742434873             0.00135932855           
       3.037759              0.0942811628             0.00152984357           
       3.040399                0.12675569             0.00182977651           
       3.043040               0.502474007               0.003687755           
       3.045680               0.414742031             0.00315223395           
       3.048320              0.0894051252             0.00149540143           
       3.050961               0.109231488              0.0016820397           
       3.053601              0.0828732455             0.00141107615           
       3.056242               0.055211821             0.00122455803           
       3.058882              0.0465069168             0.00120559553           
       3.061522              0.0360086842             0.00104080234           
       3.064163              0.0390723456             0.00107052261           
       3.066803              0.0979652501             0.00178458271           
       3.069443               0.102712519             0.00191183488           
       3.072084              0.0566596448             0.00138266046           
       3.074724              0.0413998881             0.00131990472           
       3.077365              0.0840902387             0.00194728436           
       3.080005              0.0188596193            0.000927421207           
       3.082645              0.0111770811            0.000750033187           
       3.085286              0.0138552241            0.000841658754           
       3.087926             0.00844329623            0.000651966285           
       3.090566                0.01125589            0.000737563778           
       3.093207               0.012295222            0.000802163918           
       3.095847             0.00826888535            0.000630526858           
       3.098488              0.0077338974            0.000676151203           
       3.101128             0.00964437547            0.000759916225           
       3.103768             0.00892705338            0.000717355236           
       3.106409             0.00991781403            0.000804710363           
       3.109049             0.00798333431            0.000692846226           
       3.111690             0.00714525764            0.000644218861           
       3.114330             0.00730734166            0.000665343886           
       3.116970               0.007693393            0.000687934081           
       3.119611              0.0123337092            0.000927157407           
       3.122251               0.019000601             0.00120374893           
       3.124891               0.036993219             0.00169527403           
       3.127532              0.0248057314             0.00135807253           
       3.130172              0.0134046845             0.00101558316           
       3.132813             0.00942844911            0.000838509194           
       3.135453             0.00664202046            0.000697984245           
       3.138093             0.00610123271            0.000724848773           
       3.140734             0.00646116881            0.000688171645           
       3.143374             0.00762460247            0.000790584267           
       3.146014             0.00805934301            0.000875027728           
       3.148655             0.00737579232            0.000778160159           
       3.151295             0.00679956403            0.000796200319           
       3.153936             0.00530251951             0.00067918255           
       3.156576             0.00675534961            0.000756173517           
       3.159216             0.00581746174            0.000705230611           
       3.161857             0.00709564487            0.000775691858           
       3.164497             0.00748022488            0.000836824251           
       3.167138             0.00868103332            0.000931462894           
       3.169778             0.00655339659            0.000795960043           
       3.172418             0.00613743288            0.000762449916           
       3.175059             0.00670416309            0.000706463464           
       3.177699             0.00608254848             0.00071257628           
       3.180339              0.0051640229            0.000703466462           
       3.182980             0.00653952257            0.000818465159           
       3.185620             0.00585659698            0.000788813942           
       3.188261             0.00626617074            0.000830490803           
       3.190901             0.00642898488             0.00077366993           
       3.193541              0.0054261052            0.000746847048           
       3.196182             0.00501355855            0.000748149024           
       3.198822             0.00758712534            0.000920659921           
       3.201463             0.00592067778            0.000799279793           
       3.204103             0.00617811317            0.000811504028           
       3.206743             0.00513192766            0.000739540986           
       3.209384             0.00496171483            0.000785648591           
       3.212024             0.00573130337            0.000787229156           
       3.214664             0.00586647152            0.000905686382           
       3.217305             0.00706531561            0.000944797674           
       3.219945             0.00589458335            0.000888226829           
       3.222586             0.00594294677            0.000849484893           
       3.225226             0.00614002426             0.00095786899           
       3.227866             0.00435210284            0.000737075653           
       3.230507             0.00560332227            0.000866962583           
       3.233147             0.00710142186            0.000983881949           
       3.235787             0.00654541263             0.00096665984           
       3.238428             0.00430647933             0.00084613317           
       3.241068              0.0062638181            0.000954183268           
       3.243709             0.00542360963             0.00091732569           
       3.246349             0.00516805658            0.000816289234           
       3.248989             0.00502715014            0.000950625298           
       3.251630             0.00517730447            0.000928996929           
       3.254270             0.00640023195             0.00092313678           
       3.256911             0.00647905277             0.00101342796           
       3.259551               0.006058085             0.00105500572           
       3.262191             0.00439885996            0.000918278337           
       3.264832             0.00562521894             0.00108499568           
       3.267472             0.00329621623            0.000779145843           
       3.270112             0.00808527897             0.00134856156           
       3.272753             0.00756586693             0.00119406345           
       3.275393              0.0066914756             0.00114579647           
       3.278034             0.00627488385             0.00111018107           
       3.280674             0.00393390008            0.000953867269           
       3.283314             0.00740009763             0.00117005055           
       3.285955             0.00588819291             0.00107687228           
       3.288595             0.00539408476             0.00114669179           
       3.291235             0.00382126913            0.000992158678           
       3.293876             0.00529088739             0.00118423514           
       3.296516             0.00512849665             0.00111930927           
       3.299157             0.00546986554             0.00114143673           
       3.301797             0.00494672437              0.0012381921           
       3.304437             0.00395913812            0.000959706376           
       3.307078             0.00566142011              0.0012641818           
       3.309718             0.00390822974             0.00108415701           
       3.312359             0.00449538783             0.00116302454           
       3.314999             0.00699881134             0.00142879283           
       3.317639              0.0072384233             0.00138965912           
       3.320280             0.00601390241             0.00134673471           
       3.322920             0.00903192585              0.0016781965           
       3.325560             0.00621487352             0.00139304045           
       3.328201              0.0042612191              0.0010388584           
       3.330841             0.00711893395             0.00163421725           
       3.333482             0.00806535736             0.00164418778           
       3.336122             0.00699153134             0.00153152945           
       3.338762             0.00760045589              0.0018445874           
       3.341403             0.00611686944             0.00158122218           
       3.344043             0.00526869143              0.0014089261           
       3.346683             0.00430664697             0.00130046161           
       3.349324             0.00649167797             0.00179514612           
       3.351964             0.00438017291             0.00155930835           
       3.354605             0.00509652093             0.00192361208           
       3.357245             0.00706730324             0.00204345562           
       3.359885             0.00455021253             0.00131232004           
       3.362526             0.00292317442              0.0013153748           
       3.365166             0.00788832683             0.00203805281           
       3.367807              0.0034668124             0.00172913602           
       3.370447             0.00770088807             0.00213775543           
       3.373087             0.00677477489             0.00214418525           
       3.375728             0.00773041383             0.00258496978           
       3.378368             0.00384247568             0.00270476514           
       3.381008             0.00522496203             0.00235149307           
       3.383649             0.00678564561              0.0021497214           
       3.386289             0.00474385511             0.00212732009           
       3.388930             0.00240802923             0.00239740455           
       3.391570              0.0023922905             0.00169036267           
       3.394210             0.00767553453             0.00383175047           
       3.396851           -2.55740679e-05                         0           
       3.399491             0.00477719584             0.00338240272           
       3.402131             0.00466352483             0.00472816286           
       3.404772              0.0281263546              0.0164252422           
       3.407412                       nan                       nan           
       3.410053              0.0269772962              0.0161060279           
       3.412693                       nan                       nan           
       3.415333           -2.57343989e-05                         0           
