################################################################################
# EDF_DataBlockID                     0.Image.Psd
# EDF_BinarySize                      4366944
# EDF_HeaderSize                      2560
# ByteOrder                           LowByteFirst
# DataType                            FloatValue
# Dim_1                               1028
# Dim_2                               1062
# Image                               0
# HeaderID                            EH:000000:000000:000000
# Size                                4366944
# Center_1                            607.5200
# Center_2                            651.5500
# Comment                             Xenocs_Cell_Window - 20251028_20perc_iodine_1.23mg
# DDummy                              0.6
# Date                                2025-10-30T11:34:28
# Delta                               0
# Dummy                               -1.5
# ExposureTime                        360
# Gamma                               0
# Intensity1                          8.61988e-10
# PSize_1                             7.5e-05
# PSize_2                             7.5e-05
# Pressure                            0.0326586
# SampleDistance                      0.450002
# SampleEnvKind                       large
# SampleEnvPN                         ElectroChemical cell
# SampleEnvSN                         1141
# Thickness                           0
# Wavelength                          1.541891e-10
# Wavelength                          1.54189e-10
# aux                                 0
# aux_dial                            0.002375
# beamx                               588.434
# beamx_dial                          588.434
# beamz                               657.808
# beamz_dial                          657.808
# det0x                               0
# det0x_dial                          6.36945
# det0xvd                             0
# det0xvd_dial                        0
# det0y                               450.002
# det0y_dial                          481.635
# det0z                               0
# det0z_dial                          1.23302
# det0zvd                             0
# det0zvd_dial                        0
# mag                                 1.818
# mag_dial                            1.818
# om                                  0.2499
# om_dial                             -0.610199
# phi                                 -0.0120535
# phi_dial                            0
# ry                                  0.599993
# ry_dial                             0.599993
# s1bot                               0.8
# s1bot_dial                          -1.66094
# s1hl                                0.8
# s1hl_dial                           -0.608437
# s1hr                                0.8
# s1hr_dial                           0.970938
# s1top                               0.8
# s1top_dial                          -0.461562
# s2bot                               0.45
# s2bot_dial                          1.36109
# s2hl                                0.45
# s2hl_dial                           -0.83375
# s2hr                                0.45
# s2hr_dial                           -0.118594
# s2top                               0.45
# s2top_dial                          1.44734
# w2theta                             32
# w2theta_dial                        32
# waxsch                              19.2605
# waxsch_dial                         -32.7355
# waxsh                               137.085
# waxsh_dial                          -43.5338
# waxsth                              26.0607
# waxsth_dial                         -19.4086
# waxsz                               67.0407
# waxsz_dial                          -23.7954
# wind                                65.9854
# wind_dial                           66.0041
# wpsi                                124
# wpsi_dial                           124
# wstod                               115
# wstod_dial                          115
# x                                   0
# x_dial                              1.00969
# z                                   0
# z_dial                              13.3172
# CountCutoff                         15302352
# DetectorModel                       Dectris EIGER2 Si 1M, S/N E-02-0362
# ThresholdSetting                    4023.88989258
# Saturation                          0
# FlatField                           Corrected
# BackgroundReductionExtra            0.02
# BackgroundCorrectionConstant        0.0026712
# Detector                            0
# Monitor                             0
# Pil_Roi0                            0
# SumForIntensity1                    3.10316e+08
# TransmittedFlux                     861988
# det                                 0
# mon                                 0
# pilai0                              3.10316e+08
# pilai1                              780536
# pilct0                              5.35668e+08
# pilct1                              780536
# pilroi0                             0
# pilroi1                             0
# sec                                 1
# title                               20251028_20perc_iodine_1.23mg_0_00411.edf
# usaxs0                              0
# Operation                           Azimuthal average I(q)
# Error_model                         ErrorModel.poisson
# Geometrical_correction              True
# Transmission_correction             True
# Thickness_correction                False
# Binning mode                        Uniform
# Binning factor                      1.0
# Psi                                 0.0
# Omega                               0.2499
# MaskInvalidPixels                   True
# DetectorEdge                        3
# MaskFiles                           ['20251028_20perc_iodine_1.23mg_0_00012_mask.edf']
################################################################################
    q(A⁻¹)                Intensity(a.u.)            Sigma_I(a.u.)            
       0.000340                  372317.3                119.990623           
       0.001019                359012.663                 72.154136           
       0.001698                350006.847                 50.376693           
       0.002377                331237.276                 43.833488           
       0.003056                307584.837                 35.698909           
       0.003735                253738.306                28.5952143           
       0.004415                204305.295                 25.659031           
       0.005094                152044.991                19.1697855           
       0.005773                99742.8695                14.3747029           
       0.006452                57788.0711                10.4835004           
       0.007131                32166.3164                7.57698273           
       0.007810                16298.7082                5.35250554           
       0.008490                8271.42974                3.37989624           
       0.009169                4045.27216                2.33602566           
       0.009848                 1256.6927                1.25884961           
       0.010527                 489.66826               0.785797321           
       0.011206                  121.5503               0.373655254           
       0.011885                56.1195357               0.235894697           
       0.012564                25.1684159               0.162188797           
       0.013244                17.5328459               0.126554938           
       0.013923                12.2789721               0.107617663           
       0.014602                9.58372609              0.0881768682           
       0.015281                7.46810689              0.0792358298           
       0.015960                6.07294722               0.070940138           
       0.016639                4.93975143              0.0604170401           
       0.017319                4.16592556              0.0546204692           
       0.017998                3.48484921              0.0477928614           
       0.018677                2.90866099               0.045223351           
       0.019356                2.53869894               0.041746579           
       0.020035                 2.1694957              0.0362066168           
       0.020714                1.90844995              0.0343179369           
       0.021394                1.55012223              0.0292639947           
       0.022073                1.43656352              0.0293104451           
       0.022752                1.22303078              0.0258709404           
       0.023431                1.10051157              0.0238214461           
       0.024110               0.996065577              0.0236277024           
       0.024789               0.859401935              0.0203824267           
       0.025469               0.836570241              0.0207233995           
       0.026148               0.753738296              0.0184822577           
       0.026827                0.64501875              0.0173710376           
       0.027506               0.597309071              0.0169573183           
       0.028185               0.561757209               0.015682607           
       0.028864               0.524975982              0.0150754386           
       0.029544               0.443240824              0.0134327793           
       0.030223               0.453231107               0.013778096           
       0.030902               0.392994835              0.0129472938           
       0.031581               0.361622593              0.0118063427           
       0.032260               0.342233663              0.0116811762           
       0.032939                0.31534298              0.0108116504           
       0.033619               0.301519225              0.0107273926           
       0.034298               0.285640998              0.0101608988           
       0.034977               0.256240178             0.00943464767           
       0.035656               0.252954717             0.00962205882           
       0.036335               0.211214373             0.00852754405           
       0.037014               0.200801996             0.00833949525           
       0.037693               0.187019542             0.00774227108           
       0.038373               0.194027867             0.00796339147           
       0.039052               0.168205837             0.00744612654           
       0.039731               0.161747708             0.00713161896           
       0.040410               0.148765602             0.00679358135           
       0.041089               0.147817111             0.00666581284           
       0.041768                0.14095101             0.00654316585           
       0.042448               0.129822708             0.00623083285           
       0.043127                0.13287591              0.0061547964           
       0.043806               0.133016128             0.00620395874           
       0.044485               0.114262177             0.00563187775           
       0.045164               0.116583485             0.00580091874           
       0.045843               0.109697993             0.00539698402           
       0.046523               0.114228317             0.00552631679           
       0.047202              0.0997586287             0.00520053891           
       0.047881               0.102015058             0.00515760868           
       0.048560                0.10333169             0.00523809742           
       0.049239               0.103099353             0.00502386128           
       0.049918              0.0890858495             0.00476126235           
       0.050598              0.0960439617              0.0048695364           
       0.051277              0.0760467178             0.00431929167           
       0.051956              0.0770499715             0.00432038771           
       0.052635              0.0788289674             0.00427723944           
       0.053314              0.0823223931              0.0044987829           
       0.053993              0.0715911985             0.00408026147           
       0.054673              0.0684232525               0.003900107           
       0.055352              0.0781246864             0.00422864827           
       0.056031              0.0727233346             0.00399412768           
       0.056710              0.0662440678             0.00390546368           
       0.057389              0.0686345226             0.00383343015           
       0.058068              0.0665888722              0.0038147933           
       0.058748              0.0656520535             0.00383511394           
       0.059427              0.0625686552             0.00368058262           
       0.060106              0.0707695588             0.00395141382           
       0.060785              0.0615531899              0.0035747292           
       0.061464              0.0613018822             0.00365341248           
       0.062143              0.0611447988             0.00361166407           
       0.062822              0.0561190051             0.00341944863           
       0.063502              0.0596488279             0.00351905008           
       0.064181              0.0491863725             0.00316181496           
       0.064860              0.0471422374             0.00314256328           
       0.065539              0.0527477745              0.0032916479           
       0.066218              0.0507225656             0.00315872549           
       0.066897              0.0540553974             0.00328602257           
       0.067577               0.047993948             0.00312605555           
       0.068256              0.0451848467             0.00310770067           
       0.068935              0.0469275273              0.0031158527           
       0.069614              0.0496186072               0.003235842           
       0.070293              0.0413610229             0.00298158353           
       0.070972              0.0415765167             0.00296745305           
       0.071652              0.0453167158             0.00310373677           
       0.072331              0.0473544813             0.00311620668           
       0.073010              0.0386593673             0.00287994777           
       0.073689               0.039102749             0.00288049944           
       0.074368              0.0446157278             0.00307126705           
       0.075047               0.040956334             0.00291099105           
       0.075727              0.0374257574             0.00276550804           
       0.076406              0.0333882764             0.00266419799           
       0.077085              0.0366580438             0.00273943477           
       0.077764              0.0376626336              0.0027669876           
       0.078443              0.0391557119             0.00283876881           
       0.079122              0.0385933464             0.00279123495           
       0.079802               0.038002257             0.00279915336           
       0.080481              0.0392788187               0.002749786           
       0.081160              0.0355647502             0.00267024501           
       0.081839              0.0332499183             0.00254054788           
       0.082518              0.0342516979             0.00258070731           
       0.083197              0.0326151823             0.00247917179           
       0.083876              0.0328039187             0.00244502034           
       0.084556              0.0360242978             0.00263348402           
       0.085235              0.0329573146             0.00247022193           
       0.085914              0.0309978902              0.0024189373           
       0.086593              0.0373450724             0.00263797707           
       0.087272              0.0342170066             0.00248938863           
       0.087951              0.0303715965             0.00239831714           
       0.088631              0.0287689125             0.00225467756           
       0.089310              0.0316608841             0.00241545551           
       0.089989              0.0317233884             0.00238957201           
       0.090668              0.0329467578             0.00246209182           
       0.091347              0.0288514892             0.00231689732           
       0.092026              0.0304045981             0.00227340448           
       0.092706              0.0323361464             0.00242960407           
       0.093385               0.027449961             0.00220415101           
       0.094064              0.0297279983              0.0023204846           
       0.094743              0.0284889234             0.00223699322           
       0.095422              0.0271658436              0.0021600718           
       0.096101              0.0229289128             0.00202535837           
       0.096781              0.0229677698             0.00199804943           
       0.097460              0.0254186975             0.00204461679           
       0.098139              0.0302314384             0.00221263646           
       0.098818              0.0300793326             0.00217988349           
       0.099497              0.0234027816             0.00192674253           
       0.100176               0.025752106             0.00196809415           
       0.100856              0.0245847032             0.00192173542           
       0.101535              0.0248809248             0.00192954967           
       0.102214              0.0317514097             0.00217975107           
       0.102893              0.0281247318              0.0020281166           
       0.103572              0.0256512474             0.00190826783           
       0.104251              0.0255071207             0.00190992903           
       0.104931              0.0243577876             0.00184941121           
       0.105610              0.0253825986             0.00189596898           
       0.106289              0.0257715558             0.00187864765           
       0.106968              0.0262398312             0.00190126439           
       0.107647              0.0254225133             0.00187254307           
       0.108326              0.0254105095             0.00184705621           
       0.109005              0.0267680579             0.00188382591           
       0.109685              0.0272149377             0.00187817912           
       0.110364              0.0245250772               0.001803198           
       0.111043              0.0235723201             0.00176081617           
       0.111722              0.0241609638             0.00176087691           
       0.112401              0.0251898389             0.00180297868           
       0.113080              0.0233150894             0.00171471089           
       0.113760              0.0204894113             0.00163429738           
       0.114439              0.0198081076             0.00158396305           
       0.115118              0.0215265039             0.00163878963           
       0.115797               0.022361393             0.00168574045           
       0.116476              0.0220863659             0.00165026676           
       0.117155              0.0194691778             0.00156190469           
       0.117835               0.023949619             0.00169788937           
       0.118514              0.0221081852             0.00165199466           
       0.119193              0.0230664069             0.00168742779           
       0.119872              0.0215482837             0.00161055619           
       0.120551              0.0198339733             0.00153487089           
       0.121230              0.0207043102             0.00155240412           
       0.121910              0.0190089902             0.00150186575           
       0.122589              0.0217721207             0.00160897482           
       0.123268              0.0216104537             0.00157193476           
       0.123947              0.0205942258              0.0015444541           
       0.124626               0.022026859             0.00157774125           
       0.125305              0.0211286094             0.00155281941           
       0.125985              0.0232367151             0.00161580825           
       0.126664              0.0210377514             0.00152280909           
       0.127343              0.0193801121             0.00147852621           
       0.128022              0.0216747695             0.00155161602           
       0.128701              0.0207618617             0.00151067805           
       0.129380              0.0191671893             0.00143332377           
       0.130059              0.0211544474             0.00150929226           
       0.130739              0.0208325934             0.00150829941           
       0.131418              0.0200479542             0.00147547992           
       0.132097              0.0191349543             0.00142300433           
       0.132776              0.0203324229             0.00146023224           
       0.133455              0.0187292078             0.00141236885           
       0.134134              0.0200072751             0.00145511444           
       0.134814              0.0193593027             0.00141660892           
       0.135493              0.0177435593             0.00136169396           
       0.136172              0.0207674675             0.00146204232           
       0.136851              0.0219431734             0.00151159828           
       0.137530              0.0216008345             0.00146412876           
       0.138209              0.0193550607             0.00140220148           
       0.138889              0.0210728372             0.00146955156           
       0.139568              0.0214594309             0.00148232927           
       0.140247               0.018366301             0.00136954694           
       0.140926              0.0191087628             0.00135701181           
       0.141605              0.0185424089             0.00137071184           
       0.142284              0.0198317143             0.00139407572           
       0.142964              0.0196213245             0.00139196499           
       0.143643              0.0175140412             0.00131343432           
       0.144322               0.020058895             0.00137620936           
       0.145001              0.0178530298             0.00132498545           
       0.145680              0.0200050768             0.00136938959           
       0.146359              0.0211910694             0.00141455255           
       0.147039              0.0167480963             0.00126790358           
       0.147718              0.0202872432             0.00137242569           
       0.148397              0.0178824938             0.00130854336           
       0.149076              0.0173658822             0.00124950087           
       0.149755              0.0194951898             0.00134433158           
       0.150434              0.0170408995             0.00125737884           
       0.151114              0.0185611017             0.00130500739           
       0.151793              0.0215125073             0.00140494924           
       0.152472              0.0175670256             0.00124716595           
       0.153151              0.0178340946             0.00126875916           
       0.153830              0.0206460315              0.0013551775           
       0.154509              0.0183621394             0.00127269321           
       0.155188              0.0156272183              0.0011736602           
       0.155868              0.0161085688             0.00118311916           
       0.156547              0.0171169243              0.0012274213           
       0.157226              0.0174788619             0.00121003586           
       0.157905               0.017723434             0.00122870679           
       0.158584               0.016655962             0.00118896609           
       0.159263               0.020092277             0.00131067261           
       0.159943              0.0184275036             0.00125613605           
       0.160622              0.0186229408             0.00123840976           
       0.161301              0.0173354122             0.00121081452           
       0.161980              0.0174110093             0.00119282226           
       0.162659              0.0170334699             0.00119289575           
       0.163338               0.016525195             0.00116538644           
       0.164018              0.0149646155               0.001103174           
       0.164697              0.0167655144             0.00118266207           
       0.165376              0.0178611446             0.00119402351           
       0.166055              0.0165007336             0.00115521985           
       0.166734               0.019321967             0.00124448273           
       0.167413              0.0159467745             0.00113136723           
       0.168093              0.0171145935             0.00118314858           
       0.168772              0.0157959283             0.00110341338           
       0.169451               0.015728132             0.00112130024           
       0.170130              0.0163356925             0.00112775004           
       0.170809              0.0141693941              0.0010628498           
       0.171488              0.0165194551             0.00113714773           
       0.172168               0.015651096             0.00109622344           
       0.172847              0.0182005259              0.0011976679           
       0.173526              0.0170449031             0.00113691193           
       0.174205               0.019269208             0.00121438683           
       0.174884              0.0178444445             0.00116253894           
       0.175563              0.0177821296             0.00116546223           
       0.176243              0.0179856472              0.0011838428           
       0.176922              0.0147606629             0.00104451856           
       0.177601              0.0141827854             0.00103512015           
       0.178280              0.0163738598             0.00109979155           
       0.178959              0.0157451495             0.00108714491           
       0.179638              0.0180225399             0.00115976395           
       0.180317              0.0151257478             0.00105473809           
       0.180997              0.0150028601             0.00105614639           
       0.181676              0.0165019506             0.00109582828           
       0.182355              0.0164062962                0.00109921           
       0.183034              0.0163186138             0.00107867449           
       0.183713              0.0164280257             0.00109546512           
       0.184392              0.0180009371             0.00114636266           
       0.185072              0.0161526456             0.00107354041           
       0.185751              0.0163207302             0.00108211363           
       0.186430              0.0156461901             0.00105209474           
       0.187109              0.0176608402             0.00113022818           
       0.187788              0.0170100612             0.00110647439           
       0.188467              0.0150662904              0.0010290144           
       0.189147              0.0170972675             0.00110728033           
       0.189826              0.0166959702             0.00107485876           
       0.190505              0.0159115195             0.00106657714           
       0.191184              0.0153053937             0.00103098887           
       0.191863              0.0161488146             0.00106124586           
       0.192542              0.0162399136               0.001074271           
       0.193222              0.0150973379             0.00101257886           
       0.193901              0.0150194954             0.00102350219           
       0.194580              0.0167724588             0.00106266248           
       0.195259              0.0157920258             0.00104297831           
       0.195938              0.0157357347             0.00104360319           
       0.196617              0.0150812953             0.00100741022           
       0.197297              0.0153536086             0.00102061496           
       0.197976              0.0150814157            0.000995990171           
       0.198655              0.0139404861            0.000968034768           
       0.199334              0.0159211884             0.00102539887           
       0.200013               0.013787937            0.000953704586           
       0.200692               0.017591364             0.00108372335           
       0.201371              0.0158673408             0.00101765811           
       0.202051              0.0171466452             0.00106117707           
       0.202730               0.015182129            0.000988564757           
       0.203409              0.0177497737             0.00107607068           
       0.204088               0.016128507              0.0010246153           
       0.204767              0.0145688644            0.000968697082           
       0.205446              0.0142928379            0.000961351481           
       0.206126              0.0157322629              0.0009948961           
       0.206805              0.0158639518             0.00101736646           
       0.207484              0.0147755276            0.000964194471           
       0.208163              0.0155987544            0.000996643877           
       0.208842              0.0162552891             0.00101464457           
       0.209521               0.013198171            0.000906669724           
       0.210201              0.0166997953             0.00103125806           
       0.210880               0.016037505            0.000990770992           
       0.211559              0.0150686519            0.000974576972           
       0.212238              0.0173149068             0.00103937788           
       0.212917              0.0139372674            0.000929042569           
       0.213596              0.0160225594             0.00100201243           
       0.214276              0.0142223048            0.000924376065           
       0.214955              0.0142079237             0.00094333775           
       0.215634              0.0142557629            0.000938152344           
       0.216313              0.0151140799            0.000963953491           
       0.216992              0.0157136889            0.000982642453           
       0.217671              0.0160975848            0.000987836529           
       0.218351              0.0178464302             0.00105028516           
       0.219030              0.0152830397            0.000956591504           
       0.219709              0.0149568612            0.000952231382           
       0.220388              0.0159384029            0.000981717141           
       0.221067                0.01512229            0.000957011001           
       0.221746              0.0144399907            0.000934214309           
       0.222426              0.0156683149            0.000958594057           
       0.223105              0.0128616844            0.000880337452           
       0.223784              0.0152780134            0.000949957872           
       0.224463              0.0183265573             0.00104871196           
       0.225142              0.0164341752            0.000977379367           
       0.225821              0.0162706155            0.000976420846           
       0.226500              0.0147586961            0.000935861763           
       0.227180              0.0146991421            0.000919582651           
       0.227859              0.0152972366            0.000942313089           
       0.228538              0.0146995896            0.000914446572           
       0.229217              0.0142529756             0.00090757522           
       0.229896              0.0159231375             0.00095881551           
       0.230575              0.0162234715            0.000952387974           
       0.231255              0.0130458935            0.000866827888           
       0.231934              0.0144392205            0.000905712933           
       0.232613              0.0134354917              0.0008768894           
       0.233292              0.0144555776            0.000900781115           
       0.233971              0.0145819846            0.000904288782           
       0.234650              0.0160338667            0.000959392895           
       0.235330              0.0134443028            0.000870838157           
       0.236009              0.0148972717            0.000914712336           
       0.236688              0.0153982705            0.000926638062           
       0.237367              0.0148105661            0.000910102507           
       0.238046              0.0156689971            0.000942698626           
       0.238725              0.0143038882            0.000886802454           
       0.239405               0.015142929            0.000918098987           
       0.240084              0.0141867695             0.00088298243           
       0.240763              0.0135055387            0.000869771106           
       0.241442              0.0140519892            0.000874691676           
       0.242121              0.0133253038            0.000853382337           
       0.242800              0.0138929547            0.000875494833           
       0.243480              0.0126842022            0.000832625273           
       0.244159              0.0142309547            0.000882358592           
       0.244838              0.0154483764            0.000904198771           
       0.245517              0.0136726737            0.000862882888           
       0.246196              0.0147529692             0.00089675583           
       0.246875              0.0141431233            0.000865786056           
       0.247554              0.0126493639            0.000827111042           
       0.248234               0.013461325            0.000840306421           
       0.248913              0.0135103962            0.000851279609           
       0.249592              0.0127216677             0.00081820785           
       0.250271              0.0130591893            0.000826583682           
       0.250950              0.0140866214            0.000863741948           
       0.251629              0.0133189843            0.000832739427           
       0.252309              0.0138014373            0.000849407849           
       0.252988              0.0127500685            0.000802350769           
       0.253667               0.012490386            0.000803416529           
       0.254346               0.014347847            0.000860908152           
       0.255025              0.0126354843            0.000806133577           
       0.255704              0.0124232312            0.000795673099           
       0.256384              0.0144594313            0.000855436812           
       0.257063              0.0144679628            0.000860567811           
       0.257742              0.0130674996            0.000812190736           
       0.258421              0.0146567625            0.000858507407           
       0.259100              0.0139095351            0.000837795475           
       0.259779              0.0140967092            0.000842698591           
       0.260459                0.01302867            0.000811737227           
       0.261138              0.0121723027            0.000769273258           
       0.261817              0.0108480967            0.000740884196           
       0.262496              0.0128240001            0.000797636667           
       0.263175              0.0125107521            0.000789526789           
       0.263854              0.0145355964            0.000847069785           
       0.264534              0.0140744562            0.000826405938           
       0.265213              0.0129393005            0.000804866077           
       0.265892               0.012122414            0.000769064476           
       0.266571              0.0112401391            0.000738865333           
       0.267250              0.0116201647            0.000752517451           
       0.267929              0.0121204689            0.000767758439           
       0.268609              0.0125158565            0.000784452371           
       0.269288              0.0109894037            0.000722849963           
       0.269967              0.0122958709            0.000772849496           
       0.270646              0.0106558648             0.00071635483           
       0.271325               0.010444118            0.000710386125           
       0.272004              0.0130791221            0.000787040277           
       0.272683              0.0125944494            0.000773274235           
       0.273363              0.0124579416            0.000773977214           
       0.274042              0.0123250184            0.000765295061           
       0.274721               0.011405094            0.000735744456           
       0.275400              0.0125933585            0.000768003693           
       0.276079              0.0114482034            0.000736410955           
       0.276758              0.0108999784             0.00072763021           
       0.277438              0.0121607279            0.000759932625           
       0.278117              0.0117893103            0.000761843256           
       0.278796              0.0111477764            0.000733305251           
       0.279475              0.0108363596            0.000734933545           
       0.280154              0.0120533788            0.000763956079           
       0.280833              0.0110262173             0.00073512355           
       0.281513              0.0117121994            0.000769532372           
       0.282192              0.0108455265            0.000727880104           
       0.282871              0.0119258216            0.000768604436           
       0.283550              0.0115685374            0.000761060378           
       0.284229             0.00986631988            0.000713164542           
       0.284908               0.011022465            0.000761742758           
       0.285588              0.0143787494            0.000859832575           
       0.286267                0.01100823            0.000764382642           
       0.286946              0.0117702219            0.000785255389           
       0.287625              0.0101798992            0.000742715861           
       0.288304              0.0117813758             0.00078830969           
       0.288983               0.010044452            0.000737101341           
       0.289663             0.00936284534            0.000715817731           
       0.290342              0.0116855359            0.000795435291           
       0.291021               0.011061257            0.000778065671           
       0.291700             0.00954756277             0.00071342685           
       0.292379               0.010269676            0.000756855657           
       0.293058              0.0114062628            0.000794626054           
       0.293738              0.0103393375            0.000750196647           
       0.294417              0.0103137306            0.000757975974           
       0.295096              0.0100262162            0.000739120608           
       0.295775              0.0104149536            0.000764817532           
       0.296454              0.0104353067            0.000755662344           
       0.297133             0.00982248573            0.000736606719           
       0.297812               0.010093213             0.00075043391           
       0.298492             0.00968582143            0.000736553416           
       0.299171             0.00928073834            0.000719622712           
       0.299850              0.0114037389            0.000792248523           
       0.300529              0.0106989777              0.0007760214           
       0.301208              0.0112195777            0.000796611049           
       0.301887             0.00864050339             0.00069825042           
       0.302567              0.0104567813            0.000764293436           
       0.303246              0.0100867066             0.00075554793           
       0.303925              0.0089607923            0.000721275657           
       0.304604             0.00951796425            0.000727310261           
       0.305283             0.00895829996            0.000716068027           
       0.305962              0.0095562093            0.000735110648           
       0.306642             0.00856297489             0.00070531136           
       0.307321              0.0100040647            0.000759919838           
       0.308000             0.00807218335            0.000674522583           
       0.308679             0.00903516433            0.000729077229           
       0.309358             0.00855313072            0.000699766613           
       0.310037              0.0081327507            0.000683873775           
       0.310717             0.00822928866            0.000687258826           
       0.311396             0.00817667118            0.000689652603           
       0.312075             0.00796890973             0.00068946829           
       0.312754             0.00761306928            0.000660417168           
       0.313433             0.00853815545            0.000705474391           
       0.314112             0.00945956555            0.000742395139           
       0.314792             0.00859832985            0.000712791748           
       0.315471             0.00831494991            0.000692279061           
       0.316150             0.00944525805             0.00074466194           
       0.316829             0.00871302143            0.000719938003           
       0.317508             0.00955031492            0.000745278676           
       0.318187             0.00874136846            0.000722422322           
       0.318866             0.00804680913            0.000683790577           
       0.319546             0.00799063646            0.000691613703           
       0.320225             0.00763875557              0.0006762273           
       0.320904             0.00838619445            0.000697583674           
       0.321583             0.00652357765            0.000628814288           
       0.322262             0.00783407813            0.000678642257           
       0.322941             0.00769215861            0.000681082549           
       0.323621             0.00736786219             0.00066250303           
       0.324300             0.00839920054            0.000707907239           
       0.324979              0.0077508893            0.000681267371           
       0.325658             0.00784930885            0.000686822794           
       0.326337              0.0075668669            0.000675232814           
       0.327016             0.00734101962            0.000660857342           
       0.327696             0.00855632156            0.000721400657           
       0.328375             0.00738545649            0.000664570975           
       0.329054              0.0087343923            0.000726638104           
       0.329733             0.00777538475            0.000688091043           
       0.330412             0.00752201826            0.000671241933           
       0.331091             0.00750479108            0.000682634857           
       0.331771             0.00726267623            0.000653936845           
       0.332450             0.00780765865            0.000691192446           
       0.333129             0.00747474845            0.000674550967           
       0.333808             0.00815529514            0.000705521007           
       0.334487             0.00637954839            0.000626959285           
       0.335166             0.00749729835            0.000669720774           
       0.335846             0.00692423077            0.000654926857           
       0.336525             0.00653390473            0.000629918425           
       0.337204             0.00565362504            0.000587487305           
       0.337883             0.00836382868            0.000715505283           
       0.338562             0.00871830653            0.000734564148           
       0.339241             0.00663086756            0.000641817974           
       0.339921             0.00652628848            0.000626058614           
       0.340600             0.00667196432            0.000645028409           
       0.341279             0.00730797428            0.000667843724           
       0.341958             0.00645888517            0.000636706748           
       0.342637             0.00669082443            0.000638883084           
       0.343316             0.00697616778            0.000654252814           
       0.343995             0.00670808468            0.000652063698           
       0.344675             0.00596986143            0.000603833612           
       0.345354             0.00630053902            0.000624423604           
       0.346033             0.00687827627            0.000650723782           
       0.346712             0.00578066397            0.000600354928           
       0.347391             0.00712212689            0.000670509354           
       0.348070             0.00679590275            0.000645671671           
       0.348750             0.00656357335            0.000643707771           
       0.349429              0.0069227468             0.00065255127           
       0.350108             0.00598104578            0.000613845179           
       0.350787             0.00762955212            0.000681519443           
       0.351466             0.00631418414            0.000631414833           
       0.352145             0.00645667171            0.000639029271           
       0.352825             0.00706815773            0.000665576371           
       0.353504              0.0054418045             0.00058386135           
       0.354183             0.00555790399            0.000583258638           
       0.354862             0.00620772639            0.000630737019           
       0.355541             0.00510621274            0.000564554912           
       0.356220             0.00638198122            0.000632344963           
       0.356900             0.00632016089            0.000635251962           
       0.357579             0.00466573166            0.000539117753           
       0.358258             0.00569847741            0.000604048701           
       0.358937             0.00461415978            0.000533330263           
       0.359616             0.00600948153            0.000617150492           
       0.360295             0.00582324008            0.000608018189           
       0.360975             0.00484646556            0.000552313212           
       0.361654             0.00667050718            0.000651306702           
       0.362333             0.00633875612            0.000631675774           
       0.363012             0.00587255749            0.000615825922           
       0.363691             0.00569760349            0.000594615947           
       0.364370             0.00445074426            0.000532060818           
       0.365050             0.00583527148            0.000605961911           
       0.365729             0.00546189788            0.000591844984           
       0.366408             0.00482910521            0.000557737786           
       0.367087             0.00498906424            0.000557807394           
       0.367766             0.00403847998            0.000512317994           
       0.368445             0.00527053588            0.000574881119           
       0.369124             0.00483092346            0.000554707575           
       0.369804             0.00525823642             0.00057779476           
       0.370483             0.00517583933            0.000575758031           
       0.371162             0.00531909384            0.000587055382           
       0.371841             0.00512673554            0.000566293735           
       0.372520             0.00424171661            0.000525425679           
       0.373199             0.00469442026            0.000546149491           
       0.373879             0.00554187987            0.000600272457           
       0.374558             0.00497898741            0.000560668699           
       0.375237             0.00468326238            0.000544654864           
       0.375916             0.00506573759            0.000577310865           
       0.376595             0.00481057752            0.000551588073           
       0.377274             0.00410982625            0.000517993932           
       0.377954             0.00379165337            0.000489723293           
       0.378633              0.0036351023            0.000485566448           
       0.379312             0.00493153454            0.000565420745           
       0.379991             0.00391723592            0.000501322159           
       0.380670             0.00466537302            0.000556774347           
       0.381349             0.00446143725            0.000536651664           
       0.382029             0.00473802629             0.00056096058           
       0.382708              0.0040655837            0.000508283643           
       0.383387              0.0044068934            0.000541181814           
       0.384066             0.00527606129            0.000586716919           
       0.384745             0.00467667344            0.000554556904           
       0.385424             0.00398307596            0.000513522452           
       0.386104             0.00453654418            0.000541984177           
       0.386783             0.00448251161            0.000550399883           
       0.387462             0.00391448675            0.000501550284           
       0.388141             0.00518421953            0.000586408645           
       0.388820             0.00426096783            0.000527791046           
       0.389499             0.00462325702            0.000552866049           
       0.390178             0.00388708888            0.000508960593           
       0.390858             0.00472687911             0.00055671215           
       0.391537             0.00430069119            0.000536444507           
       0.392216             0.00483639537            0.000561744257           
       0.392895             0.00467405374            0.000554096265           
       0.393574             0.00399009657            0.000510683971           
       0.394253             0.00390395776            0.000507414029           
       0.394933             0.00507177342            0.000584957726           
       0.395612             0.00413021068            0.000512541074           
       0.396291             0.00352569089            0.000483189574           
       0.396970             0.00436199295            0.000532688053           
       0.397649             0.00354059939            0.000481397629           
       0.398328             0.00390639841            0.000503431815           
       0.399008             0.00426033729             0.00052460148           
       0.399687             0.00351707455            0.000478502253           
       0.400366             0.00439541576            0.000532879371           
       0.401045             0.00322622286            0.000455673957           
       0.401724              0.0033651007            0.000466155032           
       0.402403             0.00415199242            0.000521832855           
       0.403083             0.00344575168            0.000468529754           
       0.403762             0.00444008785             0.00053447486           
       0.404441             0.00417287902            0.000521442782           
       0.405120             0.00337061863            0.000467107747           
       0.405799             0.00443097085            0.000533237752           
       0.406478             0.00301357629            0.000439767819           
       0.407158             0.00409385182            0.000511602401           
       0.407837              0.0044804346            0.000539936907           
       0.408516             0.00451807675             0.00053748346           
       0.409195             0.00313147904            0.000452545173           
       0.409874             0.00342953204            0.000480181476           
       0.410553             0.00385547294            0.000514603486           
       0.411233             0.00395030157            0.000518194553           
       0.411912             0.00316323866            0.000470277376           
       0.412591             0.00300731814            0.000461575351           
       0.413270             0.00326376981            0.000478568955           
       0.413949             0.00355354251            0.000504816087           
       0.414628             0.00360497646            0.000507543409           
       0.415307             0.00340887901            0.000499036123           
       0.415987             0.00348650151            0.000500526947           
       0.416666             0.00386010224            0.000523493251           
       0.417345             0.00254643207            0.000432285068           
       0.418024             0.00298325235            0.000467907758           
       0.418703              0.0030360056              0.0004711595           
       0.419382             0.00401772843             0.00053935352           
       0.420062             0.00325483394            0.000486813644           
       0.420741             0.00312749392            0.000479733489           
       0.421420             0.00300250374            0.000471832145           
       0.422099             0.00272466441            0.000449483282           
       0.422778             0.00334999591            0.000501100304           
       0.423457              0.0021824783            0.000406937396           
       0.424137             0.00378410991            0.000527106832           
       0.424816             0.00304307659            0.000482565322           
       0.425495              0.0030297986            0.000481055857           
       0.426174             0.00342531053            0.000511670809           
       0.426853             0.00323241548            0.000494035543           
       0.427532             0.00221697885            0.000412602428           
       0.428212              0.0023242428            0.000425254774           
       0.428891             0.00292176937            0.000475710227           
       0.429570             0.00293973531            0.000477496816           
       0.430249             0.00229334709            0.000419556594           
       0.430928             0.00240462891            0.000439009803           
       0.431607             0.00270170129            0.000457342738           
       0.432287             0.00250406665            0.000443522072           
       0.432966             0.00277734695            0.000471205905           
       0.433645              0.0024128967            0.000439661373           
       0.434324             0.00221040572            0.000418272324           
       0.435003             0.00191319538            0.000389801869           
       0.435682             0.00250059884            0.000449297142           
       0.436361             0.00240963694            0.000440459337           
       0.437041             0.00232279165            0.000431872125           
       0.437720              0.0013070405            0.000325524968           
       0.438399             0.00263230143            0.000464374086           
       0.439078             0.00314390788            0.000522215357           
       0.439757               0.002678365            0.000479033501           
       0.440436             0.00298477761            0.000517089654           
       0.441116             0.00291891496            0.000519714361           
       0.441795              0.0019065369            0.000420532461           
       0.442474             0.00378362159            0.000594073365           
       0.443153              0.0030980066            0.000550101649           
       0.443832             0.00320759262            0.000560689988           
       0.444511             0.00337531553            0.000572570691           
       0.445191             0.00294953154            0.000548258606           
       0.445870             0.00203053658            0.000454910755           
       0.446549             0.00197114373            0.000452934745           
       0.447228             0.00184285835            0.000435473249           
       0.447907             0.00221076994            0.000482689121           
       0.448586             0.00167460388            0.000430207162           
       0.449266             0.00185094754            0.000448131445           
       0.449945             0.00118848139            0.000357626358           
       0.450624             0.00331766554            0.000607004904           
       0.451303             0.00162644913            0.000430516319           
       0.451982             0.00260571564            0.000541551529           
       0.452661             0.00327510623            0.000618451249           
       0.453341             0.00332957693             0.00062575827           
       0.454020             0.00286502528             0.00058134992           
       0.454699             0.00195853932            0.000485051719           
       0.455378             0.00219954909            0.000514306165           
       0.456057             0.00141369583             0.00041965145           
       0.456736             0.00129008216            0.000399634557           
       0.457416             0.00240728519            0.000545921821           
       0.458095             0.00121525506            0.000393496141           
       0.458774            0.000984887118            0.000358923517           
       0.459453             0.00231427762            0.000552969616           
       0.460132             0.00243881845            0.000555394361           
       0.460811             0.00144902898            0.000444077388           
       0.461490             0.00233834389             0.00055838626           
       0.462170             0.00213749538            0.000542198268           
       0.462849             0.00190569775             0.00051527639           
       0.463528             0.00188871673            0.000511785965           
       0.464207            0.000685754258            0.000314152311           
       0.464886             0.00208394628            0.000543380851           
       0.465565             0.00142244027             0.00045386099           
       0.466245              0.0022973701            0.000578584634           
       0.466924            0.000597835145            0.000302121535           
       0.467603              0.0017226319            0.000501968374           
       0.468282             0.00197204139             0.00054981476           
       0.468961             0.00138024863            0.000462999709           
       0.469640             0.00202898986            0.000563600137           
       0.470320             0.00123213221            0.000439501008           
       0.470999            0.000956226926            0.000390830767           
       0.471678              0.0016340716            0.000515820185           
       0.472357             0.00146623317            0.000489976273           
       0.473036            0.000836495195            0.000372424249           
       0.473715             0.00119845252            0.000449263197           
       0.474395             0.00123261541            0.000461919644           
       0.475074             0.00228344108            0.000628724218           
       0.475753             0.00102026112            0.000416636465           
       0.476432            0.000777058832            0.000376841273           
       0.477111             0.00110707509            0.000444361249           
       0.477790             0.00110771146            0.000446863838           
       0.478470             0.00113867575            0.000459057969           
       0.479149            0.000425190716            0.000283418587           
       0.479828            0.000976508029            0.000428499956           
       0.480507            6.44545248e-05            0.000110975454           
       0.481186            0.000474272337            0.000307819001           
       0.481865            0.000270435808            0.000229563091           
       0.482545             0.00067853432            0.000367898059           
       0.483224            0.000480726081            0.000311779733           
       0.483903            0.000712783492            0.000385625211           
       0.484582            0.000315884036            0.000260889181           
       0.485261             0.00048729863            0.000315823824           
       0.485940            0.000977513931            0.000465354919           
       0.486619            0.000522197976            0.000336384974           
       0.487299            0.000351985941             0.00028057597           
       0.487978           -0.000316653582                         0           
       0.488657           -7.99089255e-05                         0           
       0.489336            0.000134825788            0.000175835391           
       0.490015             -9.215873e-05                         0           
       0.490694           -0.000316730206                         0           
       0.491374           -7.48874426e-05                         0           
       0.492053           -0.000316768588                         0           
       0.492732             0.00018099988            0.000212804569           
       0.493411           -0.000316807149                         0           
       0.494090           -0.000316826681                         0           
       0.494769           -5.32945707e-05                         0           
       0.495449            -0.00031686526                         0           
       0.496128           -0.000316884744                         0           
       0.496807            0.000514798307            0.000379083385           
       0.497486            0.000219031487            0.000241384752           
       0.498165            -0.00031694319                         0           
       0.498844           -3.47949056e-05                         0           
       0.499524            0.000249541441            0.000266162818           
       0.500203           -0.000317001974                         0           
       0.500882           -0.000317021416                         0           
       0.501561           -0.000317040918                         0           
       0.502240           -0.000317060681                         0           
       0.502919           -0.000317080356                         0           
       0.503599           -0.000317100111                         0           
       0.504278           -0.000317120142                         0           
       0.504957           -0.000317139939                         0           
       0.505636           -0.000317159608                         0           
       0.506315           -0.000317179601                         0           
       0.506994           -0.000317199237                         0           
       0.507673           -0.000317218833                         0           
       0.508353           -0.000317238843                         0           
       0.509032           -0.000317258766                         0           
       0.509711            2.60074214e-05            9.40812722e-05           
       0.510390           -0.000317298943                         0           
       0.511069           -0.000317319121                         0           
       0.511748            4.11836092e-05            0.000122507327           
       0.512428            6.43672266e-05            0.000156059455           
       0.513107           -0.000317379386                         0           
       0.513786           -0.000317399377                         0           
       0.514465           -0.000317419709                         0           
       0.515144           -0.000317440027                         0           
       0.515823            -0.00031746016                         0           
       0.516503           -0.000317480482                         0           
       0.517182           -0.000317500802                         0           
       0.517861           -0.000317521072                         0           
       0.518540           -0.000317541457                         0           
       0.519219            0.000107350611            0.000215425336           
       0.519898           -0.000317582196                         0           
       0.520578           -0.000317602791                         0           
       0.521257            -0.00031762312                         0           
       0.521936            0.000135062808             0.00024806438           
       0.522615           -0.000317664119                         0           
       0.523294           -0.000317684817                         0           
       0.523973           -0.000317705229                         0           
       0.524653           -0.000317725494                         0           
       0.525332            0.000150923783            0.000266382355           
       0.526011            0.000195816476            0.000316870493           
       0.526690           -0.000317787874                         0           
       0.527369           -0.000317808591                         0           
       0.528048           -0.000317829456                         0           
       0.528728           -0.000317850296                         0           
       0.529407            -0.00031787104                         0           
       0.530086           -0.000317891677                         0           
       0.530765           -0.000317912343                         0           
       0.531444           -0.000317933232                         0           
       0.532123           -0.000317954491                         0           
       0.532802           -0.000317975576                         0           
       0.533482           -0.000317996589                         0           
       0.534161           -0.000318017636                         0           
       0.534840           -0.000318038503                         0           
       0.535519           -0.000318059756                         0           
       0.536198           -0.000318080789                         0           
       0.536877             0.00095177565            0.000778531452           
       0.537557           -0.000318122632                         0           
       0.538236           -0.000318143922                         0           
       0.538915           -0.000318165204                         0           
       0.539594           -0.000318186458                         0           
       0.540273           -0.000318208044                         0           
       0.540952           -0.000318229389                         0           
       0.541632           -0.000318250345                         0           
       0.542311           -0.000318271492                         0           
       0.542990           -0.000318292877                         0           
       0.543669           -0.000318314439                         0           
       0.544348             0.00114392664            0.000917341902           
       0.545027            0.000350961126            0.000483400731           
       0.545707           -0.000318379024                         0           
       0.546386            -0.00031840064                         0           
       0.547065           -0.000318421997                         0           
       0.547744           -0.000318443451                         0           
       0.548423           -0.000318465142                         0           
       0.549102            0.000504149636            0.000641646526           
       0.549782           -0.000318508458                         0           
       0.550461           -0.000318530317                         0           
       0.551140           -0.000318552308                         0           
       0.551819            -0.00031857404                         0           
       0.552498           -0.000318595957                         0           
       0.553177           -0.000318617498                         0           
       0.553856           -0.000318639116                         0           
       0.554536           -0.000318660805                         0           
       0.555215           -0.000318682825                         0           
       0.555894           -0.000318704793                         0           
       0.556573           -0.000318726891                         0           
       0.557252           -0.000318748972                         0           
       0.557931           -0.000318770952                         0           
       0.558611           -0.000318793446                         0           
       0.559290           -0.000318815368                         0           
       0.559969            -0.00031883675                         0           
       0.560648            0.000589436857            0.000730092025           
       0.561327            0.000856513415             0.00100121698           
       0.562006            0.000621443549            0.000764320303           
       0.562686            -0.00031892582                         0           
       0.563365            -0.00031894825                         0           
       0.564044           -0.000318970566                         0           
       0.564723           -0.000318992833                         0           
       0.565402           -0.000319014686                         0           
       0.566081           -0.000319036683                         0           
       0.566761           -0.000319058917                         0           
       0.567440           -0.000319081603                         0           
       0.568119            -0.00031910411                         0           
       0.568798           -0.000319126933                         0           
       0.569477            -0.00031914961                         0           
       0.570156           -0.000319172397                         0           
       0.570836           -0.000319195098                         0           
       0.571515           -0.000319217319                         0           
       0.572194           -0.000319240184                         0           
       0.572873           -0.000319262526                         0           
       0.573552           -0.000319284737                         0           
       0.574231           -0.000319307398                         0           
       0.574911            -0.00031933063                         0           
       0.575590           -0.000319353415                         0           
       0.576269             0.00149246244             0.00165688759           
       0.576948           -0.000319399283                         0           
       0.577627           -0.000319421728                         0           
       0.578306           -0.000319444491                         0           
       0.578985           -0.000319467448                         0           
       0.579665           -0.000319490273                         0           
       0.580344             0.00173686184             0.00189260506           
       0.581023           -0.000319536588                         0           
       0.581702             0.00446880735             0.00326989257           
       0.582381             0.00493345629             0.00358207633           
       0.583060           -0.000319605643                         0           
       0.583740             0.00244344752             0.00260757578           
       0.584419           -0.000319651785                         0           
       0.585098           -0.000319674867                         0           
       0.585777           -0.000319698129                         0           
       0.586456           -0.000319721769                         0           
       0.587135           -0.000319744781                         0           
       0.587815           -0.000319767544                         0           
       0.588494           -0.000319791017                         0           
       0.589173           -0.000319815029                         0           
       0.589852           -0.000319837764                         0           
       0.590531           -0.000319861357                         0           
       0.591210           -0.000319884406                         0           
       0.591890           -0.000319907899                         0           
       0.592569           -0.000319930607                         0           
       0.593248           -0.000319955434                         0           
       0.593927           -0.000319979038                         0           
       0.594606           -0.000320003127                         0           
       0.595285           -0.000320025781                         0           
       0.595965           -0.000320046921                         0           
       0.596644           -0.000320068675                         0           
