################################################################################
# EDF_DataBlockID                     0.Image.Psd
# EDF_BinarySize                      2105344
# EDF_HeaderSize                      2560
# ByteOrder                           LowByteFirst
# DataType                            FloatValue
# Dim_1                               512
# Dim_2                               1028
# Image                               0
# HeaderID                            EH:000000:000000:000000
# Size                                2105344
# Center_1                            304.9000
# Center_2                            588.7000
# Comment                             Xenocs_Cell_Window - 20251028_20perc_iodine_1.23mg
# DDummy                              0.6
# Date                                2025-11-01T04:43:24
# Delta                               21.910000
# Dummy                               -1.5
# ExposureTime                        360
# Gamma                               15.360000
# Intensity1                          8.62071e-10
# PSize_1                             7.5e-05
# PSize_2                             7.5e-05
# Pressure                            0.0327435
# SampleDistance                      0.115750
# SampleEnvKind                       large
# SampleEnvPN                         ElectroChemical cell
# SampleEnvSN                         1141
# Thickness                           0
# Wavelength                          1.541891e-10
# Wavelength                          1.54189e-10
# aux                                 0
# aux_dial                            0.002375
# beamx                               588.434
# beamx_dial                          588.434
# beamz                               657.808
# beamz_dial                          657.808
# det0x                               0
# det0x_dial                          6.36945
# det0xvd                             0
# det0xvd_dial                        0
# det0y                               450.002
# det0y_dial                          481.635
# det0z                               0
# det0z_dial                          1.23302
# det0zvd                             0
# det0zvd_dial                        0
# mag                                 1.818
# mag_dial                            1.818
# om                                  0.2499
# om_dial                             -0.610199
# phi                                 -0.0120535
# phi_dial                            0
# ry                                  0.599993
# ry_dial                             0.599993
# s1bot                               0.8
# s1bot_dial                          -1.66094
# s1hl                                0.8
# s1hl_dial                           -0.608437
# s1hr                                0.8
# s1hr_dial                           0.970938
# s1top                               0.8
# s1top_dial                          -0.461562
# s2bot                               0.45
# s2bot_dial                          1.36109
# s2hl                                0.45
# s2hl_dial                           -0.83375
# s2hr                                0.45
# s2hr_dial                           -0.118594
# s2top                               0.45
# s2top_dial                          1.44734
# w2theta                             32
# w2theta_dial                        32
# waxsch                              19.2605
# waxsch_dial                         -32.7355
# waxsh                               137.085
# waxsh_dial                          -43.5338
# waxsth                              26.0607
# waxsth_dial                         -19.4086
# waxsz                               67.0407
# waxsz_dial                          -23.7954
# wind                                65.9854
# wind_dial                           66.0041
# wpsi                                124
# wpsi_dial                           124
# wstod                               115
# wstod_dial                          115
# x                                   0
# x_dial                              1.00969
# z                                   0
# z_dial                              13.3172
# CountCutoff                         6807993
# DetectorModel                       Dectris EIGER2 Si 500K, S/N E-01-0554
# ThresholdSetting                    4023.88989258
# Saturation                          0
# FlatField                           Corrected
# BackgroundReductionExtra            0.02
# BackgroundCorrectionConstant        0.0026712
# Detector                            0
# Monitor                             0
# Pil_Roi0                            0
# SumForIntensity1                    3.10345e+08
# TransmittedFlux                     862071
# det                                 0
# mon                                 0
# pilai0                              3.10345e+08
# pilai1                              791580
# pilct0                              5.35808e+08
# pilct1                              791580
# pilroi0                             0
# pilroi1                             0
# sec                                 1
# title                               20251028_20perc_iodine_1.23mg_1_00785.edf
# usaxs0                              0
# Operation                           Azimuthal average I(q)
# Error_model                         ErrorModel.poisson
# Geometrical_correction              True
# Transmission_correction             True
# Thickness_correction                False
# Binning mode                        Uniform
# Binning factor                      1.0
# Psi                                 0.0
# Omega                               0.2499
# MaskInvalidPixels                   True
# DetectorEdge                        3
# MaskFiles                           ['WAXS_corrected.edf']
################################################################################
    q(A⁻¹)                Intensity(a.u.)            Sigma_I(a.u.)            
       0.693100             0.00820138146             0.00601292873           
       0.695741           -2.35249232e-05                         0           
       0.698381             0.00413803273             0.00426933356           
       0.701021             -2.351457e-05                         0           
       0.703662             0.00556986311             0.00404182062           
       0.706302             0.00504494718             0.00297810661           
       0.708942              0.0113118313             0.00575571716           
       0.711583               0.004331056             0.00308400929           
       0.714223             0.00870718637             0.00504844486           
       0.716864             0.00743782925             0.00305290003           
       0.719504             0.00726302043             0.00325548703           
       0.722144             0.00366623805             0.00214197543           
       0.724785              0.0109582779             0.00295397431           
       0.727425             0.00876423906             0.00357382032           
       0.730065             0.00653564035             0.00218303599           
       0.732706             0.00606484151             0.00176593736           
       0.735346             0.00963643887             0.00290166963           
       0.737987             0.00695258313             0.00174164583           
       0.740627             0.00769267765             0.00273345545           
       0.743267             0.00736237165             0.00179111826           
       0.745908             0.00618432401              0.0017810259           
       0.748548             0.00653073638             0.00168701765           
       0.751189             0.00715665448             0.00237963366           
       0.753829             0.00667677081             0.00211282448           
       0.756469             0.00906006018             0.00198462781           
       0.759110             0.00962778353              0.0021559924           
       0.761750             0.00681070332             0.00160339569           
       0.764390             0.00819157767             0.00184049217           
       0.767031             0.00553188313              0.0013097423           
       0.769671             0.00724071199              0.0018691951           
       0.772312              0.0089094774             0.00157848865           
       0.774952             0.00664031256             0.00184021822           
       0.777592              0.0089172497             0.00155327274           
       0.780233             0.00707966413             0.00166979191           
       0.782873             0.00861113922             0.00176128227           
       0.785513             0.00702121401             0.00170023338           
       0.788154             0.00722559475             0.00144285637           
       0.790794             0.00659703336             0.00164823707           
       0.793435             0.00697905361             0.00152297868           
       0.796075             0.00585456519             0.00134372081           
       0.798715             0.00599747888             0.00160715893           
       0.801356             0.00890551937             0.00168554365           
       0.803996             0.00564069403             0.00136763235           
       0.806637             0.00838823154             0.00132724323           
       0.809277             0.00466877548             0.00107176147           
       0.811917             0.00623583287             0.00115792793           
       0.814558             0.00858250877             0.00141185885           
       0.817198              0.0075419387             0.00125739199           
       0.819838             0.00751647669             0.00127042363           
       0.822479             0.00830744574              0.0015683546           
       0.825119             0.00790652295             0.00130225788           
       0.827760             0.00702009494             0.00124299264           
       0.830400             0.00753030535             0.00121165383           
       0.833040             0.00919059635             0.00140241896           
       0.835681             0.00664266971             0.00135541518           
       0.838321             0.00624369902             0.00110294972           
       0.840961             0.00852206389             0.00140395477           
       0.843602             0.00814215158             0.00125845879           
       0.846242             0.00578876907             0.00106095689           
       0.848883             0.00732014778             0.00122093157           
       0.851523             0.00751834103             0.00122197939           
       0.854163             0.00740539178             0.00128972186           
       0.856804             0.00849370627             0.00124192851           
       0.859444             0.00678444163             0.00108754059           
       0.862085             0.00546514465             0.00101732868           
       0.864725             0.00656309016             0.00114092919           
       0.867365             0.00700293986             0.00109285012           
       0.870006             0.00601014952            0.000964763639           
       0.872646             0.00802299579             0.00116888645           
       0.875286             0.00657070503             0.00101768421           
       0.877927             0.00702667021             0.00101551926           
       0.880567             0.00742803833             0.00108172962           
       0.883208             0.00723821525             0.00105775859           
       0.885848             0.00764914786             0.00112901725           
       0.888488             0.00805094929             0.00108640525           
       0.891129             0.00799247564             0.00111145313           
       0.893769             0.00607852953            0.000927627253           
       0.896410              0.0085632009             0.00102652957           
       0.899050             0.00877543352             0.00114280734           
       0.901690             0.00721889325             0.00112906199           
       0.904331             0.00651927953            0.000951235369           
       0.906971             0.00676398732             0.00103077522           
       0.909611             0.00832123987             0.00104076029           
       0.912252             0.00665686969            0.000961496895           
       0.914892             0.00777755685             0.00113571643           
       0.917533             0.00708962779              0.0010257688           
       0.920173             0.00574342725            0.000856602406           
       0.922813              0.0070379161            0.000995065328           
       0.925454             0.00787268915              0.0009476796           
       0.928094             0.00671802943            0.000934594277           
       0.930734             0.00735863882             0.00105307562           
       0.933375             0.00619677033            0.000956870138           
       0.936015             0.00876212221             0.00103338722           
       0.938656             0.00717236385             0.00100298321           
       0.941296             0.00633244726            0.000854099508           
       0.943936              0.0068630279            0.000871960499           
       0.946577             0.00655660131             0.00084663768           
       0.949217             0.00748289627             0.00083174009           
       0.951858             0.00870932195            0.000939309758           
       0.954498             0.00866653569             0.00108456054           
       0.957138             0.00779494398            0.000974437558           
       0.959779             0.00781660761            0.000961929065           
       0.962419             0.00838262423            0.000989522006           
       0.965059             0.00930105372             0.00109624909           
       0.967700             0.00769881745             0.00102150216           
       0.970340             0.00677856818            0.000848185735           
       0.972981             0.00941090081            0.000910545587           
       0.975621             0.00718198434            0.000846212842           
       0.978261             0.00954947022             0.00092715216           
       0.980902             0.00666618187            0.000926818194           
       0.983542             0.00818506882             0.00090946851           
       0.986182             0.00907879869            0.000940396497           
       0.988823             0.00761856061            0.000836475602           
       0.991463             0.00866111528            0.000951536987           
       0.994104             0.00815205675            0.000900547223           
       0.996744             0.00787660449            0.000902899018           
       0.999384             0.00736926232            0.000781055084           
       1.002025             0.00867172843            0.000945666694           
       1.004665                0.00741871            0.000799349777           
       1.007306             0.00894852312            0.000873413047           
       1.009946             0.00726949686            0.000802854356           
       1.012586             0.00867839642            0.000854352374           
       1.015227             0.00705956494            0.000827822289           
       1.017867             0.00735136266            0.000811870403           
       1.020507              0.0101114722             0.00092229646           
       1.023148             0.00822292646            0.000897447389           
       1.025788             0.00763496245            0.000792923403           
       1.028429              0.0078615223            0.000842952923           
       1.031069             0.00703273548            0.000750273317           
       1.033709             0.00829427565            0.000866125576           
       1.036350              0.0100727905            0.000857252932           
       1.038990              0.0076378832            0.000760201818           
       1.041630              0.0086640297            0.000844482939           
       1.044271             0.00806653417            0.000766331063           
       1.046911             0.00748426995            0.000776442942           
       1.049552              0.0080122408            0.000844034752           
       1.052192             0.00727556008            0.000734425282           
       1.054832             0.00883117517            0.000816500592           
       1.057473             0.00682625625            0.000707656435           
       1.060113              0.0083906155            0.000765162712           
       1.062754             0.00793104951            0.000759522179           
       1.065394             0.00788576295            0.000800715388           
       1.068034             0.00861123499            0.000761316045           
       1.070675              0.0076182808            0.000746958052           
       1.073315             0.00739846889            0.000746654176           
       1.075955             0.00798510788            0.000732297009           
       1.078596             0.00865436546            0.000810245608           
       1.081236             0.00737477641            0.000716212476           
       1.083877             0.00827280647            0.000751762071           
       1.086517             0.00816702787            0.000800938786           
       1.089157             0.00836519501            0.000841085876           
       1.091798             0.00810304947            0.000725747788           
       1.094438             0.00858890903            0.000744777413           
       1.097078              0.0089189266            0.000727913735           
       1.099719             0.00840469696             0.00076431532           
       1.102359             0.00810744633            0.000703018745           
       1.105000             0.00943672399            0.000848111573           
       1.107640             0.00941519589            0.000810007053           
       1.110280             0.00829104847            0.000693546236           
       1.112921             0.00783020075            0.000724017141           
       1.115561             0.00830671855            0.000708746639           
       1.118202             0.00897989859            0.000737600173           
       1.120842             0.00850011854            0.000754228913           
       1.123482             0.00861606073             0.00075603878           
       1.126123             0.00803531373            0.000700302365           
       1.128763             0.00823030607            0.000713607928           
       1.131403              0.0103907149            0.000772617803           
       1.134044             0.00882200052             0.00073255787           
       1.136684             0.00831652789            0.000758328301           
       1.139325             0.00991066754            0.000762589976           
       1.141965             0.00885703283             0.00072568039           
       1.144605             0.00875600343            0.000687980718           
       1.147246             0.00875421043            0.000704016661           
       1.149886             0.00944541422            0.000728686101           
       1.152527             0.00919651556            0.000729477108           
       1.155167             0.00883985655            0.000680256482           
       1.157807             0.00697455736            0.000647851343           
       1.160448             0.00885508705            0.000712848253           
       1.163088             0.00954748128            0.000706035373           
       1.165728             0.00869182038            0.000691654141           
       1.168369             0.00878380368            0.000701727937           
       1.171009              0.0100116112            0.000727047599           
       1.173650             0.00921479333            0.000715816874           
       1.176290             0.00923816821            0.000700400318           
       1.178930             0.00867322778            0.000665135609           
       1.181571              0.0105910686            0.000749579413           
       1.184211              0.0113013515            0.000777051945           
       1.186851             0.00994705577            0.000712740358           
       1.189492             0.00916355149            0.000679492065           
       1.192132             0.00964245948            0.000689201246           
       1.194773             0.00958657623            0.000690203758           
       1.197413              0.0104452018            0.000690293302           
       1.200053             0.00933359731            0.000669108694           
       1.202694             0.00976123149            0.000650697044           
       1.205334             0.00885466061              0.0006678903           
       1.207975              0.0092103215            0.000650197562           
       1.210615              0.0107271985            0.000774093655           
       1.213255              0.0106598385            0.000691003246           
       1.215896             0.00943009756            0.000661700414           
       1.218536             0.00898936835            0.000621207256           
       1.221176             0.00953368271             0.00069552667           
       1.223817             0.00919243292             0.00064111117           
       1.226457             0.00958038976            0.000667685813           
       1.229098             0.00995901238            0.000680718474           
       1.231738             0.00998581033            0.000684988461           
       1.234378              0.0108440152            0.000670738004           
       1.237019             0.00957614462               0.000649527           
       1.239659              0.0108722977            0.000686061124           
       1.242299              0.0107762729            0.000674346818           
       1.244940             0.00980071713            0.000625454264           
       1.247580              0.0110719308            0.000685110728           
       1.250221              0.0107529931            0.000671004934           
       1.252861              0.0105738744            0.000633457155           
       1.255501              0.0106057723            0.000688850066           
       1.258142             0.00982177018            0.000622914085           
       1.260782              0.0104596957            0.000656734019           
       1.263423             0.00970612519            0.000607890286           
       1.266063             0.00926782326            0.000608839543           
       1.268703              0.0101955779            0.000633287722           
       1.271344              0.0101278655             0.00065257247           
       1.273984              0.0103951199            0.000638517736           
       1.276624              0.0101943215            0.000620441552           
       1.279265              0.0107009266            0.000646227321           
       1.281905               0.010407462            0.000640133035           
       1.284546              0.0103042221             0.00061567006           
       1.287186              0.0105784437            0.000612022373           
       1.289826              0.0101130157            0.000630672105           
       1.292467              0.0102309265            0.000620366233           
       1.295107               0.010959304            0.000635691609           
       1.297747              0.0105791317             0.00059766008           
       1.300388              0.0105625768            0.000651014964           
       1.303028              0.0111200347            0.000637687402           
       1.305669              0.0110985993            0.000652241771           
       1.308309               0.010714873             0.00063455615           
       1.310949              0.0115411606            0.000657907163           
       1.313590              0.0117011989            0.000641745439           
       1.316230               0.011677404            0.000684134821           
       1.318871              0.0102027323            0.000626291887           
       1.321511              0.0109265301            0.000636113143           
       1.324151              0.0105895882            0.000607663047           
       1.326792              0.0109516817            0.000621785247           
       1.329432              0.0105153461            0.000604973286           
       1.332072              0.0110485243            0.000610879456           
       1.334713              0.0108336483            0.000624327131           
       1.337353              0.0108826835            0.000600095651           
       1.339994               0.010390547            0.000615336823           
       1.342634              0.0116463051            0.000624709264           
       1.345274              0.0115407007            0.000643577525           
       1.347915              0.0112819443            0.000618749786           
       1.350555              0.0103630681            0.000603403171           
       1.353195              0.0106473443            0.000614627341           
       1.355836              0.0119250227            0.000640317652           
       1.358476              0.0112460143            0.000603882319           
       1.361117              0.0110189652            0.000598575747           
       1.363757              0.0118272767            0.000639077672           
       1.366397              0.0118741418             0.00062096504           
       1.369038               0.010755102            0.000596865233           
       1.371678              0.0102430247            0.000577347624           
       1.374319             0.00996634185            0.000564592782           
       1.376959              0.0121342304             0.00061671419           
       1.379599              0.0113135676            0.000638189563           
       1.382240              0.0109689937            0.000590597761           
       1.384880              0.0109124067             0.00062396152           
       1.387520              0.0100473924            0.000568623448           
       1.390161              0.0108366456            0.000560866228           
       1.392801             0.00987229245            0.000557761044           
       1.395442              0.0108130273            0.000591703515           
       1.398082              0.0117560947            0.000577762847           
       1.400722               0.011538583            0.000599568525           
       1.403363              0.0106896803            0.000607459291           
       1.406003              0.0116922194            0.000594561552           
       1.408644              0.0101810646            0.000581200435           
       1.411284              0.0117231752            0.000590556222           
       1.413924              0.0112709584            0.000576907267           
       1.416565              0.0113860304             0.00057756709           
       1.419205              0.0112845575            0.000599803894           
       1.421845              0.0103007642            0.000572725674           
       1.424486              0.0110856881            0.000571110984           
       1.427126               0.011064148            0.000592697207           
       1.429767              0.0101570337            0.000534306991           
       1.432407              0.0108160127            0.000577018758           
       1.435047              0.0107407809            0.000540028422           
       1.437688              0.0106907699            0.000546825273           
       1.440328              0.0106265667             0.00055641823           
       1.442968               0.011137915            0.000582411602           
       1.445609              0.0111813147            0.000565033585           
       1.448249              0.0106533392            0.000565496407           
       1.450890              0.0106061951             0.00056056098           
       1.453530              0.0105867891            0.000585922766           
       1.456170              0.0118396098            0.000601357836           
       1.458811              0.0101658546            0.000532837307           
       1.461451              0.0110709616            0.000557510588           
       1.464092              0.0111482249            0.000563110214           
       1.466732              0.0110864622             0.00055672267           
       1.469372              0.0109301366            0.000539846842           
       1.472013              0.0102214861            0.000563044848           
       1.474653              0.0106521076            0.000565916013           
       1.477293              0.0109737876             0.00058650381           
       1.479934              0.0111313805            0.000563651337           
       1.482574              0.0107797328            0.000536563173           
       1.485215              0.0108265659             0.00054774277           
       1.487855              0.0106887547            0.000551424997           
       1.490495              0.0105188271            0.000545009573           
       1.493136              0.0100480266            0.000525371928           
       1.495776              0.0102582587            0.000528422494           
       1.498416              0.0109280138            0.000563243883           
       1.501057              0.0107135193            0.000545398192           
       1.503697              0.0111419504            0.000543770764           
       1.506338              0.0107370721            0.000543553906           
       1.508978             0.00997112407             0.00051865626           
       1.511618              0.0114053465            0.000590757744           
       1.514259              0.0101222315            0.000537309503           
       1.516899             0.00995742372            0.000518884868           
       1.519540              0.0101956649            0.000533522505           
       1.522180             0.00968185197            0.000524472331           
       1.524820              0.0111235522            0.000559012673           
       1.527461              0.0112427953            0.000564780435           
       1.530101              0.0106248315            0.000543548426           
       1.532741              0.0112476014            0.000556005975           
       1.535382              0.0107034483            0.000551121412           
       1.538022              0.0109183059            0.000524370637           
       1.540663             0.00960931677            0.000529105579           
       1.543303             0.00991262305            0.000498976303           
       1.545943              0.0112107073            0.000561646036           
       1.548584              0.0106296339            0.000556713888           
       1.551224               0.010495064            0.000511465986           
       1.553864              0.0100978356            0.000530132788           
       1.556505             0.00928718637            0.000491135543           
       1.559145             0.00923829575            0.000495841598           
       1.561786             0.00975045369            0.000509792904           
       1.564426             0.00908130351            0.000476686195           
       1.567066              0.0103645384            0.000533599203           
       1.569707              0.0103919895            0.000524707565           
       1.572347              0.0114528354            0.000569071501           
       1.574988             0.00965423257            0.000497312825           
       1.577628              0.0107947874            0.000548352029           
       1.580268             0.00994072651            0.000509844235           
       1.582909             0.00898674188            0.000513829643           
       1.585549              0.0105538345              0.0005406648           
       1.588189             0.00981315034             0.00050996876           
       1.590830              0.0098971239            0.000511503277           
       1.593470              0.0084175505            0.000490400985           
       1.596111             0.00917459668            0.000499850336           
       1.598751             0.00966358281            0.000497077767           
       1.601391             0.00928374899             0.00049796006           
       1.604032             0.00938390508            0.000511104871           
       1.606672              0.0103257564            0.000520912042           
       1.609312             0.00915130256            0.000511913711           
       1.611953              0.0090711737             0.00049874154           
       1.614593             0.00920674313            0.000492868155           
       1.617234              0.0094141273             0.00051651797           
       1.619874             0.00953385471            0.000517738779           
       1.622514             0.00939781334            0.000507019476           
       1.625155             0.00965881764            0.000517048476           
       1.627795             0.00960971402            0.000503096141           
       1.630436             0.00908401074            0.000486587436           
       1.633076             0.00943389737            0.000502373314           
       1.635716             0.00899733522            0.000482978242           
       1.638357             0.00855029406            0.000472067789           
       1.640997              0.0082975134            0.000479124263           
       1.643637             0.00906048177            0.000487206389           
       1.646278             0.00915599363            0.000505156168           
       1.648918             0.00956310508             0.00051767298           
       1.651559              0.0093042301            0.000514581311           
       1.654199             0.00797042482            0.000463215793           
       1.656839             0.00775967786            0.000457210336           
       1.659480             0.00849801626            0.000496435454           
       1.662120             0.00875107465            0.000474470977           
       1.664761             0.00955315388            0.000514943982           
       1.667401             0.00928013133            0.000485092181           
       1.670041             0.00916387943            0.000489394325           
       1.672682             0.00914547095            0.000486893055           
       1.675322              0.0094084005            0.000490666829           
       1.677962             0.00898036823            0.000474087417           
       1.680603              0.0085410066            0.000463767451           
       1.683243             0.00918296462            0.000501709148           
       1.685884             0.00936491681            0.000510396692           
       1.688524             0.00832654829            0.000471966551           
       1.691164             0.00880313846            0.000485395836           
       1.693805             0.00853874892             0.00048330277           
       1.696445             0.00904341842            0.000500265341           
       1.699085             0.00815090732            0.000459023893           
       1.701726               0.008322642            0.000446823439           
       1.704366             0.00847629411            0.000475041539           
       1.707007             0.00916914787            0.000483061743           
       1.709647             0.00876505737            0.000477631076           
       1.712287             0.00927297545            0.000495551274           
       1.714928              0.0085333245            0.000479209779           
       1.717568             0.00851666095            0.000450976543           
       1.720209             0.00932529231            0.000494283114           
       1.722849              0.0087224182            0.000475580992           
       1.725489             0.00843745411            0.000468140557           
       1.728130             0.00809530219            0.000487310591           
       1.730770             0.00798147282            0.000459548722           
       1.733410              0.0084124525            0.000464376725           
       1.736051             0.00904498438             0.00048487016           
       1.738691             0.00848235154            0.000460029321           
       1.741332             0.00896259928             0.00048669995           
       1.743972             0.00848280649            0.000488962527           
       1.746612             0.00868194386            0.000475007898           
       1.749253               0.007750463            0.000457666574           
       1.751893             0.00867878891            0.000480745665           
       1.754533             0.00868550247            0.000480482439           
       1.757174             0.00863001405            0.000474460092           
       1.759814             0.00847049741            0.000462929577           
       1.762455             0.00851319286            0.000472616568           
       1.765095             0.00941549384            0.000475471436           
       1.767735             0.00819779237            0.000457348023           
       1.770376             0.00830693785            0.000461596218           
       1.773016             0.00836633433            0.000460140607           
       1.775657              0.0086722888            0.000461737898           
       1.778297             0.00873815533            0.000459497009           
       1.780937             0.00921129854            0.000497956408           
       1.783578             0.00867101554            0.000471051734           
       1.786218             0.00847686711            0.000486059345           
       1.788858             0.00918138936            0.000480439933           
       1.791499             0.00805017569            0.000444818098           
       1.794139             0.00885049122            0.000462621246           
       1.796780             0.00938450643            0.000474076959           
       1.799420             0.00901468362            0.000462068832           
       1.802060             0.00884603716            0.000461423432           
       1.804701             0.00870763637            0.000439325327           
       1.807341             0.00925432487            0.000475906128           
       1.809981             0.00954158272            0.000484846967           
       1.812622             0.00987263253            0.000484307298           
       1.815262             0.00920699586             0.00047763077           
       1.817903             0.00991566873            0.000488327625           
       1.820543             0.00849856863            0.000459132764           
       1.823183             0.00934084624             0.00048108264           
       1.825824             0.00885352691            0.000447457254           
       1.828464             0.00938928706            0.000480400864           
       1.831105             0.00821316868            0.000436884276           
       1.833745             0.00918660052            0.000471917427           
       1.836385             0.00865615558            0.000471163518           
       1.839026             0.00847988942            0.000464868287           
       1.841666             0.00874733858             0.00047046799           
       1.844306             0.00882213469            0.000459583415           
       1.846947             0.00838142619            0.000451883819           
       1.849587              0.0102429297            0.000551625521           
       1.852228             0.00875889006            0.000461258368           
       1.854868             0.00850869852            0.000480241835           
       1.857508             0.00895540617            0.000487854735           
       1.860149              0.0091245556            0.000501387415           
       1.862789             0.00955302075            0.000495187083           
       1.865429             0.00871457681            0.000493695246           
       1.868070             0.00934432341            0.000504408529           
       1.870710             0.00948074204            0.000496363634           
       1.873351             0.00899193634            0.000489374525           
       1.875991             0.00825825564            0.000476638884           
       1.878631             0.00953013593            0.000502222856           
       1.881272             0.00878465128            0.000478949255           
       1.883912             0.00865841387            0.000494852514           
       1.886553             0.00875818185            0.000492131116           
       1.889193             0.00777657214            0.000462940579           
       1.891833             0.00959602532            0.000534071803           
       1.894474             0.00829749544            0.000492298638           
       1.897114             0.00904032639            0.000497254304           
       1.899754              0.0090196278            0.000498762894           
       1.902395             0.00926661684            0.000495661688           
       1.905035              0.0084605158            0.000501635031           
       1.907676             0.00829492645             0.00046814288           
       1.910316             0.00871202765            0.000492507223           
       1.912956              0.0087671123             0.00048319237           
       1.915597              0.0100330096            0.000519789919           
       1.918237             0.00901977131            0.000508988552           
       1.920878             0.00893199884            0.000504432527           
       1.923518              0.0101004281            0.000536639795           
       1.926158             0.00844946713              0.0004844569           
       1.928799             0.00849579087            0.000480160015           
       1.931439             0.00853547272             0.00049390355           
       1.934079             0.00868579144            0.000519396324           
       1.936720             0.00893472043            0.000488083017           
       1.939360             0.00831183575            0.000502237743           
       1.942001             0.00893555203            0.000477285579           
       1.944641             0.00860533185             0.00047760943           
       1.947281             0.00887123131            0.000480462351           
       1.949922             0.00835844919            0.000481718577           
       1.952562               0.008833292            0.000510735522           
       1.955202             0.00862376926            0.000504026792           
       1.957843             0.00904538297             0.00050281407           
       1.960483             0.00869964876            0.000515547021           
       1.963124             0.00849577581            0.000499018384           
       1.965764             0.00893454976            0.000482587373           
       1.968404             0.00771526917            0.000444214027           
       1.971045             0.00826825587            0.000468849341           
       1.973685             0.00934230756            0.000522754786           
       1.976326             0.00799110989            0.000476830763           
       1.978966             0.00811364003            0.000484689107           
       1.981606             0.00795220787            0.000489850535           
       1.984247             0.00908835148             0.00052023262           
       1.986887             0.00757480885            0.000469253056           
       1.989527              0.0080530639            0.000478629422           
       1.992168             0.00875857652            0.000517915805           
       1.994808             0.00883501366            0.000517941098           
       1.997449             0.00750477751            0.000467556302           
       2.000089             0.00853501191            0.000496640135           
       2.002729              0.0080392097            0.000482288293           
       2.005370             0.00772999225            0.000467833562           
       2.008010             0.00894362581            0.000525183124           
       2.010650             0.00810883541            0.000503804217           
       2.013291             0.00903955956            0.000510359397           
       2.015931             0.00839532594            0.000488360329           
       2.018572             0.00890151812             0.00053786443           
       2.021212             0.00842087445            0.000513742606           
       2.023852             0.00767668044            0.000464250866           
       2.026493              0.0075244026            0.000480158275           
       2.029133             0.00740922462            0.000466880667           
       2.031774             0.00810554425            0.000512488173           
       2.034414             0.00843103036             0.00048093511           
       2.037054             0.00824142702             0.00048754882           
       2.039695             0.00793357798            0.000474743431           
       2.042335             0.00782047997            0.000489833429           
       2.044975             0.00751654586            0.000474396933           
       2.047616              0.0087862941            0.000511629324           
       2.050256             0.00816053827            0.000497740076           
       2.052897             0.00785841994            0.000497444218           
       2.055537             0.00758672167            0.000472376867           
       2.058177             0.00761402211            0.000463415875           
       2.060818             0.00788311323            0.000493968057           
       2.063458             0.00794700922            0.000516845763           
       2.066098              0.0074126213            0.000470880764           
       2.068739             0.00801896298            0.000497373779           
       2.071379             0.00850518696            0.000525589975           
       2.074020             0.00680572865            0.000459938702           
       2.076660             0.00783210381             0.00049739173           
       2.079300             0.00901883287            0.000546823696           
       2.081941             0.00739597314             0.00045340072           
       2.084581             0.00736814177            0.000477667599           
       2.087222             0.00779962686            0.000473961323           
       2.089862             0.00856676262            0.000541007249           
       2.092502             0.00796327489            0.000505620217           
       2.095143             0.00798322168            0.000522782013           
       2.097783             0.00815542757            0.000511570835           
       2.100423             0.00676205654            0.000448864248           
       2.103064             0.00685983486             0.00046911228           
       2.105704             0.00756790807            0.000490288128           
       2.108345             0.00809187494            0.000487069082           
       2.110985             0.00715112687            0.000489050718           
       2.113625              0.0071803615            0.000494325738           
       2.116266             0.00683076362            0.000488982156           
       2.118906             0.00768973482            0.000483508228           
       2.121546             0.00868390389            0.000504003429           
       2.124187             0.00724499765            0.000483233072           
       2.126827             0.00840783886             0.00052638065           
       2.129468             0.00725929341            0.000490357498           
       2.132108             0.00711853698            0.000472432635           
       2.134748             0.00857439917            0.000516485485           
       2.137389               0.007728419            0.000511551458           
       2.140029             0.00803845929            0.000467067971           
       2.142670             0.00765403951            0.000487083697           
       2.145310             0.00679129121            0.000446569582           
       2.147950             0.00805944673            0.000500721166           
       2.150591             0.00805708571            0.000495588239           
       2.153231             0.00769194933            0.000498437796           
       2.155871             0.00765058509            0.000480227591           
       2.158512             0.00790974603            0.000509499772           
       2.161152             0.00826459996             0.00050448247           
       2.163793             0.00753310816            0.000479471392           
       2.166433             0.00710906134            0.000478307974           
       2.169073             0.00782201518            0.000490549335           
       2.171714             0.00724441918            0.000468561279           
       2.174354             0.00740459159             0.00049498617           
       2.176995             0.00781425007            0.000506354765           
       2.179635             0.00726937112            0.000516080697           
       2.182275             0.00858613322            0.000529557344           
       2.184916             0.00711086069            0.000465472469           
       2.187556              0.0078196486            0.000483227569           
       2.190196             0.00769980727            0.000501081887           
       2.192837             0.00781308819            0.000502008153           
       2.195477             0.00759008894             0.00047172559           
       2.198118             0.00716353412            0.000470021419           
       2.200758             0.00770539136            0.000500118593           
       2.203398             0.00726708987            0.000488793477           
       2.206039              0.0068201885             0.00044815175           
       2.208679             0.00767451044            0.000486456118           
       2.211319              0.0072017725             0.00047395267           
       2.213960             0.00765749794            0.000495266444           
       2.216600             0.00764579121            0.000511950309           
       2.219241              0.0072734389            0.000477223269           
       2.221881             0.00694917768            0.000467423389           
       2.224521             0.00636765599            0.000452921528           
       2.227162             0.00702309915            0.000466137181           
       2.229802             0.00747518334            0.000495960355           
       2.232443             0.00706789292            0.000474653114           
       2.235083             0.00795188655            0.000518312448           
       2.237723             0.00681375673            0.000460426755           
       2.240364             0.00725595219            0.000486837416           
       2.243004             0.00723809131            0.000482356462           
       2.245644             0.00712993863            0.000483531084           
       2.248285             0.00692682181            0.000467046346           
       2.250925             0.00737484471            0.000484841288           
       2.253566             0.00650730544            0.000486891908           
       2.256206             0.00717465838            0.000501026658           
       2.258846             0.00719014119            0.000477128931           
       2.261487             0.00709550166            0.000497484349           
       2.264127             0.00757824986            0.000496537912           
       2.266767             0.00702981132            0.000490974717           
       2.269408             0.00737808876            0.000505049617           
       2.272048             0.00709861715            0.000492434939           
       2.274689             0.00790316524            0.000526438384           
       2.277329              0.0070026539            0.000466582449           
       2.279969              0.0079663677            0.000529723869           
       2.282610             0.00662877421            0.000469770687           
       2.285250             0.00704331077            0.000463480351           
       2.287891             0.00747432304            0.000511899592           
       2.290531             0.00752491589            0.000520533722           
       2.293171              0.0070803876            0.000491842254           
       2.295812             0.00742568382            0.000501667899           
       2.298452             0.00655944991            0.000493063812           
       2.301092             0.00771673378             0.00049688894           
       2.303733              0.0075414247            0.000511032432           
       2.306373             0.00657160327            0.000484555608           
       2.309014             0.00716932763            0.000496239508           
       2.311654             0.00655175627            0.000495043309           
       2.314294             0.00757990749             0.00049056786           
       2.316935             0.00778164713            0.000499106772           
       2.319575             0.00702068669            0.000496721376           
       2.322215             0.00664147039            0.000503492782           
       2.324856             0.00681564908            0.000468940224           
       2.327496             0.00742908695            0.000520586779           
       2.330137             0.00724502731            0.000491952775           
       2.332777             0.00766914955            0.000521891925           
       2.335417             0.00664937434            0.000471450433           
       2.338058             0.00610165474             0.00046510691           
       2.340698             0.00561596191            0.000442705288           
       2.343339             0.00711005709            0.000509087687           
       2.345979             0.00655663136            0.000462513147           
       2.348619             0.00687110646            0.000490782189           
       2.351260             0.00727304103            0.000501990812           
       2.353900             0.00735738321            0.000503293706           
       2.356540             0.00697092133            0.000489201717           
       2.359181             0.00650543349            0.000465960743           
       2.361821             0.00792443405            0.000496775857           
       2.364462             0.00713353422            0.000492956343           
       2.367102             0.00719082724            0.000508621774           
       2.369742             0.00754504313            0.000548386793           
       2.372383             0.00716355655            0.000483846655           
       2.375023             0.00829890615            0.000547452031           
       2.377663             0.00750363441             0.00049773258           
       2.380304             0.00651459682             0.00047150428           
       2.382944             0.00728037793            0.000474754821           
       2.385585             0.00708263485            0.000499410564           
       2.388225             0.00789061731            0.000524650691           
       2.390865             0.00612574228             0.00045751978           
       2.393506             0.00745939765            0.000495348262           
       2.396146             0.00703995448            0.000520316802           
       2.398787             0.00754892729            0.000496543679           
       2.401427             0.00699363964            0.000461314938           
       2.404067              0.0067437418             0.00046310247           
       2.406708             0.00729862501            0.000476000908           
       2.409348             0.00705245076             0.00049630433           
       2.411988             0.00650745548            0.000467101935           
       2.414629             0.00685215521            0.000494241161           
       2.417269             0.00652962835            0.000488102106           
       2.419910             0.00737885828            0.000520076975           
       2.422550             0.00724373757            0.000493000744           
       2.425190             0.00773707271             0.00053707903           
       2.427831             0.00695795977            0.000506457032           
       2.430471             0.00756694316            0.000503170225           
       2.433112             0.00742470892            0.000485341103           
       2.435752             0.00657809346            0.000483471839           
       2.438392             0.00757363433            0.000500717301           
       2.441033             0.00725569816            0.000519401906           
       2.443673              0.0074075158            0.000525211198           
       2.446313             0.00666628859            0.000498680613           
       2.448954             0.00703721192            0.000487844549           
       2.451594              0.0080750033             0.00056189524           
       2.454235             0.00781613096            0.000518681725           
       2.456875             0.00752023515            0.000532354851           
       2.459515             0.00725235597            0.000536320914           
       2.462156             0.00789267374            0.000528242468           
       2.464796              0.0071328315             0.00049569284           
       2.467436             0.00695870233            0.000506309013           
       2.470077             0.00734022922            0.000492869018           
       2.472717             0.00756197216            0.000502425246           
       2.475358             0.00801988981            0.000522809038           
       2.477998             0.00799988095             0.00051335364           
       2.480638             0.00745654471            0.000504420753           
       2.483279             0.00788823656            0.000542246344           
       2.485919             0.00716675798             0.00049810718           
       2.488560             0.00712030037            0.000495102826           
       2.491200             0.00763797913            0.000528033238           
       2.493840             0.00768675022            0.000560509311           
       2.496481             0.00663336166            0.000512171525           
       2.499121             0.00762606353            0.000534145688           
       2.501761             0.00749487305            0.000536547353           
       2.504402             0.00757407314            0.000531494579           
       2.507042             0.00705154051            0.000509034125           
       2.509683             0.00655390572            0.000483243704           
       2.512323             0.00584503538            0.000479293706           
       2.514963              0.0069321263            0.000515516406           
       2.517604             0.00784868934            0.000569193987           
       2.520244             0.00766010455            0.000527170629           
       2.522884             0.00816436779            0.000552029095           
       2.525525              0.0113452624            0.000658126718           
       2.528165             0.00751208593             0.00052718077           
       2.530806             0.00814914846            0.000558650307           
       2.533446             0.00780187634            0.000534950222           
       2.536086             0.00724132668            0.000510761685           
       2.538727              0.0077033623            0.000505388756           
       2.541367             0.00722322497            0.000494206051           
       2.544008             0.00684924381             0.00049700583           
       2.546648             0.00664239096            0.000497838567           
       2.549288             0.00741839563            0.000536835813           
       2.551929             0.00740474195            0.000527792189           
       2.554569              0.0066031068            0.000480171242           
       2.557209             0.00703447984            0.000500159175           
       2.559850             0.00664456956            0.000487661026           
       2.562490             0.00715382441            0.000522982075           
       2.565131             0.00797456652            0.000572512611           
       2.567771              0.0072978596             0.00052804865           
       2.570411             0.00733187335            0.000523551065           
       2.573052             0.00781657382            0.000547387617           
       2.575692             0.00631899526            0.000489184742           
       2.578332             0.00698670657            0.000516508361           
       2.580973             0.00671277922             0.00050146466           
       2.583613             0.00652894683            0.000482774867           
       2.586254             0.00705145036            0.000501023767           
       2.588894              0.0077959609            0.000547066936           
       2.591534             0.00642322197            0.000514045057           
       2.594175             0.00729207939            0.000537374099           
       2.596815             0.00765680888             0.00055389587           
       2.599456             0.00659371481            0.000487430754           
       2.602096             0.00760199084            0.000527356284           
       2.604736             0.00643121949            0.000496552296           
       2.607377             0.00726471476            0.000513841318           
       2.610017             0.00698267194            0.000494952219           
       2.612657             0.00607278051              0.0004909591           
       2.615298             0.00658008155            0.000498949899           
       2.617938             0.00714859818            0.000556329106           
       2.620579              0.0068081651            0.000521198349           
       2.623219             0.00752718657            0.000547248796           
       2.625859              0.0074400863            0.000528991913           
       2.628500             0.00782744743            0.000539031478           
       2.631140             0.00726939205            0.000527465187           
       2.633780             0.00610848263            0.000483096312           
       2.636421             0.00705991523            0.000532129967           
       2.639061             0.00742728139            0.000513807234           
       2.641702             0.00747184995            0.000527277108           
       2.644342             0.00720899156            0.000520126151           
       2.646982             0.00736280189            0.000517787266           
       2.649623             0.00667730013            0.000516743354           
       2.652263             0.00802726016            0.000560890362           
       2.654904             0.00739447121            0.000538870693           
       2.657544             0.00699325288            0.000493598349           
       2.660184             0.00683346117            0.000516368371           
       2.662825             0.00611718297             0.00049989117           
       2.665465             0.00737772504             0.00053095951           
       2.668105             0.00687879522            0.000540396799           
       2.670746             0.00712217999            0.000507966156           
       2.673386              0.0087056853            0.000578777405           
       2.676027             0.00945793887            0.000593583311           
       2.678667             0.00895591931            0.000563607915           
       2.681307              0.0103728708            0.000595976561           
       2.683948              0.0149304263            0.000734645868           
       2.686588              0.0120719988            0.000649634343           
       2.689229             0.00995774668            0.000576534101           
       2.691869             0.00926247145             0.00058768152           
       2.694509             0.00818050742             0.00055259543           
       2.697150             0.00719309078            0.000509766345           
       2.699790             0.00785352179            0.000558411743           
       2.702430             0.00794780928            0.000536969124           
       2.705071             0.00719572765            0.000527951614           
       2.707711             0.00624523913            0.000477375771           
       2.710352             0.00659141586            0.000518198487           
       2.712992             0.00718444276            0.000551010797           
       2.715632             0.00687661178            0.000500156522           
       2.718273             0.00617725331            0.000491280244           
       2.720913             0.00644099943            0.000500231176           
       2.723553             0.00661837417            0.000510474385           
       2.726194             0.00762075225            0.000572598853           
       2.728834             0.00870070083            0.000612114095           
       2.731475             0.00725181708            0.000515749866           
       2.734115             0.00697398796            0.000521470673           
       2.736755             0.00837345704             0.00057610501           
       2.739396             0.00763218465            0.000546827233           
       2.742036             0.00716620893            0.000554544005           
       2.744677             0.00716239244            0.000537917257           
       2.747317              0.0066489367            0.000514581996           
       2.749957             0.00673837525            0.000521666855           
       2.752598             0.00799925404            0.000574550497           
       2.755238             0.00786485078            0.000579987688           
       2.757878             0.00782264828             0.00057337215           
       2.760519             0.00772813175            0.000563855004           
       2.763159             0.00869432252            0.000592087937           
       2.765800             0.00798512444            0.000540748067           
       2.768440             0.00876515197            0.000570717945           
       2.771080             0.00967370218            0.000604572257           
       2.773721             0.00679801291            0.000519880996           
       2.776361              0.0072356048            0.000543752088           
       2.779001             0.00791475414            0.000588945122           
       2.781642             0.00738263088            0.000564610959           
       2.784282             0.00681032555            0.000551202393           
       2.786923             0.00748876884            0.000583095252           
       2.789563             0.00744188719            0.000559828607           
       2.792203             0.00628982052            0.000491661142           
       2.794844             0.00612476166            0.000531735232           
       2.797484             0.00705766634            0.000538692759           
       2.800125             0.00662831885            0.000548935977           
       2.802765             0.00710205154            0.000558438771           
       2.805405             0.00666929667            0.000542989095           
       2.808046              0.0071703043            0.000572912426           
       2.810686             0.00676443776            0.000511323618           
       2.813326             0.00621298403            0.000509014661           
       2.815967             0.00642857832            0.000532492625           
       2.818607             0.00625724566            0.000501326758           
       2.821248             0.00657658369            0.000503289867           
       2.823888             0.00733951204            0.000551898944           
       2.826528             0.00621668229            0.000491906741           
       2.829169             0.00609669519            0.000510248188           
       2.831809             0.00750405826            0.000573785889           
       2.834449             0.00665764438            0.000543873676           
       2.837090             0.00667362128            0.000525925634           
       2.839730             0.00635481304            0.000510704095           
       2.842371             0.00711628157            0.000541216284           
       2.845011             0.00773518651            0.000568758265           
       2.847651             0.00621961225            0.000510630831           
       2.850292             0.00610932295            0.000511049968           
       2.852932             0.00700627516            0.000559208143           
       2.855573              0.0068410072            0.000536011706           
       2.858213             0.00657676166            0.000551899195           
       2.860853             0.00611981947             0.00049523717           
       2.863494             0.00661122945            0.000532937923           
       2.866134             0.00634108484            0.000542487824           
       2.868774             0.00689973889            0.000556144297           
       2.871415              0.0065617402            0.000550799199           
       2.874055             0.00670386049            0.000532166667           
       2.876696             0.00611075238            0.000521823364           
       2.879336             0.00727569078            0.000548786858           
       2.881976             0.00727169849            0.000565880493           
       2.884617             0.00781956858             0.00057819271           
       2.887257             0.00699254218            0.000549584701           
       2.889897             0.00642446125            0.000515945674           
       2.892538             0.00700545897            0.000590225193           
       2.895178             0.00621273258            0.000502153972           
       2.897819             0.00628071836            0.000515040155           
       2.900459             0.00754901033             0.00055366846           
       2.903099              0.0074705187            0.000545144643           
       2.905740             0.00623615276            0.000510961303           
       2.908380             0.00693270041            0.000544863384           
       2.911021             0.00663797811            0.000541824272           
       2.913661             0.00768951724            0.000582988455           
       2.916301              0.0071325706             0.00056201437           
       2.918942             0.00692771726            0.000529804445           
       2.921582             0.00700467977            0.000557398694           
       2.924222             0.00824664856            0.000585933215           
       2.926863             0.00699993607            0.000562294471           
       2.929503             0.00664496578             0.00055434251           
       2.932144             0.00762504402            0.000570028478           
       2.934784             0.00701539629            0.000537800578           
       2.937424             0.00697684386            0.000541827128           
       2.940065             0.00728562646            0.000528165533           
       2.942705             0.00661266381            0.000502550403           
       2.945346             0.00770598647             0.00057573746           
       2.947986             0.00581346814            0.000509895073           
       2.950626             0.00731014987            0.000568557202           
       2.953267             0.00739819758             0.00056272945           
       2.955907             0.00658053038            0.000550551188           
       2.958547             0.00792258767            0.000570290816           
       2.961188              0.0067939005            0.000550963711           
       2.963828             0.00799601247            0.000584683815           
       2.966469             0.00773973415            0.000564306219           
       2.969109             0.00855961746            0.000602235739           
       2.971749             0.00795781326            0.000577056656           
       2.974390             0.00797104247            0.000567534917           
       2.977030             0.00658948316            0.000527545043           
       2.979670             0.00877956249            0.000592305676           
       2.982311             0.00844973256            0.000602253264           
       2.984951             0.00708157403            0.000524376563           
       2.987592             0.00674715305            0.000522097058           
       2.990232             0.00716914996             0.00055969785           
       2.992872             0.00731627862            0.000532586031           
       2.995513             0.00809432849            0.000548049847           
       2.998153             0.00900446192            0.000587752672           
       3.000794              0.0122538916            0.000664122869           
       3.003434              0.0127076395            0.000677328107           
       3.006074              0.0581109481             0.00142812274           
       3.008715                0.13260677             0.00208251345           
       3.011355               0.150838321             0.00214182189           
       3.013995              0.0735919473             0.00150010845           
       3.016636              0.0542594331             0.00126134218           
       3.019276               0.123035934             0.00186704939           
       3.021917               0.507960822             0.00364775885           
       3.024557                1.87673463             0.00689354194           
       3.027197                1.07149541             0.00507828786           
       3.029838                0.49460218             0.00349918714           
       3.032478               0.260965263             0.00254432078           
       3.035118              0.0764870668              0.0013959257           
       3.037759               0.108718973             0.00166211196           
       3.040399               0.164468803             0.00210876957           
       3.043040               0.587597549             0.00403476544           
       3.045680               0.371422911              0.0030181221           
       3.048320              0.0712277567             0.00135043679           
       3.050961               0.111551103             0.00171977763           
       3.053601              0.0799891199             0.00140259336           
       3.056242              0.0529880091             0.00121373864           
       3.058882              0.0518827257             0.00128833051           
       3.061522              0.0380733708             0.00108280024           
       3.064163              0.0451035892             0.00116369642           
       3.066803               0.103035848             0.00185168826           
       3.069443               0.108373215             0.00198688491           
       3.072084               0.050226364             0.00131709631           
       3.074724              0.0397468595             0.00130848109           
       3.077365              0.0876653588              0.0020116093           
       3.080005              0.0179532487            0.000915493211           
       3.082645              0.0118842395            0.000782483198           
       3.085286              0.0129686362            0.000823852501           
       3.087926             0.00999418543            0.000717655256           
       3.090566              0.0108725793            0.000733413662           
       3.093207              0.0108187866            0.000761302501           
       3.095847             0.00817230065            0.000634198655           
       3.098488              0.0079188511             0.00069222735           
       3.101128              0.0101144109             0.00078735756           
       3.103768             0.00959862871            0.000752588966           
       3.106409             0.00860802137            0.000758501294           
       3.109049             0.00897920873            0.000743424338           
       3.111690              0.0083182455            0.000703255925           
       3.114330             0.00711275903            0.000664138345           
       3.116970              0.0081818975            0.000717774338           
       3.119611              0.0158772066             0.00106430649           
       3.122251              0.0220624074             0.00131235623           
       3.124891              0.0336663248             0.00163625033           
       3.127532               0.023451031             0.00133598308           
       3.130172              0.0125657188            0.000994841524           
       3.132813             0.00936234377            0.000845382072           
       3.135453             0.00800223207            0.000775129258           
       3.138093              0.0051772323            0.000675554642           
       3.140734             0.00622477785            0.000683401932           
       3.143374             0.00747265904            0.000791863257           
       3.146014             0.00631594759            0.000783726078           
       3.148655             0.00721757738            0.000778813408           
       3.151295             0.00591318795            0.000751217504           
       3.153936             0.00729310813            0.000805888117           
       3.156576             0.00606358557            0.000724828643           
       3.159216             0.00681570209            0.000772311907           
       3.161857             0.00571929654            0.000704591904           
       3.164497              0.0082424691            0.000888748003           
       3.167138             0.00857247091            0.000936495944           
       3.169778              0.0085075006            0.000917554943           
       3.172418             0.00591035015            0.000757002985           
       3.175059             0.00669631094             0.00071434543           
       3.177699             0.00442511156            0.000614927234           
       3.180339              0.0049903915            0.000699664228           
       3.182980             0.00690897885            0.000851152052           
       3.185620               0.005645925             0.00078359653           
       3.188261             0.00708954585            0.000893749818           
       3.190901             0.00667676139            0.000797701644           
       3.193541             0.00429676403            0.000672405659           
       3.196182             0.00629039882            0.000847865965           
       3.198822             0.00592345492             0.00082304048           
       3.201463             0.00516336408             0.00075518358           
       3.204103             0.00699744747            0.000873787077           
       3.206743             0.00654622103             0.00084506548           
       3.209384             0.00597167401            0.000872034216           
       3.212024             0.00474751885            0.000724904614           
       3.214664             0.00458017598            0.000809661485           
       3.217305              0.0055513251            0.000847314048           
       3.219945             0.00642850462            0.000938480718           
       3.222586             0.00558513582            0.000833191158           
       3.225226             0.00736085484              0.0010611047           
       3.227866             0.00623780075            0.000892794044           
       3.230507             0.00534454387            0.000856654934           
       3.233147             0.00713322086            0.000997668397           
       3.235787              0.0058292944            0.000922967055           
       3.238428             0.00748338748             0.00112849515           
       3.241068              0.0059336563            0.000939607479           
       3.243709             0.00571708534            0.000952883322           
       3.246349              0.0059473677            0.000885963597           
       3.248989             0.00773647214             0.00119314429           
       3.251630             0.00425749163             0.00085233902           
       3.254270             0.00448381135            0.000781744631           
       3.256911              0.0047037385            0.000873638471           
       3.259551             0.00526823519            0.000995388814           
       3.262191             0.00664008757             0.00114146925           
       3.264832             0.00513613738              0.0010489376           
       3.267472             0.00621007381             0.00108201265           
       3.270112              0.0059617509             0.00117161043           
       3.272753             0.00539160982             0.00101983598           
       3.275393             0.00544278878             0.00104551512           
       3.278034              0.0060246719             0.00110060306           
       3.280674             0.00283035996            0.000818597029           
       3.283314             0.00530467644             0.00100227845           
       3.285955             0.00342916397            0.000831458073           
       3.288595             0.00748610472             0.00136674915           
       3.291235             0.00368531697            0.000985797676           
       3.293876             0.00563884026             0.00123692003           
       3.296516               0.010032196             0.00158389399           
       3.299157             0.00632139765             0.00124148968           
       3.301797              0.0063553937             0.00141995129           
       3.304437             0.00450095634             0.00103529352           
       3.307078             0.00430211602             0.00111496425           
       3.309718             0.00554520043             0.00130657339           
       3.312359             0.00493354813             0.00123270178           
       3.314999             0.00508040422             0.00123162727           
       3.317639             0.00410185421             0.00105839907           
       3.320280             0.00556278646             0.00131045799           
       3.322920             0.00254819069            0.000901865213           
       3.325560             0.00699283109             0.00149502048           
       3.328201             0.00492187877             0.00112960842           
       3.330841             0.00655784871             0.00158692371           
       3.333482             0.00683039418             0.00153086022           
       3.336122             0.00408982794             0.00118512664           
       3.338762             0.00458147082             0.00144895508           
       3.341403             0.00585598314             0.00156531319           
       3.344043             0.00500090411              0.0013887822           
       3.346683             0.00317522163             0.00112976461           
       3.349324             0.00766025957             0.00197295013           
       3.351964             0.00450981209             0.00160080578           
       3.354605             0.00521365754             0.00196845225           
       3.357245             0.00178050176             0.00103772575           
       3.359885             0.00426413064             0.00128532281           
       3.362526             0.00241531014             0.00120971106           
       3.365166             0.00596502609             0.00179309047           
       3.367807             0.00796640447             0.00265196757           
       3.370447             0.00608283792              0.0019222673           
       3.373087             0.00691567789             0.00219182205           
       3.375728             0.00175417907             0.00124584526           
       3.378368             0.00593671716               0.003401498           
       3.381008             0.00543291115             0.00242600381           
       3.383649             0.00485769311             0.00184024088           
       3.386289             0.00489097978             0.00218543609           
       3.388930             0.00485605108             0.00344449149           
       3.391570             0.00614149682             0.00274020526           
       3.394210             0.00590153127             0.00339936896           
       3.396851             0.00730010377             0.00422916142           
       3.399491             0.00243196115              0.0024416879           
       3.402131           -2.62151933e-05                         0           
       3.404772             0.00957957702              0.0096984263           
       3.407412                       nan                       nan           
       3.410053           -2.62924454e-05                         0           
       3.412693                       nan                       nan           
       3.415333           -2.63426897e-05                         0           
