################################################################################
# EDF_DataBlockID                     0.Image.Psd
# EDF_BinarySize                      4366944
# EDF_HeaderSize                      2560
# ByteOrder                           LowByteFirst
# DataType                            FloatValue
# Dim_1                               1028
# Dim_2                               1062
# Image                               0
# HeaderID                            EH:000000:000000:000000
# Size                                4366944
# Center_1                            607.5200
# Center_2                            651.5500
# Comment                             Xenocs_Cell_Window - 20251028_20perc_iodine_1.23mg
# DDummy                              0.6
# Date                                2025-11-01T07:28:40
# Delta                               0
# Dummy                               -1.5
# ExposureTime                        360
# Gamma                               0
# Intensity1                          8.60302e-10
# PSize_1                             7.5e-05
# PSize_2                             7.5e-05
# Pressure                            0.0327291
# SampleDistance                      0.450002
# SampleEnvKind                       large
# SampleEnvPN                         ElectroChemical cell
# SampleEnvSN                         1141
# Thickness                           0
# Wavelength                          1.541891e-10
# Wavelength                          1.54189e-10
# aux                                 0
# aux_dial                            0.002375
# beamx                               588.434
# beamx_dial                          588.434
# beamz                               657.808
# beamz_dial                          657.808
# det0x                               0
# det0x_dial                          6.36945
# det0xvd                             0
# det0xvd_dial                        0
# det0y                               450.002
# det0y_dial                          481.635
# det0z                               0
# det0z_dial                          1.23302
# det0zvd                             0
# det0zvd_dial                        0
# mag                                 1.818
# mag_dial                            1.818
# om                                  0.2499
# om_dial                             -0.610199
# phi                                 -0.0120535
# phi_dial                            0
# ry                                  0.599993
# ry_dial                             0.599993
# s1bot                               0.8
# s1bot_dial                          -1.66094
# s1hl                                0.8
# s1hl_dial                           -0.608437
# s1hr                                0.8
# s1hr_dial                           0.970938
# s1top                               0.8
# s1top_dial                          -0.461562
# s2bot                               0.45
# s2bot_dial                          1.36109
# s2hl                                0.45
# s2hl_dial                           -0.83375
# s2hr                                0.45
# s2hr_dial                           -0.118594
# s2top                               0.45
# s2top_dial                          1.44734
# w2theta                             32
# w2theta_dial                        32
# waxsch                              19.2605
# waxsch_dial                         -32.7355
# waxsh                               137.085
# waxsh_dial                          -43.5338
# waxsth                              26.0607
# waxsth_dial                         -19.4086
# waxsz                               67.0407
# waxsz_dial                          -23.7954
# wind                                65.9854
# wind_dial                           66.0041
# wpsi                                124
# wpsi_dial                           124
# wstod                               115
# wstod_dial                          115
# x                                   0
# x_dial                              1.00969
# z                                   0
# z_dial                              13.3172
# CountCutoff                         15302352
# DetectorModel                       Dectris EIGER2 Si 1M, S/N E-02-0362
# ThresholdSetting                    4023.88989258
# Saturation                          0
# FlatField                           Corrected
# BackgroundReductionExtra            0.02
# BackgroundCorrectionConstant        0.0026712
# Detector                            0
# Monitor                             0
# Pil_Roi0                            0
# SumForIntensity1                    3.09709e+08
# TransmittedFlux                     860302
# det                                 0
# mon                                 0
# pilai0                              3.09709e+08
# pilai1                              786625
# pilct0                              5.35363e+08
# pilct1                              786625
# pilroi0                             0
# pilroi1                             0
# sec                                 1
# title                               20251028_20perc_iodine_1.23mg_0_00810.edf
# usaxs0                              0
# Operation                           Azimuthal average I(q)
# Error_model                         ErrorModel.poisson
# Geometrical_correction              True
# Transmission_correction             True
# Thickness_correction                False
# Binning mode                        Uniform
# Binning factor                      1.0
# Psi                                 0.0
# Omega                               0.2499
# MaskInvalidPixels                   True
# DetectorEdge                        3
# MaskFiles                           ['20251028_20perc_iodine_1.23mg_0_00012_mask.edf']
################################################################################
    q(A⁻¹)                Intensity(a.u.)            Sigma_I(a.u.)            
       0.000340                372148.961                120.080987           
       0.001019                359622.051                72.2860755           
       0.001698                350005.636                50.4259451           
       0.002377                 330902.47                43.8542387           
       0.003056                307866.074                35.7502055           
       0.003735                253427.406                28.6056796           
       0.004415                204641.417                25.7052807           
       0.005094                152495.392                19.2169606           
       0.005773                 100479.85                14.4418417           
       0.006452                58370.9443                10.5465573           
       0.007131                32198.3697                7.58818163           
       0.007810                16227.2796                5.34599485           
       0.008490                8186.88173                3.36587108           
       0.009169                3992.65336                2.32305602           
       0.009848                1230.23007                1.24674495           
       0.010527                 476.18706               0.775663767           
       0.011206                118.787675               0.369746364           
       0.011885                55.1857419               0.234153002           
       0.012564                 25.319011               0.162832626           
       0.013244                16.9541133               0.124570604           
       0.013923                12.3620835               0.108087016           
       0.014602                9.30245893              0.0869583915           
       0.015281                 7.4365205              0.0791455281           
       0.015960                6.05405971              0.0708991077           
       0.016639                4.81255985              0.0596925473           
       0.017319                4.06112328              0.0539818674           
       0.017998                3.34733371              0.0468862702           
       0.018677                2.86949759              0.0449618593           
       0.019356                2.48490665                0.04134238           
       0.020035                2.07479408              0.0354422425           
       0.020714                1.85728877               0.033887977           
       0.021394                1.64455842              0.0301717453           
       0.022073                1.37590704              0.0287130738           
       0.022752                1.27409952              0.0264314107           
       0.023431                1.12906762              0.0241521578           
       0.024110               0.998646508              0.0236814649           
       0.024789                0.85670958              0.0203704058           
       0.025469               0.801757877              0.0203075044           
       0.026148               0.701541611              0.0178482891           
       0.026827               0.662845939              0.0176267009           
       0.027506               0.571591158              0.0166044889           
       0.028185               0.554505233              0.0155963114           
       0.028864               0.491062341              0.0145946504           
       0.029544                0.48119766              0.0140098311           
       0.030223               0.414176658              0.0131840034           
       0.030902               0.390269602              0.0129149607           
       0.031581               0.367352449              0.0119111645           
       0.032260               0.361349801               0.012014737           
       0.032939               0.332374532              0.0111106489           
       0.033619               0.278241463              0.0103150833           
       0.034298               0.277744491              0.0100292793           
       0.034977               0.263862602             0.00958332324           
       0.035656               0.232425711             0.00923238366           
       0.036335               0.210043914               0.008512212           
       0.037014               0.197718145             0.00828331469           
       0.037693               0.193195941             0.00787678555           
       0.038373               0.181786653             0.00771564347           
       0.039052                0.17411431             0.00758319558           
       0.039731               0.166142428             0.00723493249           
       0.040410               0.164895565              0.0071594086           
       0.041089               0.140021818             0.00649402208           
       0.041768               0.129574364             0.00627969455           
       0.042448                0.13847086             0.00644132344           
       0.043127                0.12600563             0.00599943958           
       0.043806               0.130446253             0.00614975333           
       0.044485                0.12649386             0.00593146318           
       0.045164               0.112174367             0.00569574087           
       0.045843               0.108900235             0.00538259053           
       0.046523               0.101469283             0.00521364345           
       0.047202              0.0980723897             0.00516144896           
       0.047881               0.101317618             0.00514498221           
       0.048560               0.101115922              0.0051867071           
       0.049239               0.094358196             0.00481088115           
       0.049918               0.094149708             0.00489950699           
       0.050598              0.0855277888             0.00459971951           
       0.051277              0.0874765058             0.00463706465           
       0.051956              0.0868489196             0.00459138631           
       0.052635              0.0774170313              0.0042429122           
       0.053314              0.0822586434              0.0045014451           
       0.053993              0.0773552014             0.00424549254           
       0.054673               0.075054039             0.00408871503           
       0.055352              0.0719432524             0.00406188475           
       0.056031              0.0739340841             0.00403118328           
       0.056710               0.066090114             0.00390474342           
       0.057389              0.0806189436             0.00415872249           
       0.058068              0.0667140825             0.00382211794           
       0.058748              0.0617425143             0.00372281464           
       0.059427              0.0708925637             0.00392160317           
       0.060106              0.0708280628             0.00395691842           
       0.060785              0.0690289621              0.0037892973           
       0.061464              0.0597065384              0.0036090915           
       0.062143              0.0593850945             0.00356280011           
       0.062822              0.0503872824             0.00324329695           
       0.063502              0.0541172801             0.00335519383           
       0.064181              0.0492856136             0.00316810291           
       0.064860               0.052437993             0.00331762359           
       0.065539              0.0550106468              0.0033648044           
       0.066218              0.0584749223             0.00339485516           
       0.066897              0.0538440709             0.00328280508           
       0.067577              0.0505855812             0.00321249137           
       0.068256               0.048845204             0.00323428944           
       0.068935              0.0441592525             0.00302551342           
       0.069614              0.0480024928             0.00318582607           
       0.070293               0.045217144             0.00312052778           
       0.070972              0.0449193481             0.00308746236           
       0.071652              0.0403341939             0.00293101136           
       0.072331              0.0395380898             0.00285022206           
       0.073010              0.0374684949             0.00283802037           
       0.073689              0.0404489363             0.00293253259           
       0.074368              0.0339496751             0.00268173923           
       0.075047              0.0429755955             0.00298480819           
       0.075727              0.0371226546             0.00275698423           
       0.076406              0.0405292357             0.00293818304           
       0.077085              0.0390145087             0.00282888007           
       0.077764              0.0413365005             0.00290164225           
       0.078443              0.0418916802             0.00293914827           
       0.079122              0.0376553312               0.002759806           
       0.079802              0.0361833247             0.00273401804           
       0.080481              0.0387953764             0.00273548802           
       0.081160              0.0314414729             0.00251314656           
       0.081839              0.0324861525             0.00251365909           
       0.082518              0.0325304124             0.00251748927           
       0.083197              0.0349224015             0.00256787519           
       0.083876              0.0354538662             0.00254434827           
       0.084556              0.0334062271             0.00253846853           
       0.085235               0.031142615             0.00240360304           
       0.085914              0.0309072504             0.00241776381           
       0.086593              0.0345759307              0.0025407764           
       0.087272              0.0297731298             0.00232439046           
       0.087951              0.0332257939             0.00251093591           
       0.088631              0.0299007025             0.00230085134           
       0.089310              0.0308592384             0.00238701566           
       0.089989              0.0295734115              0.0023094374           
       0.090668              0.0315431355             0.00241143455           
       0.091347              0.0304325841             0.00238186547           
       0.092026              0.0308441118             0.00229201975           
       0.092706              0.0295099146             0.00232327434           
       0.093385              0.0269079646             0.00218441951           
       0.094064              0.0287000586             0.00228224568           
       0.094743              0.0244986585             0.00207645701           
       0.095422              0.0266552165             0.00214177004           
       0.096101               0.024229142             0.00208403165           
       0.096781              0.0289145514              0.0022440379           
       0.097460              0.0290495259             0.00218791247           
       0.098139              0.0271528791             0.00209900632           
       0.098818               0.029650317             0.00216640175           
       0.099497              0.0288935356             0.00214296674           
       0.100176                0.02838129             0.00206814367           
       0.100856              0.0252411443             0.00194912986           
       0.101535              0.0314981174             0.00217315221           
       0.102214               0.023605399             0.00188129201           
       0.102893                 0.0265914             0.00197398783           
       0.103572              0.0261111352             0.00192718366           
       0.104251              0.0207109432              0.0017227077           
       0.104931              0.0267248529             0.00193908735           
       0.105610              0.0255483871             0.00190401373           
       0.106289              0.0249958368             0.00185197022           
       0.106968              0.0248875996             0.00185344048           
       0.107647              0.0255921998             0.00188062206           
       0.108326              0.0219508122             0.00171839843           
       0.109005              0.0237248941              0.0017752504           
       0.109685              0.0224987931             0.00170937792           
       0.110364              0.0243608712             0.00179891141           
       0.111043              0.0232290275             0.00174965938           
       0.111722              0.0228147135              0.0017127916           
       0.112401               0.022399846             0.00170186676           
       0.113080              0.0260425888             0.00181400962           
       0.113760              0.0244447665             0.00178683493           
       0.114439               0.023499144             0.00172692993           
       0.115118              0.0195249215             0.00156227056           
       0.115797               0.022688204             0.00169967734           
       0.116476              0.0227801975             0.00167762893           
       0.117155              0.0238654838             0.00173097577           
       0.117835              0.0227973351             0.00165816319           
       0.118514               0.022614596             0.00167244426           
       0.119193               0.022621338              0.0016727056           
       0.119872              0.0194343137             0.00153101443           
       0.120551              0.0225188883             0.00163706379           
       0.121230              0.0194609574             0.00150654341           
       0.121910              0.0198851046             0.00153759045           
       0.122589              0.0175276724             0.00144506089           
       0.123268              0.0230130668             0.00162373431           
       0.123947              0.0203180153             0.00153556448           
       0.124626              0.0227523021             0.00160508232           
       0.125305               0.022857805             0.00161669427           
       0.125985              0.0195882483             0.00148499639           
       0.126664              0.0188695274             0.00144361524           
       0.127343              0.0224980507             0.00159458794           
       0.128022              0.0231324672              0.0016045126           
       0.128701              0.0199193105              0.0014811569           
       0.129380               0.020987072             0.00150129541           
       0.130059              0.0256351369             0.00166308891           
       0.130739              0.0217241708             0.00154174533           
       0.131418              0.0192327226             0.00144658448           
       0.132097              0.0212913273              0.0015025157           
       0.132776              0.0214002389               0.001499553           
       0.133455              0.0195381442             0.00144396021           
       0.134134              0.0198068422             0.00144922542           
       0.134814               0.019203412             0.00141227562           
       0.135493              0.0192371683             0.00141923677           
       0.136172              0.0192651858             0.00140954816           
       0.136851              0.0216766575             0.00150386196           
       0.137530                0.01953446             0.00139370178           
       0.138209              0.0198063563             0.00141984386           
       0.138889              0.0204136972             0.00144780243           
       0.139568              0.0196581423             0.00142014263           
       0.140247              0.0191164936             0.00139860583           
       0.140926              0.0183019144              0.0013293543           
       0.141605              0.0195864395             0.00141015217           
       0.142284              0.0184205626              0.0013448778           
       0.142964              0.0184778448             0.00135211912           
       0.143643              0.0183139782              0.0013444098           
       0.144322              0.0186810377             0.00132940298           
       0.145001              0.0191803245             0.00137470104           
       0.145680              0.0194901282             0.00135297384           
       0.146359              0.0181145173             0.00130912517           
       0.147039              0.0162943592             0.00125183558           
       0.147718              0.0208460693             0.00139256205           
       0.148397              0.0196004872             0.00137130056           
       0.149076              0.0183086615             0.00128422636           
       0.149755               0.021581691             0.00141582816           
       0.150434              0.0182631264             0.00130296453           
       0.151114              0.0183506018             0.00129885717           
       0.151793              0.0186976952             0.00131109542           
       0.152472              0.0186441871             0.00128609188           
       0.153151              0.0183167053             0.00128707093           
       0.153830              0.0169590893             0.00122943139           
       0.154509              0.0174379351              0.0012414658           
       0.155188              0.0179620477             0.00125951866           
       0.155868               0.018493811             0.00126893203           
       0.156547              0.0172988291             0.00123513461           
       0.157226              0.0188234562             0.00125694563           
       0.157905              0.0149625482             0.00113006193           
       0.158584              0.0179631626             0.00123595071           
       0.159263              0.0169843062             0.00120622602           
       0.159943              0.0173505716             0.00122007201           
       0.160622              0.0165859963             0.00116986611           
       0.161301              0.0180604067             0.00123708472           
       0.161980              0.0155562015             0.00112860166           
       0.162659              0.0181525832             0.00123266563           
       0.163338              0.0168825539             0.00117907351           
       0.164018              0.0174453822             0.00119227552           
       0.164697              0.0183222694             0.00123756211           
       0.165376              0.0176566432             0.00118833106           
       0.166055              0.0182357188             0.00121562494           
       0.166734              0.0179217866             0.00119971752           
       0.167413              0.0199957262             0.00126812161           
       0.168093              0.0170348933             0.00118154657           
       0.168772              0.0179715641             0.00117810433           
       0.169451              0.0164969196             0.00114950249           
       0.170130              0.0190868818             0.00122021599           
       0.170809               0.017809582             0.00119274681           
       0.171488              0.0167695176              0.0011468443           
       0.172168              0.0163109591             0.00112018977           
       0.172847               0.016583973             0.00114436318           
       0.173526               0.013725285             0.00102121077           
       0.174205              0.0157176918             0.00109785414           
       0.174884              0.0159904063             0.00110156692           
       0.175563              0.0184303667             0.00118767729           
       0.176243              0.0183405617             0.00119663709           
       0.176922              0.0152467193             0.00106261655           
       0.177601              0.0164877704             0.00111716187           
       0.178280              0.0163997666             0.00110173925           
       0.178959              0.0163120173              0.0011076257           
       0.179638              0.0185804969             0.00117873292           
       0.180317              0.0167640959              0.0011114794           
       0.180997              0.0172534419             0.00113370511           
       0.181676              0.0175389801             0.00113084263           
       0.182355              0.0177466562             0.00114434983           
       0.183034              0.0156825544             0.00105847918           
       0.183713              0.0161584637             0.00108750445           
       0.184392              0.0165783345             0.00110120979           
       0.185072              0.0164725748             0.00108518167           
       0.185751              0.0154918748             0.00105531038           
       0.186430              0.0161293392             0.00106926162           
       0.187109              0.0173936417             0.00112274429           
       0.187788              0.0169740597              0.0011063854           
       0.188467              0.0146743973             0.00101653788           
       0.189147               0.014908752             0.00103499921           
       0.189826               0.016736358             0.00107721202           
       0.190505               0.015646267             0.00105868548           
       0.191184              0.0171209636             0.00109149304           
       0.191863              0.0167036988             0.00108038154           
       0.192542              0.0169110521             0.00109731787           
       0.193222              0.0156613025             0.00103232811           
       0.193901              0.0180510141             0.00112314816           
       0.194580              0.0166944028             0.00106122524           
       0.195259              0.0159671605             0.00104977286           
       0.195938              0.0150116037             0.00102030632           
       0.196617              0.0164677554             0.00105373008           
       0.197297               0.016419727             0.00105648858           
       0.197976              0.0151054517            0.000997759792           
       0.198655              0.0153021316              0.0010152035           
       0.199334              0.0162968923             0.00103844294           
       0.200013               0.016995184             0.00105986928           
       0.200692              0.0161286026             0.00103870492           
       0.201371              0.0160095796             0.00102321037           
       0.202051              0.0156110876             0.00101353791           
       0.202730               0.017536274             0.00106348799           
       0.203409              0.0158023597             0.00101632007           
       0.204088              0.0176203876             0.00107200454           
       0.204767              0.0138750244            0.000946274557           
       0.205446              0.0153643694            0.000997712652           
       0.206126              0.0148830763            0.000968620439           
       0.206805              0.0169374737             0.00105225546           
       0.207484               0.016263785             0.00101257942           
       0.208163              0.0155101112            0.000994781368           
       0.208842              0.0159268422              0.0010053252           
       0.209521              0.0149845624            0.000967028815           
       0.210201              0.0146817213            0.000967888692           
       0.210880              0.0143830331            0.000939193902           
       0.211559              0.0157390766            0.000996996684           
       0.212238              0.0147533134            0.000960358356           
       0.212917              0.0148948272            0.000961368032           
       0.213596              0.0150662336            0.000972600875           
       0.214276              0.0157071084             0.00097238212           
       0.214955                0.01455857            0.000955842657           
       0.215634              0.0159402439            0.000993003459           
       0.216313               0.014710564            0.000951930035           
       0.216992              0.0174121683             0.00103539966           
       0.217671              0.0156623568            0.000975345358           
       0.218351              0.0149292934            0.000961559847           
       0.219030              0.0148750998            0.000944662632           
       0.219709              0.0144951813            0.000938337834           
       0.220388              0.0158418375             0.00097969726           
       0.221067              0.0140048039            0.000921874513           
       0.221746              0.0158012077            0.000978212803           
       0.222426              0.0130149268            0.000874519696           
       0.223105              0.0138101079            0.000913111754           
       0.223784              0.0135401387            0.000895174295           
       0.224463              0.0150301335            0.000950653692           
       0.225142              0.0153395349            0.000945192898           
       0.225821              0.0142289652            0.000914001383           
       0.226500               0.015851633            0.000970844907           
       0.227180              0.0149542551            0.000928436726           
       0.227859              0.0159010164            0.000961670552           
       0.228538               0.014844003            0.000919827505           
       0.229217               0.013116175            0.000871482367           
       0.229896               0.015471079            0.000946032757           
       0.230575              0.0144191759            0.000898746829           
       0.231255              0.0138327522            0.000893460596           
       0.231934              0.0152751719            0.000932474344           
       0.232613              0.0144069501            0.000908927423           
       0.233292              0.0145989334            0.000906123211           
       0.233971               0.015465618            0.000932196801           
       0.234650              0.0139929771             0.00089713452           
       0.235330              0.0144909543            0.000904986174           
       0.236009              0.0158284314            0.000943789737           
       0.236688              0.0140339968            0.000885502911           
       0.237367              0.0130919768            0.000856509606           
       0.238046               0.013831012            0.000886552372           
       0.238725              0.0142829244            0.000887020272           
       0.239405              0.0147985743            0.000908488948           
       0.240084              0.0151346404            0.000912896416           
       0.240763              0.0152808829             0.00092607975           
       0.241442              0.0134724769            0.000857304211           
       0.242121              0.0145089986            0.000891351406           
       0.242800              0.0132003855            0.000854229821           
       0.243480              0.0141951453            0.000881684236           
       0.244159              0.0144188521            0.000889034448           
       0.244838              0.0148501286            0.000887386344           
       0.245517              0.0154502034            0.000918157902           
       0.246196              0.0137662898            0.000867097811           
       0.246875              0.0146020671            0.000880582878           
       0.247554              0.0142575836            0.000878977146           
       0.248234              0.0115952414            0.000780654414           
       0.248913              0.0146741402            0.000888054592           
       0.249592              0.0155366091            0.000905096492           
       0.250271               0.013563858            0.000843228895           
       0.250950              0.0143231208             0.00087181545           
       0.251629              0.0142448785            0.000862041338           
       0.252309              0.0150203626            0.000886991511           
       0.252988              0.0134309425            0.000824302095           
       0.253667              0.0131992491            0.000826708854           
       0.254346              0.0133328656            0.000830711736           
       0.255025              0.0137370426            0.000841361879           
       0.255704               0.013461331            0.000829061095           
       0.256384              0.0134137351            0.000824731029           
       0.257063              0.0129106378            0.000813730131           
       0.257742              0.0134916513            0.000826075004           
       0.258421               0.013029274            0.000810233645           
       0.259100              0.0146801969            0.000861534728           
       0.259779               0.012503485            0.000794427151           
       0.260459               0.012851601            0.000806991913           
       0.261138              0.0133581078            0.000806662521           
       0.261817               0.011841547            0.000774823744           
       0.262496              0.0120994744            0.000775535618           
       0.263175              0.0138463252            0.000831414453           
       0.263854               0.013336704             0.00081217976           
       0.264534              0.0117199372            0.000754858245           
       0.265213              0.0132683142            0.000815832947           
       0.265892               0.010959459            0.000731960926           
       0.266571              0.0139957961            0.000825283942           
       0.267250              0.0131072288            0.000800001898           
       0.267929              0.0135495815            0.000812555382           
       0.268609              0.0136126623            0.000818903961           
       0.269288              0.0141007254            0.000819609476           
       0.269967              0.0118838565            0.000760534859           
       0.270646              0.0123216269            0.000771068593           
       0.271325              0.0110115428            0.000730142813           
       0.272004              0.0121651641            0.000759786881           
       0.272683              0.0118122544              0.0007496102           
       0.273363              0.0104140041             0.00070833556           
       0.274042              0.0112964493            0.000733383686           
       0.274721              0.0129819562            0.000785728989           
       0.275400              0.0135590622            0.000797686967           
       0.276079              0.0127056198            0.000776559335           
       0.276758              0.0128570688            0.000791031963           
       0.277438              0.0102403678            0.000698036647           
       0.278117              0.0119906806            0.000769074635           
       0.278796              0.0104091732            0.000709290155           
       0.279475              0.0111037837            0.000744675398           
       0.280154              0.0113643629            0.000742526024           
       0.280833              0.0110460407            0.000736504704           
       0.281513              0.0125842844              0.0007984488           
       0.282192               0.011586032            0.000753055585           
       0.282871              0.0105619393             0.00072402858           
       0.283550              0.0114990545            0.000759514543           
       0.284229               0.011221405            0.000761308904           
       0.284908              0.0106827203            0.000750645773           
       0.285588               0.010597092            0.000738876464           
       0.286267              0.0101497322            0.000734690635           
       0.286946              0.0109589256            0.000758451357           
       0.287625              0.0112212884            0.000780544133           
       0.288304              0.0113541526            0.000774642584           
       0.288983              0.0109319625            0.000769729776           
       0.289663              0.0104701814            0.000757706082           
       0.290342             0.00933264444            0.000711554291           
       0.291021             0.00976892634            0.000731918246           
       0.291700             0.00981217262            0.000723953917           
       0.292379             0.00989927267            0.000743809081           
       0.293058             0.00954036323             0.00072744257           
       0.293738              0.0106309665            0.000761448057           
       0.294417             0.00988496023            0.000742779919           
       0.295096             0.00989222259            0.000734884118           
       0.295775             0.00981452404            0.000743171302           
       0.296454             0.00784268434            0.000655741522           
       0.297133             0.00969016646            0.000732345024           
       0.297812             0.00885024374            0.000703396965           
       0.298492             0.00956687148            0.000732733643           
       0.299171             0.00934062014            0.000722647653           
       0.299850              0.0100394514            0.000744077101           
       0.300529             0.00909085803            0.000716028217           
       0.301208             0.00914086141            0.000719741886           
       0.301887             0.00922695925            0.000722264265           
       0.302567             0.00936194811            0.000723884665           
       0.303246             0.00971774801            0.000742327052           
       0.303925             0.00845161013            0.000701169377           
       0.304604              0.0105314496            0.000765802712           
       0.305283             0.00982082811            0.000750482692           
       0.305962             0.00885023353            0.000708129025           
       0.306642             0.00928308176            0.000735088748           
       0.307321             0.00851979361            0.000701971076           
       0.308000             0.00979207101            0.000743641137           
       0.308679             0.00857987437            0.000711166211           
       0.309358             0.00890380813            0.000714666957           
       0.310037             0.00975727295            0.000749801993           
       0.310717             0.00888911425             0.00071497946           
       0.311396              0.0104446878            0.000780216245           
       0.312075             0.00975628395             0.00076362863           
       0.312754             0.00834257227            0.000692011953           
       0.313433             0.00901677463            0.000725688057           
       0.314112             0.00738109006            0.000656424708           
       0.314792              0.0097880034            0.000761250888           
       0.315471             0.00914940919            0.000726897285           
       0.316150              0.0111261252            0.000809001559           
       0.316829             0.00957072718            0.000755280583           
       0.317508             0.00828672117            0.000694906471           
       0.318187              0.0086551646            0.000719555426           
       0.318866             0.00933909617            0.000737375713           
       0.319546             0.00832356421            0.000706565965           
       0.320225             0.00877043117            0.000725298884           
       0.320904             0.00724303316             0.00064893205           
       0.321583             0.00786520367            0.000691129791           
       0.322262             0.00827886934            0.000698325027           
       0.322941             0.00783094175            0.000687872232           
       0.323621             0.00838001571            0.000707236525           
       0.324300             0.00846885456            0.000711532692           
       0.324979             0.00712101466            0.000653638923           
       0.325658             0.00757741571            0.000675483417           
       0.326337             0.00812208125            0.000700251907           
       0.327016             0.00849291758            0.000711513468           
       0.327696             0.00802512776            0.000699333135           
       0.328375             0.00842585448            0.000710533925           
       0.329054             0.00936836816            0.000753284341           
       0.329733             0.00809956622            0.000702976787           
       0.330412             0.00807652493            0.000696224498           
       0.331091             0.00702129646            0.000660926182           
       0.331771             0.00764614137            0.000671635698           
       0.332450             0.00771648764            0.000687818021           
       0.333129             0.00802329446            0.000699548755           
       0.333808             0.00634260852            0.000622800862           
       0.334487             0.00862721976            0.000729801824           
       0.335166             0.00836240416            0.000707998104           
       0.335846             0.00638548405            0.000629548349           
       0.336525             0.00752102076            0.000676490108           
       0.337204             0.00738770392            0.000672225325           
       0.337883             0.00764905929            0.000684919353           
       0.338562             0.00644737206            0.000632310175           
       0.339241             0.00732305435            0.000675146422           
       0.339921             0.00762329381            0.000677295726           
       0.340600             0.00703307681            0.000662902733           
       0.341279              0.0064723907             0.00062912052           
       0.341958             0.00628265615            0.000628575516           
       0.342637             0.00646296453            0.000628525066           
       0.343316             0.00779228173             0.00069214105           
       0.343995             0.00621146368            0.000628076976           
       0.344675             0.00756737138            0.000680507359           
       0.345354             0.00636732786            0.000628339279           
       0.346033             0.00732136276             0.00067201347           
       0.346712             0.00647796455            0.000636156025           
       0.347391             0.00674674176            0.000653239105           
       0.348070             0.00593677808            0.000604071999           
       0.348750             0.00517718865            0.000572256481           
       0.349429             0.00553876874            0.000584261373           
       0.350108             0.00636299252            0.000633761913           
       0.350787             0.00649888566            0.000629612468           
       0.351466             0.00581086924            0.000606319943           
       0.352145             0.00576878042            0.000604621445           
       0.352825             0.00577658636            0.000602289869           
       0.353504             0.00507871733            0.000564599415           
       0.354183              0.0061735378            0.000615315505           
       0.354862             0.00571731563            0.000605903227           
       0.355541             0.00536579181            0.000579293681           
       0.356220             0.00506918426            0.000564118685           
       0.356900             0.00562682696            0.000599982898           
       0.357579             0.00572905867            0.000597985334           
       0.358258             0.00552683811            0.000595464746           
       0.358937             0.00648264403            0.000632777669           
       0.359616             0.00475579815            0.000549552803           
       0.360295             0.00597047994            0.000616260014           
       0.360975             0.00566430158            0.000597683401           
       0.361654             0.00674715731            0.000655679614           
       0.362333              0.0051737866            0.000571243932           
       0.363012             0.00595631873            0.000620809616           
       0.363691             0.00564844337            0.000592625008           
       0.364370             0.00553856497            0.000594112554           
       0.365050             0.00490692009             0.00055621722           
       0.365729             0.00603092459            0.000622519953           
       0.366408              0.0051005226            0.000573758611           
       0.367087             0.00568276972            0.000595908927           
       0.367766             0.00476907577            0.000557279282           
       0.368445               0.004329751            0.000521563586           
       0.369124             0.00612666692             0.00062529693           
       0.369804              0.0046362097            0.000543075516           
       0.370483             0.00520712851            0.000578061311           
       0.371162             0.00487039748            0.000562299366           
       0.371841             0.00413392719            0.000509011806           
       0.372520             0.00444149694            0.000538183398           
       0.373199             0.00642314256            0.000639468968           
       0.373879             0.00514606935             0.00057900568           
       0.374558             0.00453578806            0.000535657657           
       0.375237             0.00412337238            0.000511562338           
       0.375916             0.00475324983            0.000559769009           
       0.376595             0.00523757038            0.000576111226           
       0.377274               0.005498664            0.000599745056           
       0.377954              0.0045597815            0.000537568247           
       0.378633               0.004812507            0.000559243805           
       0.379312             0.00430080583            0.000528543529           
       0.379991             0.00469249205            0.000549229624           
       0.380670             0.00427309433            0.000533374703           
       0.381349             0.00440462152            0.000533745869           
       0.382029             0.00479443863            0.000564842851           
       0.382708             0.00476981248            0.000551087394           
       0.383387             0.00460691835            0.000553869337           
       0.384066             0.00374071066            0.000494510934           
       0.384745              0.0041569294            0.000523346184           
       0.385424              0.0047269659            0.000559972269           
       0.386104             0.00538520368            0.000591085418           
       0.386783             0.00475665525            0.000567536246           
       0.387462             0.00456446107            0.000542121915           
       0.388141             0.00399308773            0.000515155383           
       0.388820              0.0043334929             0.00053278511           
       0.389499             0.00438292348            0.000538831518           
       0.390178             0.00362454529            0.000491953247           
       0.390858              0.0040109495            0.000513324736           
       0.391537             0.00464882176             0.00055828025           
       0.392216             0.00464533844            0.000551076087           
       0.392895             0.00507675501            0.000578038305           
       0.393574             0.00407278051            0.000516453435           
       0.394253             0.00378199187            0.000499914064           
       0.394933             0.00353304289            0.000488702047           
       0.395612             0.00401011978            0.000505529365           
       0.396291             0.00392490419            0.000510311213           
       0.396970             0.00444426733            0.000538214889           
       0.397649             0.00386942269            0.000503748519           
       0.398328             0.00280266933            0.000426838382           
       0.399008             0.00408005012            0.000513884374           
       0.399687             0.00326367608            0.000461393921           
       0.400366             0.00453991596            0.000542098216           
       0.401045             0.00400469706             0.00050817934           
       0.401724             0.00414617266            0.000517940867           
       0.402403             0.00427638309            0.000530110723           
       0.403083             0.00389677306            0.000498738493           
       0.403762             0.00496731573            0.000565871116           
       0.404441             0.00385536467            0.000501702932           
       0.405120             0.00383531908            0.000498756026           
       0.405799             0.00552737925            0.000596150919           
       0.406478             0.00424750269            0.000522605919           
       0.407158              0.0040977496            0.000512347199           
       0.407837             0.00409935933             0.00051697088           
       0.408516             0.00344679704            0.000469917156           
       0.409195             0.00360262972            0.000485872299           
       0.409874             0.00310740802            0.000457522288           
       0.410553             0.00406637908            0.000529008888           
       0.411233             0.00333671454             0.00047671892           
       0.411912             0.00316801557            0.000471093275           
       0.412591             0.00399185587            0.000532311062           
       0.413270             0.00305485943            0.000463452811           
       0.413949             0.00348986745            0.000500762776           
       0.414628             0.00354591961            0.000503861949           
       0.415307              0.0037823254            0.000526175689           
       0.415987             0.00298480528            0.000463570382           
       0.416666             0.00308878765            0.000468738745           
       0.417345             0.00247027521            0.000426188768           
       0.418024             0.00276362141              0.0004507956           
       0.418703             0.00238370006            0.000417895424           
       0.419382             0.00389240753            0.000531395074           
       0.420062             0.00381582443            0.000527615639           
       0.420741              0.0024809167            0.000427693879           
       0.421420             0.00227751576            0.000411340608           
       0.422099             0.00376092994            0.000528603214           
       0.422778             0.00350541607            0.000513094617           
       0.423457             0.00271134507            0.000454014972           
       0.424137             0.00299659911            0.000469522319           
       0.424816             0.00251174207             0.00043884619           
       0.425495             0.00227906489            0.000417630411           
       0.426174             0.00235678063             0.00042483999           
       0.426853             0.00352327442            0.000516289134           
       0.427532             0.00198329547            0.000390633836           
       0.428212             0.00178340268            0.000372870737           
       0.428891             0.00176503272            0.000370101671           
       0.429570             0.00192955102            0.000387230576           
       0.430249             0.00221454081            0.000412688763           
       0.430928             0.00289099531            0.000481835754           
       0.431607             0.00200710307            0.000394578214           
       0.432287             0.00181002161            0.000377449904           
       0.432966             0.00278644765            0.000472439548           
       0.433645              0.0028045225            0.000474464317           
       0.434324             0.00157892363            0.000353857852           
       0.435003             0.00175237239            0.000373424322           
       0.435682             0.00202933407             0.00040514787           
       0.436361             0.00226003804            0.000426985407           
       0.437041             0.00209833854            0.000410878076           
       0.437720             0.00285161083            0.000481293564           
       0.438399             0.00107609512            0.000297201257           
       0.439078             0.00201398424            0.000418377105           
       0.439757             0.00165697141            0.000377149605           
       0.440436             0.00263885588             0.00048667926           
       0.441116             0.00198011474            0.000428473846           
       0.441795             0.00181239344            0.000410419798           
       0.442474             0.00378800899             0.00059499988           
       0.443153              0.0029163554            0.000534253215           
       0.443832             0.00281081725            0.000525381344           
       0.444511             0.00317311658            0.000555699598           
       0.445191              0.0031377781            0.000566037485           
       0.445870             0.00254020574            0.000509307868           
       0.446549              0.0027125146            0.000531848179           
       0.447228             0.00194484007            0.000447798459           
       0.447907             0.00284561596            0.000548162122           
       0.448586             0.00266840034            0.000543590962           
       0.449266             0.00152029236            0.000406534179           
       0.449945             0.00227200102              0.0004949516           
       0.450624             0.00330169119            0.000606134869           
       0.451303             0.00127500927            0.000381549765           
       0.451982              0.0024869012            0.000529578915           
       0.452661             0.00319075553            0.000611033025           
       0.453341             0.00225908268            0.000515944845           
       0.454020             0.00263307476            0.000557866299           
       0.454699             0.00257993359            0.000557251578           
       0.455378             0.00233641039            0.000530584561           
       0.456057             0.00241886189            0.000549466754           
       0.456736             0.00104551792            0.000360118335           
       0.457416             0.00178015401            0.000469916412           
       0.458095              0.0023635958            0.000549311268           
       0.458774                0.00138388            0.000425875882           
       0.459453             0.00179737315            0.000487795523           
       0.460132             0.00182487419            0.000480898408           
       0.460811             0.00171634863            0.000483780124           
       0.461490             0.00234071179            0.000559216077           
       0.462170             0.00159972836            0.000469519679           
       0.462849             0.00176836606            0.000496849048           
       0.463528             0.00119831563             0.00040805219           
       0.464207             0.00140914431            0.000450774023           
       0.464886             0.00109380136             0.00039405373           
       0.465565             0.00127701989            0.000430457035           
       0.466245             0.00128386748            0.000432948915           
       0.466924             0.00197419908            0.000549555525           
       0.467603              0.0018722764            0.000523829846           
       0.468282             0.00151399937             0.00048222128           
       0.468961             0.00137509233            0.000462586686           
       0.469640             0.00156424679            0.000495346309           
       0.470320             0.00108029019            0.000411932996           
       0.470999            0.000794413507            0.000356579781           
       0.471678             0.00147957525            0.000491310974           
       0.472357             0.00100237567            0.000405521543           
       0.473036             0.00117654519            0.000442115434           
       0.473715             0.00186851378            0.000561518051           
       0.474395              0.0012297251            0.000461829635           
       0.475074             0.00106761012             0.00043032519           
       0.475753            0.000699481971            0.000345314659           
       0.476432            0.000590569384            0.000328845664           
       0.477111             0.00251939194             0.00067099711           
       0.477790            0.000953018038            0.000414894417           
       0.478470            0.000986091544             0.00042761335           
       0.479149              0.0015381563            0.000539587425           
       0.479828             0.00155537721            0.000541322255           
       0.480507             0.00137604444            0.000513264939           
       0.481186            0.000678569074            0.000368556183           
       0.481865             0.00083724324            0.000404316005           
       0.482545             0.00126137427            0.000502098259           
       0.483224             0.00088497712            0.000423438364           
       0.483903            0.000506094453            0.000325257662           
       0.484582            0.000532896101            0.000339186567           
       0.485261           -0.000119376021                         0           
       0.485940            0.000545809376            0.000348071505           
       0.486619            0.000112915078            0.000156574167           
       0.487299            0.000323947431            0.000269432653           
       0.487978             0.00121193975            0.000515829314           
       0.488657           -7.71571734e-05                         0           
       0.489336            0.000366457461            0.000290172824           
       0.490015            0.000131410664            0.000175129752           
       0.490694            0.000144213378            0.000188536713           
       0.491374           -9.54154798e-05                         0           
       0.492053           -0.000317389384                         0           
       0.492732           -6.90849103e-05                         0           
       0.493411            -0.00031742802                         0           
       0.494090             0.00019556137            0.000224286615           
       0.494769           -0.000317466783                         0           
       0.495449           -5.90377111e-05                         0           
       0.496128           -0.000317505767                         0           
       0.496807           -3.76418578e-05                         0           
       0.497486           -5.44790896e-05                         0           
       0.498165           -0.000317564328                         0           
       0.498844           -3.28343527e-05                         0           
       0.499524            0.000258594031            0.000271212961           
       0.500203             0.00026383384            0.000274943918           
       0.500882           -0.000317642707                         0           
       0.501561           -0.000317662248                         0           
       0.502240           -0.000317682049                         0           
       0.502919           -2.58043416e-06                         0           
       0.503599           -0.000317721556                         0           
       0.504278           -0.000317741627                         0           
       0.504957            4.71793845e-07            1.22664565e-05           
       0.505636            1.09606285e-05            5.95257246e-05           
       0.506315             7.4036371e-06            4.91247878e-05           
       0.506994            2.18776041e-05            8.58717924e-05           
       0.507673           -0.000317840511                         0           
       0.508353            -0.00031786056                         0           
       0.509032           -0.000317880523                         0           
       0.509711            2.51578116e-05            9.26224166e-05           
       0.510390           -0.000317920778                         0           
       0.511069            0.000768404944            0.000526451249           
       0.511748           -0.000317961131                         0           
       0.512428           -0.000317981411                         0           
       0.513107           -0.000318001379                         0           
       0.513786           -0.000318021409                         0           
       0.514465           -0.000318041781                         0           
       0.515144           -0.000318062138                         0           
       0.515823           -0.000318082311                         0           
       0.516503           -0.000318102673                         0           
       0.517182            0.000107072091            0.000212270319           
       0.517861           -0.000318143343                         0           
       0.518540           -0.000318163767                         0           
       0.519219           -0.000318184074                         0           
       0.519898           -0.000318204586                         0           
       0.520578           -0.000318225221                         0           
       0.521257            -0.00031824559                         0           
       0.521936           -0.000318266007                         0           
       0.522615           -0.000318286669                         0           
       0.523294           -0.000318307408                         0           
       0.523973            -0.00031832786                         0           
       0.524653           -0.000318348165                         0           
       0.525332           -0.000318368766                         0           
       0.526011            0.000201450112            0.000321711128           
       0.526690           -0.000318410667                         0           
       0.527369           -0.000318431425                         0           
       0.528048           -0.000318452331                         0           
       0.528728           -0.000318473212                         0           
       0.529407           -0.000318493997                         0           
       0.530086           -0.000318514674                         0           
       0.530765           -0.000318535381                         0           
       0.531444           -0.000318556311                         0           
       0.532123           -0.000318577611                         0           
       0.532802           -0.000318598738                         0           
       0.533482           -0.000318619792                         0           
       0.534161            -0.00031864088                         0           
       0.534840            0.000266168777             0.00039452566           
       0.535519            0.000263814594            0.000391830982           
       0.536198            0.000267232749             0.00039631223           
       0.536877            -0.00031872494                         0           
       0.537557           -0.000318746081                         0           
       0.538236           -0.000318767413                         0           
       0.538915            0.000273660142            0.000404100187           
       0.539594           -0.000318810033                         0           
       0.540273             0.00153702409            0.000972449334           
       0.540952           -0.000318853048                         0           
       0.541632           -0.000318874044                         0           
       0.542311           -0.000318895233                         0           
       0.542990            0.000389413627            0.000527633949           
       0.543669           -0.000318938265                         0           
       0.544348           -0.000318959845                         0           
       0.545027           -0.000318981378                         0           
       0.545707            0.000413128309            0.000550164841           
       0.546386           -0.000319024635                         0           
       0.547065            0.000407895253            0.000548390955           
       0.547744            -0.00031906753                         0           
       0.548423           -0.000319089263                         0           
       0.549102            0.000512092709            0.000647314832           
       0.549782           -0.000319132663                         0           
       0.550461           -0.000319154565                         0           
       0.551140             -0.0003191766                         0           
       0.551819            0.000495835964             0.00064369201           
       0.552498           -0.000319220334                         0           
       0.553177           -0.000319241917                         0           
       0.553856           -0.000319263577                         0           
       0.554536           -0.000319285309                         0           
       0.555215           -0.000319307372                         0           
       0.555894           -0.000319329383                         0           
       0.556573           -0.000319351525                         0           
       0.557252            0.000576036229            0.000719607049           
       0.557931           -0.000319395672                         0           
       0.558611            -0.00031941821                         0           
       0.559290           -0.000319440175                         0           
       0.559969           -0.000319461599                         0           
       0.560648           -0.000319483592                         0           
       0.561327           -0.000319506074                         0           
       0.562006           -0.000319528453                         0           
       0.562686           -0.000319550844                         0           
       0.563365           -0.000319573317                         0           
       0.564044           -0.000319595677                         0           
       0.564723           -0.000319617988                         0           
       0.565402           -0.000319639883                         0           
       0.566081           -0.000319661924                         0           
       0.566761           -0.000319684201                         0           
       0.567440           -0.000319706932                         0           
       0.568119           -0.000319729483                         0           
       0.568798           -0.000319752351                         0           
       0.569477           -0.000319775072                         0           
       0.570156           -0.000319797903                         0           
       0.570836             0.00107553185             0.00122366476           
       0.571515           -0.000319842914                         0           
       0.572194           -0.000319865824                         0           
       0.572873           -0.000319888209                         0           
       0.573552           -0.000319910463                         0           
       0.574231             0.00119195359             0.00133586048           
       0.574911           -0.000319956447                         0           
       0.575590           -0.000319979277                         0           
       0.576269           -0.000320002036                         0           
       0.576948           -0.000320025234                         0           
       0.577627           -0.000320047724                         0           
       0.578306           -0.000320070531                         0           
       0.578985           -0.000320093533                         0           
       0.579665           -0.000320116403                         0           
       0.580344           -0.000320139618                         0           
       0.581023           -0.000320162808                         0           
       0.581702           -0.000320185785                         0           
       0.582381           -0.000320208552                         0           
       0.583060           -0.000320231998                         0           
       0.583740           -0.000320255077                         0           
       0.584419           -0.000320278231                         0           
       0.585098           -0.000320301359                         0           
       0.585777           -0.000320324666                         0           
       0.586456           -0.000320348353                         0           
       0.587135           -0.000320371409                         0           
       0.587815           -0.000320394217                         0           
       0.588494           -0.000320417736                         0           
       0.589173           -0.000320441795                         0           
       0.589852           -0.000320464575                         0           
       0.590531           -0.000320488214                         0           
       0.591210           -0.000320511308                         0           
       0.591890           -0.000320534848                         0           
       0.592569             -0.0003205576                         0           
       0.593248           -0.000320582475                         0           
       0.593927              0.0125582473               0.012941242           
       0.594606           -0.000320630262                         0           
       0.595285            -0.00032065296                         0           
       0.595965           -0.000320674142                         0           
       0.596644           -0.000320695938                         0           
