################################################################################
# EDF_DataBlockID                     0.Image.Psd
# EDF_BinarySize                      4366944
# EDF_HeaderSize                      2560
# ByteOrder                           LowByteFirst
# DataType                            FloatValue
# Dim_1                               1028
# Dim_2                               1062
# Image                               0
# HeaderID                            EH:000000:000000:000000
# Size                                4366944
# Center_1                            607.5200
# Center_2                            651.5500
# Comment                             Xenocs_Cell_Window - 20251028_20perc_iodine_1.23mg
# DDummy                              0.6
# Date                                2025-10-29T21:10:08
# Delta                               0
# Dummy                               -1.5
# ExposureTime                        360
# Gamma                               0
# Intensity1                          8.43724e-10
# PSize_1                             7.5e-05
# PSize_2                             7.5e-05
# Pressure                            0.0326319
# SampleDistance                      0.450002
# SampleEnvKind                       large
# SampleEnvPN                         ElectroChemical cell
# SampleEnvSN                         1141
# Thickness                           0
# Wavelength                          1.541891e-10
# Wavelength                          1.54189e-10
# aux                                 0
# aux_dial                            0.002375
# beamx                               588.434
# beamx_dial                          588.434
# beamz                               657.808
# beamz_dial                          657.808
# det0x                               0
# det0x_dial                          6.36945
# det0xvd                             0
# det0xvd_dial                        0
# det0y                               450.002
# det0y_dial                          481.635
# det0z                               0
# det0z_dial                          1.23302
# det0zvd                             0
# det0zvd_dial                        0
# mag                                 1.818
# mag_dial                            1.818
# om                                  0.2499
# om_dial                             -0.610199
# phi                                 -0.0120535
# phi_dial                            0
# ry                                  0.599993
# ry_dial                             0.599993
# s1bot                               0.8
# s1bot_dial                          -1.66094
# s1hl                                0.8
# s1hl_dial                           -0.608437
# s1hr                                0.8
# s1hr_dial                           0.970938
# s1top                               0.8
# s1top_dial                          -0.461562
# s2bot                               0.45
# s2bot_dial                          1.36109
# s2hl                                0.45
# s2hl_dial                           -0.83375
# s2hr                                0.45
# s2hr_dial                           -0.118594
# s2top                               0.45
# s2top_dial                          1.44734
# w2theta                             32
# w2theta_dial                        32
# waxsch                              19.2605
# waxsch_dial                         -32.7355
# waxsh                               137.085
# waxsh_dial                          -43.5338
# waxsth                              26.0607
# waxsth_dial                         -19.4086
# waxsz                               67.0407
# waxsz_dial                          -23.7954
# wind                                65.9854
# wind_dial                           66.0041
# wpsi                                124
# wpsi_dial                           124
# wstod                               115
# wstod_dial                          115
# x                                   0
# x_dial                              1.00969
# z                                   0
# z_dial                              13.3172
# CountCutoff                         15302352
# DetectorModel                       Dectris EIGER2 Si 1M, S/N E-02-0362
# ThresholdSetting                    4023.88989258
# Saturation                          0
# FlatField                           Corrected
# BackgroundReductionExtra            0.02
# BackgroundCorrectionConstant        0.0026712
# Detector                            0
# Monitor                             0
# Pil_Roi0                            0
# SumForIntensity1                    3.03741e+08
# TransmittedFlux                     843724
# det                                 0
# mon                                 0
# pilai0                              3.03741e+08
# pilai1                              771637
# pilct0                              5.26098e+08
# pilct1                              771637
# pilroi0                             0
# pilroi1                             0
# sec                                 1
# title                               20251028_20perc_iodine_1.23mg_0_00280.edf
# usaxs0                              0
# Operation                           Azimuthal average I(q)
# Error_model                         ErrorModel.poisson
# Geometrical_correction              True
# Transmission_correction             True
# Thickness_correction                False
# Binning mode                        Uniform
# Binning factor                      1.0
# Psi                                 0.0
# Omega                               0.2499
# MaskInvalidPixels                   True
# DetectorEdge                        3
# MaskFiles                           ['20251028_20perc_iodine_1.23mg_0_00012_mask.edf']
################################################################################
    q(A⁻¹)                Intensity(a.u.)            Sigma_I(a.u.)            
       0.000340                 371533.99                121.154732           
       0.001019                 358930.91                72.9226069           
       0.001698                349649.255                50.8930052           
       0.002377                331027.163                 44.291323           
       0.003056                308267.798                36.1232628           
       0.003735                253411.348                28.8844282           
       0.004415                204917.161                25.9740704           
       0.005094                153201.987                19.4497401           
       0.005773                 101289.21                14.6416476           
       0.006452                 59085.598                10.7146612           
       0.007131                32377.3192                7.68363072           
       0.007810                16213.1171                5.39590384           
       0.008490                8103.79422                3.38148672           
       0.009169                3905.51367                  2.320028           
       0.009848                1199.96608                1.24335229           
       0.010527                459.861329               0.769703428           
       0.011206                 116.97423               0.370500315           
       0.011885                53.6529808               0.233135538           
       0.012564                24.9452775               0.163206515           
       0.013244                 17.163139               0.126561512           
       0.013923                12.4614356               0.109581438           
       0.014602                9.36926647              0.0881232849           
       0.015281                7.45626154              0.0800253022           
       0.015960                6.14663504              0.0721375516           
       0.016639                5.08677817              0.0619696017           
       0.017319                4.23438407              0.0556602568           
       0.017998                3.43384082                0.04795253           
       0.018677                2.92519807              0.0458399604           
       0.019356                2.53864732              0.0421955726           
       0.020035                2.13849146              0.0363339587           
       0.020714                1.89079655              0.0345265825           
       0.021394                1.64919811              0.0305096664           
       0.022073                1.37908882              0.0290272921           
       0.022752                1.25326223              0.0264706684           
       0.023431                1.13381313              0.0244394803           
       0.024110                0.96839289              0.0235479839           
       0.024789               0.926519595              0.0213912142           
       0.025469               0.824019888              0.0207887822           
       0.026148               0.748363274              0.0186144998           
       0.026827               0.683237804              0.0180707403           
       0.027506               0.610269132              0.0173248199           
       0.028185               0.549741702              0.0156809973           
       0.028864               0.526673186              0.0152623445           
       0.029544               0.502194266              0.0144521442           
       0.030223               0.443143988              0.0137705787           
       0.030902                 0.4088784              0.0133485187           
       0.031581               0.380293562              0.0122376352           
       0.032260               0.349298214              0.0119281696           
       0.032939               0.307758654               0.010795828           
       0.033619               0.312343559              0.0110357882           
       0.034298               0.265179763             0.00989560731           
       0.034977               0.247139169             0.00936533404           
       0.035656               0.234281261             0.00935978347           
       0.036335               0.207676481             0.00854685437           
       0.037014               0.213807781             0.00869797018           
       0.037693               0.202540398             0.00814387534           
       0.038373               0.182772466             0.00781217217           
       0.039052               0.173520467             0.00764426341           
       0.039731               0.167821091             0.00734247948           
       0.040410               0.152846115             0.00696025465           
       0.041089               0.141816096             0.00659939211           
       0.041768               0.152434531             0.00687774264           
       0.042448               0.143615558             0.00662402439           
       0.043127               0.132435812             0.00621074491           
       0.043806               0.122964984             0.00602917495           
       0.044485               0.112250966             0.00564218633           
       0.045164                0.10052167             0.00544450652           
       0.045843                0.11854839             0.00567087442           
       0.046523               0.104305378             0.00533768139           
       0.047202               0.107848494             0.00546550841           
       0.047881              0.0956026464             0.00504663172           
       0.048560              0.0966059227             0.00511928244           
       0.049239              0.0900651579              0.0047461175           
       0.049918              0.0914996224             0.00487728135           
       0.050598              0.0854574878             0.00464277944           
       0.051277              0.0851918745             0.00462084914           
       0.051956              0.0900317018             0.00472046323           
       0.052635              0.0731831982             0.00416559214           
       0.053314              0.0876813463             0.00469288655           
       0.053993              0.0745663119             0.00420900961           
       0.054673              0.0785227501             0.00422301694           
       0.055352              0.0742109422             0.00416573655           
       0.056031              0.0696195584             0.00395003635           
       0.056710              0.0736413092             0.00416207849           
       0.057389              0.0620526317             0.00368423018           
       0.058068              0.0660157973              0.0038392335           
       0.058748              0.0629338285             0.00379530427           
       0.059427              0.0709356655             0.00396114639           
       0.060106              0.0600826106             0.00368005303           
       0.060785              0.0603193655             0.00357681647           
       0.061464               0.057314743             0.00357063441           
       0.062143              0.0572181903              0.0035313849           
       0.062822              0.0634657028             0.00367553919           
       0.063502              0.0615592932             0.00361344718           
       0.064181              0.0533557433             0.00332854972           
       0.064860              0.0532601989             0.00337621998           
       0.065539              0.0494803161             0.00322238884           
       0.066218              0.0464826253             0.00305637763           
       0.066897              0.0507697494             0.00321887364           
       0.067577              0.0476466569             0.00314825628           
       0.068256              0.0543809558             0.00344601054           
       0.068935              0.0421173223             0.00298362246           
       0.069614              0.0470143241             0.00318368822           
       0.070293              0.0409457301             0.00299851388           
       0.070972              0.0433270242             0.00306189043           
       0.071652              0.0423950393             0.00303433549           
       0.072331              0.0473544772             0.00314975405           
       0.073010              0.0436256818             0.00309227965           
       0.073689              0.0442382837             0.00309680381           
       0.074368              0.0419636208             0.00301065143           
       0.075047              0.0400594254             0.00290993373           
       0.075727              0.0436357134             0.00301829077           
       0.076406              0.0428523261             0.00305075341           
       0.077085              0.0368160783             0.00277488822           
       0.077764                0.03948871             0.00286377406           
       0.078443              0.0383254378             0.00283874533           
       0.079122              0.0410437725             0.00290947225           
       0.079802              0.0318340965             0.00258951643           
       0.080481              0.0336875614             0.00257397831           
       0.081160              0.0383601628             0.00280305655           
       0.081839              0.0390808906             0.00278397113           
       0.082518              0.0403765608              0.0028321273           
       0.083197              0.0333334494             0.00253330368           
       0.083876               0.039857059             0.00272409749           
       0.084556              0.0330453266             0.00254940221           
       0.085235              0.0329572026             0.00249681085           
       0.085914              0.0326206051             0.00250815839           
       0.086593              0.0305069435             0.00240992829           
       0.087272              0.0309129866             0.00239162226           
       0.087951              0.0319694583             0.00248708626           
       0.088631              0.0366464475             0.00257210722           
       0.089310              0.0338626756             0.00252492549           
       0.089989              0.0345856226             0.00252190397           
       0.090668              0.0321643627             0.00245887124           
       0.091347              0.0311326279              0.0024326575           
       0.092026              0.0283992727             0.00222080842           
       0.092706              0.0315390844             0.00242530479           
       0.093385              0.0290942268             0.00229363495           
       0.094064              0.0303759406             0.00237088852           
       0.094743              0.0287994567             0.00227336519           
       0.095422              0.0303248727             0.00230678166           
       0.096101              0.0299851186             0.00234106484           
       0.096781              0.0259473538              0.0021465636           
       0.097460              0.0307318808             0.00227237631           
       0.098139              0.0268737599             0.00210860525           
       0.098818              0.0262213969             0.00205720468           
       0.099497              0.0242448556             0.00198221223           
       0.100176              0.0297270007             0.00213729983           
       0.100856              0.0260054554             0.00199776201           
       0.101535              0.0281860816              0.0020758237           
       0.102214              0.0260694092             0.00199637166           
       0.102893              0.0302317506             0.00212535158           
       0.103572              0.0245829796              0.0018882207           
       0.104251              0.0260393791              0.0019505282           
       0.104931              0.0275557675              0.0019882511           
       0.105610              0.0244755919             0.00188182918           
       0.106289              0.0260372773             0.00190863642           
       0.106968               0.024711397             0.00186492363           
       0.107647              0.0242496844             0.00184852797           
       0.108326               0.023800521             0.00180682906           
       0.109005              0.0305141003             0.00203297963           
       0.109685              0.0246360317             0.00180621365           
       0.110364              0.0250924405             0.00184357192           
       0.111043              0.0247574948             0.00182396545           
       0.111722              0.0246531736              0.0017978717           
       0.112401              0.0253920357             0.00182968811           
       0.113080              0.0221299159             0.00168854506           
       0.113760               0.025875587             0.00185635853           
       0.114439              0.0228082626             0.00171798775           
       0.115118              0.0207948142             0.00162803744           
       0.115797              0.0198957425             0.00160720681           
       0.116476              0.0205474061             0.00160886992           
       0.117155              0.0259955216             0.00182423338           
       0.117835              0.0231165093             0.00168605454           
       0.118514              0.0216997457             0.00165428306           
       0.119193              0.0226783976             0.00169118771           
       0.119872              0.0244615915             0.00173445206           
       0.120551              0.0214651746             0.00161392967           
       0.121230              0.0200830131              0.0015453941           
       0.121910              0.0215895218             0.00161779508           
       0.122589              0.0210193315             0.00159793364           
       0.123268              0.0211418578              0.0015715368           
       0.123947               0.019879196             0.00153374121           
       0.124626              0.0203909585             0.00153436514           
       0.125305              0.0202739379             0.00153746401           
       0.125985              0.0195145559             0.00149669117           
       0.126664              0.0237520704             0.00163548643           
       0.127343              0.0188844314             0.00147520798           
       0.128022              0.0210030859             0.00154382821           
       0.128701              0.0196304668             0.00148475396           
       0.129380               0.021537937             0.00153573948           
       0.130059              0.0193516423             0.00145908914           
       0.130739              0.0209315319             0.00152815289           
       0.131418              0.0218183059             0.00155581944           
       0.132097              0.0198561528             0.00146517826           
       0.132776              0.0204320161             0.00147956273           
       0.133455              0.0189174718             0.00143473067           
       0.134134              0.0211611348             0.00151259641           
       0.134814              0.0215894647              0.0015120859           
       0.135493              0.0178100067               0.001378928           
       0.136172              0.0196212378             0.00143642112           
       0.136851              0.0199760274             0.00145777884           
       0.137530              0.0183141142             0.00136265958           
       0.138209              0.0199047895             0.00143728321           
       0.138889              0.0191341372             0.00141539668           
       0.139568              0.0179584822             0.00137063181           
       0.140247              0.0192830486             0.00141841831           
       0.140926              0.0174881284             0.00131216793           
       0.141605              0.0236052818             0.00156321276           
       0.142284               0.017866858              0.0013374598           
       0.142964              0.0173965108             0.00132478571           
       0.143643              0.0189063046             0.00137933232           
       0.144322              0.0191331742             0.00135854781           
       0.145001              0.0205263234             0.00143602214           
       0.145680              0.0207408915             0.00140935703           
       0.146359               0.019799881             0.00138205188           
       0.147039              0.0188575803             0.00135986844           
       0.147718              0.0208952351             0.00140783372           
       0.148397              0.0181506607              0.0013325107           
       0.149076              0.0160948863             0.00121585701           
       0.149755              0.0195486151             0.00136066456           
       0.150434              0.0172855769             0.00128000668           
       0.151114               0.016152444             0.00123049719           
       0.151793              0.0185034939             0.00131702008           
       0.152472              0.0199221112             0.00134243484           
       0.153151              0.0184648557             0.00130489938           
       0.153830              0.0196652383              0.0013368353           
       0.154509               0.018033305             0.00127482379           
       0.155188              0.0191861384             0.00131445503           
       0.155868              0.0187756312             0.00129106376           
       0.156547              0.0183779911             0.00128552409           
       0.157226              0.0181465425             0.00124620365           
       0.157905              0.0175071952             0.00123433492           
       0.158584              0.0178061975             0.00124256927           
       0.159263              0.0173810293             0.00123216197           
       0.159943              0.0195330225             0.00130718953           
       0.160622              0.0172532662             0.00120483148           
       0.161301              0.0185084857             0.00126458023           
       0.161980              0.0180299156             0.00122690523           
       0.162659              0.0156389305             0.00115532683           
       0.163338              0.0156259549             0.00114543475           
       0.164018              0.0186743768             0.00124561751           
       0.164697              0.0173104052             0.00121466426           
       0.165376              0.0167993159             0.00117045425           
       0.166055              0.0175166212             0.00120306362           
       0.166734              0.0162919317             0.00115504766           
       0.167413               0.017289835             0.00119072919           
       0.168093               0.019614371             0.00128024649           
       0.168772              0.0163735609             0.00113550133           
       0.169451              0.0160077592              0.0011434022           
       0.170130              0.0178824985             0.00119263784           
       0.170809              0.0155000016             0.00112360209           
       0.171488              0.0168554894             0.00116102113           
       0.172168              0.0170738899             0.00115729307           
       0.172847              0.0162503663             0.00114386936           
       0.173526              0.0162444436             0.00112184378           
       0.174205              0.0170979181             0.00115623774           
       0.174884              0.0159098401             0.00110953066           
       0.175563               0.016277737              0.0011270774           
       0.176243              0.0180438919              0.0011985234           
       0.176922              0.0161386179              0.0011039434           
       0.177601              0.0178028252              0.0011722085           
       0.178280              0.0148377596             0.00105820405           
       0.178959              0.0170173551             0.00114237971           
       0.179638              0.0164529467             0.00112004084           
       0.180317              0.0157382191             0.00108746279           
       0.180997              0.0161004169             0.00110587505           
       0.181676              0.0179748918             0.00115600154           
       0.182355              0.0172754442             0.00114009336           
       0.183034              0.0178987223               0.001141853           
       0.183713              0.0167770457              0.0011189586           
       0.184392              0.0160748959             0.00109496179           
       0.185072              0.0171527903              0.0011181868           
       0.185751              0.0144102166             0.00102775297           
       0.186430              0.0150020626             0.00104130138           
       0.187109              0.0166429944             0.00110898735           
       0.187788              0.0162836756             0.00109424623           
       0.188467              0.0141738242             0.00100881658           
       0.189147              0.0164462663             0.00109768644           
       0.189826              0.0150025211             0.00102985979           
       0.190505               0.016265755             0.00108999365           
       0.191184              0.0158479533             0.00106039757           
       0.191863              0.0150488458             0.00103549425           
       0.192542              0.0160794559             0.00108045847           
       0.193222              0.0157674011              0.0010459457           
       0.193901              0.0156919337             0.00105742542           
       0.194580              0.0161633858             0.00105441982           
       0.195259              0.0144520917              0.0010084912           
       0.195938              0.0149510316             0.00102820065           
       0.196617              0.0148772376             0.00101134326           
       0.197297              0.0161720884             0.00105874205           
       0.197976              0.0142375424            0.000978142032           
       0.198655              0.0146416172             0.00100275983           
       0.199334              0.0147772646            0.000998510254           
       0.200013              0.0159213014             0.00103586681           
       0.200692              0.0148320623             0.00100581904           
       0.201371              0.0168733003             0.00106071876           
       0.202051              0.0157787463             0.00102892787           
       0.202730              0.0152725965             0.00100217977           
       0.203409               0.013144279            0.000935972694           
       0.204088              0.0158262456             0.00102589547           
       0.204767                0.01342325            0.000939841005           
       0.205446              0.0169077193             0.00105685617           
       0.206126              0.0154825711            0.000997594579           
       0.206805              0.0161498262             0.00103754289           
       0.207484              0.0153621268            0.000993731875           
       0.208163              0.0159432648             0.00101843679           
       0.208842              0.0157789579             0.00101042981           
       0.209521              0.0162837116             0.00101793336           
       0.210201              0.0169223049             0.00104928134           
       0.210880              0.0143801326            0.000948280313           
       0.211559              0.0145524305             0.00096804851           
       0.212238              0.0142022646            0.000951464522           
       0.212917              0.0156831961            0.000996126498           
       0.213596              0.0163722048             0.00102379064           
       0.214276              0.0156346466            0.000979621127           
       0.214955              0.0125997735            0.000897911809           
       0.215634              0.0143716204            0.000952097475           
       0.216313              0.0143091316            0.000948030418           
       0.216992              0.0161949931             0.00100831735           
       0.217671              0.0142131667            0.000938211072           
       0.218351               0.013815392            0.000934035887           
       0.219030              0.0171564148             0.00102443717           
       0.219709              0.0154763243            0.000979053843           
       0.220388              0.0159899381            0.000993888746           
       0.221067              0.0139649332            0.000929561202           
       0.221746              0.0128841874            0.000891953027           
       0.222426               0.017040464             0.00101044971           
       0.223105              0.0159799202            0.000991831655           
       0.223784              0.0141649022            0.000924545103           
       0.224463              0.0159168243            0.000987857715           
       0.225142              0.0145151129            0.000928431416           
       0.225821              0.0144585783            0.000930354056           
       0.226500              0.0150703979            0.000955873621           
       0.227180              0.0160158035            0.000970218496           
       0.227859              0.0165552622            0.000990848309           
       0.228538              0.0158760991            0.000960567835           
       0.229217               0.014255242             0.00091741865           
       0.229896              0.0134258942            0.000889903155           
       0.230575              0.0131520405             0.00086674029           
       0.231255               0.014267977            0.000916278657           
       0.231934              0.0153461212            0.000943774885           
       0.232613               0.013466395            0.000887348296           
       0.233292              0.0143626543            0.000907547386           
       0.233971              0.0141649072            0.000900857504           
       0.234650              0.0147477656            0.000930016994           
       0.235330              0.0157944142            0.000954048554           
       0.236009              0.0149376881            0.000925812989           
       0.236688              0.0147208962            0.000915781145           
       0.237367              0.0149234202            0.000923398306           
       0.238046              0.0138577026            0.000896083128           
       0.238725              0.0145580236            0.000904276929           
       0.239405              0.0164299665            0.000966614515           
       0.240084              0.0147282112            0.000909359724           
       0.240763              0.0135653736            0.000881079928           
       0.241442              0.0152976898            0.000922463992           
       0.242121              0.0144704209            0.000898868334           
       0.242800              0.0144879411            0.000903670328           
       0.243480              0.0145831157            0.000902388558           
       0.244159              0.0137468933            0.000876558268           
       0.244838              0.0141077101            0.000873375816           
       0.245517              0.0129294862            0.000848137319           
       0.246196              0.0129200153             0.00084823544           
       0.246875              0.0158096675            0.000925229985           
       0.247554              0.0137114471            0.000870405308           
       0.248234              0.0149343229            0.000894616606           
       0.248913              0.0137604373            0.000868369808           
       0.249592              0.0136938699            0.000858035241           
       0.250271              0.0119166763            0.000798098874           
       0.250950              0.0139534487            0.000868903964           
       0.251629              0.0147237657             0.00088497995           
       0.252309              0.0118566086            0.000795764867           
       0.252988              0.0136039973            0.000837706128           
       0.253667               0.013663466            0.000849344111           
       0.254346              0.0142753579            0.000867975293           
       0.255025              0.0124287621            0.000808119174           
       0.255704              0.0130537533            0.000824395286           
       0.256384              0.0134211911            0.000833025445           
       0.257063              0.0138403748            0.000850757407           
       0.257742              0.0127691728            0.000811509434           
       0.258421              0.0128798121            0.000813448743           
       0.259100              0.0120410058            0.000787886201           
       0.259779              0.0147375391            0.000870916043           
       0.260459              0.0128402518             0.00081452159           
       0.261138                0.01283333            0.000798388646           
       0.261817              0.0148197145            0.000875273709           
       0.262496              0.0124361226            0.000793937398           
       0.263175               0.015035579            0.000874854135           
       0.263854              0.0125828343            0.000796603866           
       0.264534              0.0126136458            0.000790766643           
       0.265213              0.0135709065            0.000833149737           
       0.265892               0.012247407            0.000781341117           
       0.266571              0.0126235194            0.000791443802           
       0.267250              0.0128124942            0.000798688963           
       0.267929              0.0124912479             0.00078780405           
       0.268609              0.0108343384            0.000737713786           
       0.269288              0.0123432229            0.000774329482           
       0.269967              0.0119200214            0.000769137891           
       0.270646              0.0124547239            0.000782800878           
       0.271325              0.0109196706            0.000734198957           
       0.272004              0.0127345794            0.000784965143           
       0.272683              0.0126426767            0.000783093956           
       0.273363              0.0124804132            0.000783014708           
       0.274042              0.0116124721            0.000750840815           
       0.274721              0.0117404789            0.000754520213           
       0.275400              0.0126284349             0.00077735196           
       0.276079              0.0123770312            0.000773945223           
       0.276758              0.0131974571            0.000809270003           
       0.277438              0.0119902061            0.000762709289           
       0.278117              0.0105305563            0.000727775605           
       0.278796             0.00937215706            0.000679611717           
       0.279475              0.0104217504            0.000728495896           
       0.280154              0.0112430467            0.000745772566           
       0.280833              0.0121721376            0.000780694097           
       0.281513               0.010765234            0.000745709733           
       0.282192              0.0105785679             0.00072660499           
       0.282871              0.0106241367            0.000733256574           
       0.283550              0.0118738551            0.000779338561           
       0.284229               0.011429795            0.000775857165           
       0.284908              0.0110605201            0.000771271268           
       0.285588              0.0108944163            0.000756494421           
       0.286267              0.0114306416            0.000787295521           
       0.286946              0.0115463097            0.000786123193           
       0.287625             0.00989707505            0.000740209746           
       0.288304              0.0107753051            0.000762015939           
       0.288983              0.0104960141            0.000761599567           
       0.289663              0.0111887244            0.000790932141           
       0.290342              0.0103843426             0.00075791491           
       0.291021              0.0109638186            0.000782970396           
       0.291700              0.0100791015             0.00074090838           
       0.292379              0.0109438637            0.000789715088           
       0.293058             0.00950215329            0.000733081971           
       0.293738             0.00962581897             0.00073164097           
       0.294417              0.0105930088            0.000776439502           
       0.295096              0.0095647814            0.000729683811           
       0.295775              0.0102301005            0.000766160089           
       0.296454             0.00978374155            0.000739567925           
       0.297133             0.00892574643            0.000709737339           
       0.297812              0.0107132125            0.000781462242           
       0.298492             0.00952030293            0.000738094231           
       0.299171              0.0108842062            0.000787702796           
       0.299850              0.0105661967            0.000770810388           
       0.300529              0.0112749983            0.000805213793           
       0.301208              0.0107086161            0.000786638421           
       0.301887             0.00969346865            0.000747535284           
       0.302567              0.0107407485            0.000782940572           
       0.303246             0.00996477048            0.000759051749           
       0.303925             0.00809735692            0.000693026943           
       0.304604             0.00904170457            0.000716511632           
       0.305283                0.01038104            0.000779134299           
       0.305962              0.0105828522            0.000781918809           
       0.306642             0.00803140523            0.000690422159           
       0.307321             0.00893029674            0.000725709638           
       0.308000             0.00905202613            0.000721978548           
       0.308679             0.00952192168            0.000756516173           
       0.309358             0.00861770544            0.000709964926           
       0.310037             0.00883705135            0.000720545346           
       0.310717             0.00905824734            0.000728805555           
       0.311396             0.00852481134            0.000711762184           
       0.312075             0.00886282157            0.000734938933           
       0.312754             0.00757308109            0.000665771462           
       0.313433             0.00819186962            0.000698459372           
       0.314112             0.00858867085            0.000715011311           
       0.314792             0.00829667657            0.000707714512           
       0.315471             0.00702817031            0.000643313884           
       0.316150              0.0086017759            0.000718284862           
       0.316829             0.00805694846            0.000699755642           
       0.317508             0.00946854771            0.000750070255           
       0.318187             0.00730466342            0.000667501055           
       0.318866             0.00792610753             0.00068594872           
       0.319546              0.0092755297            0.000753169408           
       0.320225             0.00927519151            0.000753170401           
       0.320904             0.00754924976            0.000668984645           
       0.321583             0.00777919263            0.000694060221           
       0.322262             0.00849442462            0.000714273176           
       0.322941             0.00822707011            0.000711948608           
       0.323621             0.00849291793             0.00071894554           
       0.324300             0.00680873284            0.000644229983           
       0.324979             0.00645794321            0.000628549292           
       0.325658             0.00790630032            0.000696732474           
       0.326337             0.00834264144            0.000716634463           
       0.327016             0.00811366173             0.00070224456           
       0.327696             0.00898544055            0.000747227903           
       0.328375             0.00761025198            0.000681871634           
       0.329054             0.00789441541            0.000698252046           
       0.329733             0.00857507179            0.000730389045           
       0.330412             0.00884386497            0.000735670511           
       0.331091             0.00835294819            0.000727929734           
       0.331771             0.00790914345            0.000689767298           
       0.332450              0.0063647818            0.000630784107           
       0.333129             0.00787905415            0.000700009493           
       0.333808             0.00776318404            0.000695761603           
       0.334487             0.00652610976            0.000640946773           
       0.335166             0.00718024882            0.000662462852           
       0.335846             0.00613379328            0.000623048722           
       0.336525             0.00735831447            0.000675674445           
       0.337204             0.00585863565             0.00060448237           
       0.337883             0.00712370097            0.000667441996           
       0.338562             0.00668959167            0.000650375052           
       0.339241             0.00652597377            0.000643575894           
       0.339921             0.00672418974            0.000642321191           
       0.340600             0.00648726617             0.00064288494           
       0.341279             0.00634817569            0.000629145684           
       0.341958             0.00788265971            0.000710963768           
       0.342637             0.00664355879            0.000643476027           
       0.343316             0.00610748861             0.00061875523           
       0.343995             0.00612985037            0.000630037065           
       0.344675             0.00635475567            0.000629701888           
       0.345354             0.00763310193            0.000694690562           
       0.346033             0.00591293062             0.00060982984           
       0.346712             0.00661831308            0.000649296826           
       0.347391             0.00605300439            0.000624792619           
       0.348070             0.00532771869            0.000577842133           
       0.348750             0.00638145898            0.000641547741           
       0.349429             0.00558373962            0.000592363653           
       0.350108             0.00604319978            0.000623669018           
       0.350787               0.005168983            0.000566998211           
       0.351466             0.00593566088            0.000618786895           
       0.352145             0.00651520223            0.000648829754           
       0.352825             0.00645001513            0.000642651542           
       0.353504             0.00550140545            0.000593369876           
       0.354183             0.00661521987              0.0006431736           
       0.354862             0.00666717015            0.000660698339           
       0.355541             0.00636997498            0.000637347094           
       0.356220             0.00594097096            0.000616673698           
       0.356900             0.00540635437            0.000593860734           
       0.357579             0.00502024086            0.000565244624           
       0.358258             0.00581343574            0.000616679321           
       0.358937             0.00546511273             0.00058667811           
       0.359616             0.00588994623            0.000617559278           
       0.360295             0.00660978291            0.000654754105           
       0.360975             0.00616067335            0.000629415403           
       0.361654              0.0059071518            0.000619506109           
       0.362333             0.00622673051            0.000632808995           
       0.363012             0.00547435869            0.000600981856           
       0.363691             0.00581178169            0.000607009511           
       0.364370              0.0046893023            0.000552013224           
       0.365050             0.00481098594            0.000556137585           
       0.365729             0.00537626161            0.000593508289           
       0.366408             0.00612617116            0.000634953186           
       0.367087             0.00446517769            0.000533389547           
       0.367766             0.00558985608            0.000609230117           
       0.368445             0.00544031778             0.00059035494           
       0.369124             0.00540020316            0.000592794923           
       0.369804             0.00473315159             0.00055408853           
       0.370483             0.00471842813             0.00055564664           
       0.371162             0.00503455138            0.000577286026           
       0.371841             0.00517104074            0.000574858144           
       0.372520             0.00520199287            0.000588133279           
       0.373199             0.00441317103            0.000535237259           
       0.373879             0.00604517386            0.000633686813           
       0.374558             0.00477900858            0.000555207226           
       0.375237             0.00478447389            0.000556435262           
       0.375916             0.00396833854            0.000516467684           
       0.376595             0.00497756778            0.000567120385           
       0.377274             0.00501613502            0.000578426204           
       0.377954             0.00490875635            0.000563212901           
       0.378633             0.00404189741            0.000517527465           
       0.379312             0.00491258368             0.00057040863           
       0.379991             0.00373823664             0.00049500643           
       0.380670             0.00449046614            0.000552118313           
       0.381349              0.0046928816            0.000556320793           
       0.382029             0.00435627809            0.000543678072           
       0.382708             0.00467496079            0.000550914338           
       0.383387             0.00456271632            0.000556594697           
       0.384066              0.0047288099             0.00056143571           
       0.384745             0.00485251181            0.000570967388           
       0.385424             0.00481881995            0.000570914273           
       0.386104             0.00444330321            0.000542159933           
       0.386783             0.00410216327            0.000532199547           
       0.387462             0.00446301185            0.000541304322           
       0.388141             0.00461991689            0.000559533589           
       0.388820             0.00460712249            0.000554719175           
       0.389499             0.00615215432            0.000644629122           
       0.390178             0.00574861317            0.000625610276           
       0.390858             0.00382616763            0.000506262613           
       0.391537             0.00377323353             0.00050788212           
       0.392216             0.00487212054            0.000569884917           
       0.392895             0.00410235692             0.00052469328           
       0.393574             0.00553734277            0.000608081283           
       0.394253             0.00391969138            0.000513909044           
       0.394933             0.00305950905            0.000459220047           
       0.395612             0.00421159464            0.000523137994           
       0.396291             0.00359690901            0.000493299383           
       0.396970             0.00412199705            0.000523401212           
       0.397649             0.00348005254            0.000482401735           
       0.398328             0.00424524992            0.000530462186           
       0.399008             0.00456728667            0.000549018607           
       0.399687             0.00500010402            0.000576677661           
       0.400366             0.00390103941            0.000507422248           
       0.401045             0.00401546071            0.000513836706           
       0.401724             0.00376991917             0.00049870965           
       0.402403             0.00336438356            0.000474795182           
       0.403083             0.00403507384            0.000512473414           
       0.403762             0.00289827792            0.000436467512           
       0.404441             0.00426587838            0.000532897161           
       0.405120             0.00384238975            0.000504096146           
       0.405799             0.00512073481            0.000579412678           
       0.406478             0.00334591929             0.00046837153           
       0.407158             0.00305876154             0.00044698169           
       0.407837             0.00358745575            0.000488344868           
       0.408516             0.00420094999            0.000523856656           
       0.409195             0.00400845984            0.000517519071           
       0.409874             0.00411249972            0.000531485376           
       0.410553             0.00437879184            0.000554321155           
       0.411233             0.00312633556            0.000465957086           
       0.411912             0.00382294445             0.00052256162           
       0.412591             0.00393385827            0.000533596146           
       0.413270             0.00359838729            0.000507912759           
       0.413949             0.00333053679             0.00049398067           
       0.414628             0.00339250601            0.000497659957           
       0.415307             0.00288505147            0.000464037824           
       0.415987             0.00473207349            0.000589398036           
       0.416666             0.00294170624            0.000461914656           
       0.417345             0.00243467784            0.000427243384           
       0.418024             0.00348966914            0.000511514306           
       0.418703             0.00311088924            0.000482069163           
       0.419382              0.0031474852            0.000482520185           
       0.420062             0.00302022096            0.000473988813           
       0.420741             0.00396615177            0.000546055609           
       0.421420             0.00264232209            0.000447392843           
       0.422099             0.00247682375            0.000433166632           
       0.422778             0.00319504307            0.000494642348           
       0.423457             0.00277777004            0.000464035479           
       0.424137             0.00237471916            0.000422059142           
       0.424816             0.00234031333            0.000427747106           
       0.425495             0.00302512863            0.000485859789           
       0.426174             0.00325543915            0.000504191902           
       0.426853             0.00221683875            0.000413534804           
       0.427532             0.00344550742            0.000519909805           
       0.428212             0.00317655453            0.000502501099           
       0.428891             0.00188494243            0.000386205965           
       0.429570             0.00260709923            0.000454512211           
       0.430249             0.00264782188            0.000455670011           
       0.430928             0.00277486273             0.00047667387           
       0.431607             0.00204912098            0.000402584759           
       0.432287             0.00304234793            0.000494136738           
       0.432966             0.00220890437             0.00042475111           
       0.433645             0.00211470657            0.000416029774           
       0.434324             0.00233912555            0.000434910914           
       0.435003             0.00153662308            0.000353100507           
       0.435682             0.00239404173            0.000444352789           
       0.436361             0.00313526989            0.000507829457           
       0.437041             0.00172398142            0.000376068316           
       0.437720             0.00232194172            0.000438546702           
       0.438399             0.00310677613             0.00050992412           
       0.439078             0.00207210458            0.000428519882           
       0.439757             0.00247597031            0.000465536922           
       0.440436             0.00250611989            0.000478918033           
       0.441116             0.00306318852            0.000538135036           
       0.441795             0.00251933848            0.000488619265           
       0.442474             0.00253537611            0.000491538838           
       0.443153             0.00257158419            0.000506585272           
       0.443832             0.00187673792            0.000433496327           
       0.444511             0.00255041746            0.000503069479           
       0.445191             0.00289739194            0.000549241023           
       0.445870             0.00217171091            0.000475523747           
       0.446549             0.00264287494            0.000530109034           
       0.447228             0.00198016182            0.000456264053           
       0.447907             0.00247588748            0.000516311259           
       0.448586             0.00204918006            0.000481018809           
       0.449266             0.00243537688            0.000519567361           
       0.449945             0.00165320181            0.000426330764           
       0.450624              0.0025763941            0.000540670228           
       0.451303             0.00224357587            0.000511081504           
       0.451982             0.00266550414            0.000553625857           
       0.452661             0.00193466593            0.000480447763           
       0.453341             0.00195978452            0.000485251226           
       0.454020             0.00232381143            0.000529205365           
       0.454699             0.00248380119            0.000552116497           
       0.455378             0.00188120335            0.000480754303           
       0.456057             0.00195992384            0.000499437038           
       0.456736             0.00106609168            0.000367199461           
       0.457416             0.00130680075            0.000406557312           
       0.458095            0.000973745211            0.000356024459           
       0.458774             0.00140450465            0.000433232158           
       0.459453            0.000756802036            0.000319620845           
       0.460132            0.000707715657            0.000302406792           
       0.460811             0.00133649936            0.000431077057           
       0.461490             0.00145056445            0.000444528343           
       0.462170             0.00204835921            0.000536486751           
       0.462849             0.00179854743            0.000505969791           
       0.463528             0.00277675856             0.00062722654           
       0.464207              0.0017215701            0.000503116738           
       0.464886             0.00111726244             0.00040215093           
       0.465565             0.00144312323            0.000462070192           
       0.466245             0.00174876081            0.000510231218           
       0.466924             0.00107761754            0.000409990409           
       0.467603             0.00100477087            0.000387493159           
       0.468282             0.00138285672            0.000465368927           
       0.468961             0.00189440338            0.000548262692           
       0.469640             0.00143540072            0.000479146301           
       0.470320             0.00224793182            0.000600030319           
       0.470999            0.000973577009            0.000398605993           
       0.471678              0.0014946121            0.000498628902           
       0.472357             0.00101505144            0.000412067121           
       0.473036             0.00136347443             0.00048059598           
       0.473715             0.00121763163            0.000457718847           
       0.474395            0.000911027821            0.000401392139           
       0.475074            0.000559960685            0.000314698346           
       0.475753             0.00123363524            0.000463068673           
       0.476432            0.000407000284            0.000275663506           
       0.477111            0.000768995184            0.000374334502           
       0.477790             0.00132796444            0.000494544663           
       0.478470            0.000616975698            0.000341548146           
       0.479149             0.00195793286            0.000614731896           
       0.479828             0.00194305927            0.000610950896           
       0.480507            0.000259654589            0.000225137913           
       0.481186            8.55263002e-05             0.00013212402           
       0.481865             0.00125311004            0.000499476406           
       0.482545             0.00168684239            0.000586312629           
       0.483224            0.000892819947            0.000429468573           
       0.483903              0.0005194226            0.000332734192           
       0.484582            0.000113934508            0.000158369038           
       0.485261            8.80033952e-05            0.000135658626           
       0.485940            0.000345420593            0.000279606558           
       0.486619            0.000118604059             0.00016203886           
       0.487299            0.000358920887             0.00028637664           
       0.487978           -0.000323508147                         0           
       0.488657           -8.55403786e-05                         0           
       0.489336            0.000846711489            0.000445387418           
       0.490015           -0.000323566824                         0           
       0.490694            -0.00032358643                         0           
       0.491374           -7.59181939e-05                         0           
       0.492053           -0.000323625643                         0           
       0.492732           -0.000323645214                         0           
       0.493411            0.000194448903            0.000224135688           
       0.494090           -0.000323684993                         0           
       0.494769           -0.000323704562                         0           
       0.495449           -0.000323724407                         0           
       0.496128           -0.000323744313                         0           
       0.496807           -3.84390931e-05                         0           
       0.497486           -5.44682299e-05                         0           
       0.498165            0.000538467092             0.00039328852           
       0.498844           -0.000323823875                         0           
       0.499524            -0.00032384382                         0           
       0.500203           -3.18344415e-05                         0           
       0.500882           -0.000323883943                         0           
       0.501561           -1.38728309e-05                         0           
       0.502240            0.000274812164             0.00028720744           
       0.502919           -1.62245587e-07                         0           
       0.503599           -2.02156777e-05                         0           
       0.504278           -0.000323984807                         0           
       0.504957           -2.06486739e-06                         0           
       0.505636           -0.000324025127                         0           
       0.506315           -0.000324045553                         0           
       0.506994           -0.000324065614                         0           
       0.507673           -0.000324085634                         0           
       0.508353           -0.000324106077                         0           
       0.509032           -0.000324126432                         0           
       0.509711           -0.000324146795                         0           
       0.510390           -0.000324167478                         0           
       0.511069           -0.000324188093                         0           
       0.511748           -0.000324208624                         0           
       0.512428           -0.000324229303                         0           
       0.513107           -0.000324249662                         0           
       0.513786           -0.000324270086                         0           
       0.514465           -0.000324290858                         0           
       0.515144           -0.000324311616                         0           
       0.515823            8.02669323e-05            0.000180239311           
       0.516503             0.00052053248            0.000470930915           
       0.517182           -0.000324373706                         0           
       0.517861           -0.000324394416                         0           
       0.518540           -0.000324415242                         0           
       0.519219            0.000112442502            0.000222848737           
       0.519898           -0.000324456862                         0           
       0.520578           -0.000324477903                         0           
       0.521257           -0.000324498672                         0           
       0.521936           -0.000324519491                         0           
       0.522615           -0.000324540559                         0           
       0.523294           -0.000324561705                         0           
       0.523973            0.000165196513            0.000285655286           
       0.524653            0.000718799447            0.000614923525           
       0.525332           -0.000324624268                         0           
       0.526011           -0.000324645651                         0           
       0.526690           -0.000324666993                         0           
       0.527369           -0.000324688159                         0           
       0.528048           -0.000324709475                         0           
       0.528728           -0.000324730767                         0           
       0.529407           -0.000324751959                         0           
       0.530086           -0.000324773043                         0           
       0.530765           -0.000324794157                         0           
       0.531444            0.000203688343            0.000327447937           
       0.532123           -0.000324837217                         0           
       0.532802           -0.000324858758                         0           
       0.533482            0.000852901905            0.000709617573           
       0.534161           -0.000324901729                         0           
       0.534840           -0.000324923047                         0           
       0.535519            -0.00032494476                         0           
       0.536198           -0.000324966249                         0           
       0.536877           -0.000324987441                         0           
       0.537557            0.000259050665            0.000389273796           
       0.538236           -0.000325030748                         0           
       0.538915           -0.000325052491                         0           
       0.539594           -0.000325074205                         0           
       0.540273            0.000308991876            0.000440276435           
       0.540952           -0.000325118066                         0           
       0.541632           -0.000325139475                         0           
       0.542311            0.000326926819            0.000460089602           
       0.542990           -0.000325182927                         0           
       0.543669           -0.000325204957                         0           
       0.544348            0.000432456883            0.000570103832           
       0.545027           -0.000325248917                         0           
       0.545707            -0.00032527094                         0           
       0.546386           -0.000325293024                         0           
       0.547065           -0.000325314843                         0           
       0.547744           -0.000325336762                         0           
       0.548423            0.000402367615            0.000540113483           
       0.549102           -0.000325381104                         0           
       0.549782           -0.000325403175                         0           
       0.550461           -0.000325425508                         0           
       0.551140           -0.000325447975                         0           
       0.551819             0.00136362572             0.00107790867           
       0.552498           -0.000325492568                         0           
       0.553177           -0.000325514575                         0           
       0.553856           -0.000325536661                         0           
       0.554536            -0.00032555882                         0           
       0.555215           -0.000325581317                         0           
       0.555894            -0.00032560376                         0           
       0.556573           -0.000325626337                         0           
       0.557252           -0.000325648895                         0           
       0.557931           -0.000325671351                         0           
       0.558611             0.00158987695             0.00124036178           
       0.559290            0.000667818221             0.00081366081           
       0.559969           -0.000325738574                         0           
       0.560648           -0.000325760999                         0           
       0.561327           -0.000325783923                         0           
       0.562006           -0.000325806741                         0           
       0.562686           -0.000325829572                         0           
       0.563365           -0.000325852487                         0           
       0.564044           -0.000325875287                         0           
       0.564723           -0.000325898036                         0           
       0.565402           -0.000325920361                         0           
       0.566081           -0.000325942835                         0           
       0.566761            -0.00032596555                         0           
       0.567440           -0.000325988728                         0           
       0.568119           -0.000326011721                         0           
       0.568798           -0.000326035039                         0           
       0.569477           -0.000326058206                         0           
       0.570156           -0.000326081486                         0           
       0.570836           -0.000326104679                         0           
       0.571515           -0.000326127381                         0           
       0.572194           -0.000326150741                         0           
       0.572873           -0.000326173567                         0           
       0.573552           -0.000326196258                         0           
       0.574231            -0.00032621941                         0           
       0.574911           -0.000326243145                         0           
       0.575590             0.00141452527             0.00155994455           
       0.576269            -0.00032628963                         0           
       0.576948           -0.000326313283                         0           
       0.577627           -0.000326336215                         0           
       0.578306            -0.00032635947                         0           
       0.578985           -0.000326382924                         0           
       0.579665           -0.000326406243                         0           
       0.580344           -0.000326429915                         0           
       0.581023           -0.000326453561                         0           
       0.581702           -0.000326476989                         0           
       0.582381           -0.000326500203                         0           
       0.583060           -0.000326524111                         0           
       0.583740           -0.000326547642                         0           
       0.584419           -0.000326571252                         0           
       0.585098           -0.000326594834                         0           
       0.585777           -0.000326618599                         0           
       0.586456           -0.000326642751                         0           
       0.587135           -0.000326666261                         0           
       0.587815           -0.000326689517                         0           
       0.588494           -0.000326713498                         0           
       0.589173           -0.000326738029                         0           
       0.589852           -0.000326761257                         0           
       0.590531           -0.000326785361                         0           
       0.591210           -0.000326808908                         0           
       0.591890            -0.00032683291                         0           
       0.592569            -0.00032685611                         0           
       0.593248           -0.000326881474                         0           
       0.593927           -0.000326905588                         0           
       0.594606           -0.000326930199                         0           
       0.595285           -0.000326953344                         0           
       0.595965           -0.000326974941                         0           
       0.596644           -0.000326997166                         0           
