################################################################################
# EDF_DataBlockID                     0.Image.Psd
# EDF_BinarySize                      2105344
# EDF_HeaderSize                      2560
# ByteOrder                           LowByteFirst
# DataType                            FloatValue
# Dim_1                               512
# Dim_2                               1028
# Image                               0
# HeaderID                            EH:000000:000000:000000
# Size                                2105344
# Center_1                            304.9000
# Center_2                            588.7000
# Comment                             Xenocs_Cell_Window - 20251028_20perc_iodine_1.23mg
# DDummy                              0.6
# Date                                2025-10-30T00:27:55
# Delta                               21.910000
# Dummy                               -1.5
# ExposureTime                        360
# Gamma                               15.360000
# Intensity1                          8.45906e-10
# PSize_1                             7.5e-05
# PSize_2                             7.5e-05
# Pressure                            0.0326519
# SampleDistance                      0.115750
# SampleEnvKind                       large
# SampleEnvPN                         ElectroChemical cell
# SampleEnvSN                         1141
# Thickness                           0
# Wavelength                          1.541891e-10
# Wavelength                          1.54189e-10
# aux                                 0
# aux_dial                            0.002375
# beamx                               588.434
# beamx_dial                          588.434
# beamz                               657.808
# beamz_dial                          657.808
# det0x                               0
# det0x_dial                          6.36945
# det0xvd                             0
# det0xvd_dial                        0
# det0y                               450.002
# det0y_dial                          481.635
# det0z                               0
# det0z_dial                          1.23302
# det0zvd                             0
# det0zvd_dial                        0
# mag                                 1.818
# mag_dial                            1.818
# om                                  0.2499
# om_dial                             -0.610199
# phi                                 -0.0120535
# phi_dial                            0
# ry                                  0.599993
# ry_dial                             0.599993
# s1bot                               0.8
# s1bot_dial                          -1.66094
# s1hl                                0.8
# s1hl_dial                           -0.608437
# s1hr                                0.8
# s1hr_dial                           0.970938
# s1top                               0.8
# s1top_dial                          -0.461562
# s2bot                               0.45
# s2bot_dial                          1.36109
# s2hl                                0.45
# s2hl_dial                           -0.83375
# s2hr                                0.45
# s2hr_dial                           -0.118594
# s2top                               0.45
# s2top_dial                          1.44734
# w2theta                             32
# w2theta_dial                        32
# waxsch                              19.2605
# waxsch_dial                         -32.7355
# waxsh                               137.085
# waxsh_dial                          -43.5338
# waxsth                              26.0607
# waxsth_dial                         -19.4086
# waxsz                               67.0407
# waxsz_dial                          -23.7954
# wind                                65.9854
# wind_dial                           66.0041
# wpsi                                124
# wpsi_dial                           124
# wstod                               115
# wstod_dial                          115
# x                                   0
# x_dial                              1.00969
# z                                   0
# z_dial                              13.3172
# CountCutoff                         6807993
# DetectorModel                       Dectris EIGER2 Si 500K, S/N E-01-0554
# ThresholdSetting                    4023.88989258
# Saturation                          0
# FlatField                           Corrected
# BackgroundReductionExtra            0.02
# BackgroundCorrectionConstant        0.0026712
# Detector                            0
# Monitor                             0
# Pil_Roi0                            0
# SumForIntensity1                    3.04526e+08
# TransmittedFlux                     845906
# det                                 0
# mon                                 0
# pilai0                              3.04526e+08
# pilai1                              769873
# pilct0                              5.27598e+08
# pilct1                              769873
# pilroi0                             0
# pilroi1                             0
# sec                                 1
# title                               20251028_20perc_iodine_1.23mg_1_00310.edf
# usaxs0                              0
# Operation                           Azimuthal average I(q)
# Error_model                         ErrorModel.poisson
# Geometrical_correction              True
# Transmission_correction             True
# Thickness_correction                False
# Binning mode                        Uniform
# Binning factor                      1.0
# Psi                                 0.0
# Omega                               0.2499
# MaskInvalidPixels                   True
# DetectorEdge                        3
# MaskFiles                           ['WAXS_corrected.edf']
################################################################################
    q(A⁻¹)                Intensity(a.u.)            Sigma_I(a.u.)            
       0.693100           -2.40017245e-05                         0           
       0.695741             0.00568464191             0.00412393955           
       0.698381             0.00855842763             0.00619827133           
       0.701021               0.017845942              0.0126530585           
       0.703662             0.00282617439             0.00290646246           
       0.706302             0.00869510323              0.0039469331           
       0.708942              0.0144043269             0.00655676976           
       0.711583             0.00661691925             0.00384819579           
       0.714223             0.00296087108              0.0029719323           
       0.716864             0.00765173787             0.00312593532           
       0.719504             0.00890885968             0.00363981123           
       0.722144              0.0101725772             0.00360188727           
       0.724785             0.00802321686             0.00255164521           
       0.727425             0.00894165404             0.00364413957           
       0.730065             0.00880110679             0.00255738394           
       0.732706             0.00671689928             0.00187611929           
       0.735346             0.00619034526             0.00234778098           
       0.737987             0.00570699787             0.00159294606           
       0.740627             0.00389727381             0.00196410254           
       0.743267             0.00930710288             0.00203298004           
       0.745908             0.00943720479             0.00222103945           
       0.748548              0.0066593761             0.00171975186           
       0.751189             0.00889521156             0.00267820419           
       0.753829              0.0102683718             0.00264509603           
       0.756469             0.00529993565             0.00153235467           
       0.759110             0.00634159901             0.00176641979           
       0.761750             0.00692857366             0.00163258994           
       0.764390              0.0049733106             0.00144771626           
       0.767031              0.0056591987             0.00133732602           
       0.769671              0.0083591316             0.00202747283           
       0.772312             0.00595469059               0.001302733           
       0.774952             0.00832343692             0.00207987328           
       0.777592             0.00852943692             0.00153356752           
       0.780233             0.00960970536             0.00196390976           
       0.782873               0.006601684             0.00155681314           
       0.785513             0.00712837246             0.00172945031           
       0.788154              0.0073295884             0.00146702178           
       0.790794             0.00753925209             0.00177877057           
       0.793435              0.0081351591             0.00165992722           
       0.796075             0.00849984836             0.00163447308           
       0.798715             0.00742440458             0.00180516017           
       0.801356              0.0103482925              0.0018342359           
       0.803996             0.00941081476             0.00178331134           
       0.806637             0.00554839246             0.00108970606           
       0.809277             0.00727753303             0.00135082536           
       0.811917             0.00679765314               0.001220462           
       0.814558             0.00705152311             0.00129192138           
       0.817198             0.00746837028             0.00126314317           
       0.819838             0.00768076263             0.00129644484           
       0.822479             0.00392574585             0.00108838378           
       0.825119             0.00722364032             0.00125658754           
       0.827760             0.00517191082               0.001077043           
       0.830400              0.0069102948             0.00117173936           
       0.833040             0.00891696807             0.00139452081           
       0.835681              0.0064991743             0.00135344488           
       0.838321             0.00615201201             0.00110523286           
       0.840961             0.00588329682             0.00117761023           
       0.843602             0.00649042258             0.00113426977           
       0.846242             0.00811378068              0.0012680218           
       0.848883             0.00809249749              0.0012959348           
       0.851523             0.00666942969             0.00116187039           
       0.854163             0.00845931025             0.00139155374           
       0.856804             0.00701427564             0.00113933085           
       0.859444             0.00601784871             0.00103399757           
       0.862085             0.00733949637             0.00119015644           
       0.864725             0.00728097003             0.00121313629           
       0.867365             0.00749281243             0.00114117776           
       0.870006             0.00772638041             0.00110427387           
       0.872646             0.00763970361             0.00115147036           
       0.875286             0.00609841759            0.000989751332           
       0.877927              0.0101756746             0.00123368831           
       0.880567             0.00675318171             0.00104122919           
       0.883208             0.00787083934             0.00111350406           
       0.885848             0.00932790625             0.00125862572           
       0.888488             0.00923545844              0.0011746487           
       0.891129             0.00628260708            0.000994788849           
       0.893769             0.00778652292             0.00105987948           
       0.896410             0.00849960336             0.00103243613           
       0.899050             0.00562254016            0.000923454454           
       0.901690             0.00738269363             0.00115265773           
       0.904331             0.00750682177             0.00103044948           
       0.906971             0.00863196193             0.00117551399           
       0.909611             0.00716958618            0.000975246056           
       0.912252              0.0073429057             0.00101942974           
       0.914892             0.00877905642             0.00121809931           
       0.917533              0.0066306263             0.00100144133           
       0.920173             0.00533323598            0.000833296568           
       0.922813             0.00758688263             0.00104296972           
       0.925454             0.00721241537            0.000915694931           
       0.928094              0.0091155968             0.00109901896           
       0.930734             0.00735563706             0.00106287312           
       0.933375             0.00661947927            0.000998372661           
       0.936015              0.0101555811              0.0011231074           
       0.938656             0.00644401783            0.000959735014           
       0.941296             0.00750813676            0.000938856534           
       0.943936             0.00767687396            0.000930982675           
       0.946577             0.00722349829            0.000897103305           
       0.949217             0.00752766234            0.000842157466           
       0.951858             0.00826098142            0.000923512865           
       0.954498             0.00651157251            0.000949039834           
       0.957138              0.0106916271             0.00115207269           
       0.959779             0.00663294951            0.000894535751           
       0.962419             0.00748681689            0.000944048983           
       0.965059             0.00736735187            0.000984939013           
       0.967700             0.00937917502             0.00113820388           
       0.970340             0.00843031027            0.000954891933           
       0.972981             0.00779751718             0.00083670956           
       0.975621             0.00773182587            0.000886357416           
       0.978261             0.00677787324            0.000788530618           
       0.980902             0.00782920629             0.00101397047           
       0.983542             0.00875052003            0.000949300907           
       0.986182             0.00815534775            0.000899763802           
       0.988823              0.0075850113            0.000842568844           
       0.991463             0.00820652417             0.00093503713           
       0.994104             0.00800053341             0.00090062258           
       0.996744             0.00888760269            0.000968216417           
       0.999384             0.00853029821            0.000848324925           
       1.002025             0.00735625354            0.000879273672           
       1.004665             0.00789537484            0.000832471746           
       1.007306             0.00770371984            0.000818096808           
       1.009946             0.00851099416            0.000876970941           
       1.012586             0.00675791698            0.000761086782           
       1.015227              0.0077179548            0.000873795346           
       1.017867             0.00648510405            0.000769789043           
       1.020507             0.00859329839            0.000858328942           
       1.023148             0.00847755612            0.000919902072           
       1.025788             0.00846514539             0.00084286003           
       1.028429             0.00840029994            0.000879645849           
       1.031069              0.0075941595            0.000787059712           
       1.033709             0.00816298826            0.000867414509           
       1.036350             0.00667941505            0.000704715394           
       1.038990             0.00870723384            0.000819394353           
       1.041630             0.00956264441            0.000895633609           
       1.044271             0.00779510081            0.000760491342           
       1.046911             0.00664738558            0.000738704467           
       1.049552             0.00760010545            0.000829857657           
       1.052192             0.00741087716            0.000748272312           
       1.054832             0.00900307784            0.000832248885           
       1.057473               0.007181571            0.000732742465           
       1.060113             0.00753863076            0.000732172797           
       1.062754             0.00934198119            0.000832156652           
       1.065394               0.007698835            0.000798691913           
       1.068034              0.0082269351            0.000751210696           
       1.070675             0.00769839241            0.000758015721           
       1.073315             0.00751073029            0.000759451634           
       1.075955             0.00916400907            0.000791954237           
       1.078596             0.00872299176            0.000821187381           
       1.081236             0.00815167411            0.000760153541           
       1.083877              0.0105260458            0.000856045938           
       1.086517             0.00686317857            0.000741208551           
       1.089157             0.00793582487            0.000827006281           
       1.091798             0.00819871669            0.000736961637           
       1.094438             0.00770519237            0.000712130692           
       1.097078             0.00776052505            0.000685456086           
       1.099719             0.00855639377            0.000778515711           
       1.102359             0.00958222171            0.000771557747           
       1.105000             0.00816867779            0.000796578739           
       1.107640             0.00958368147            0.000824993963           
       1.110280             0.00903573334            0.000730908244           
       1.112921             0.00900875757            0.000783980598           
       1.115561               0.009631885              0.0007704463           
       1.118202             0.00915289138            0.000751752556           
       1.120842             0.00934713698            0.000798436633           
       1.123482              0.0087148815            0.000767592823           
       1.126123             0.00732979903            0.000675212809           
       1.128763             0.00851289348            0.000732657058           
       1.131403             0.00843003394            0.000702533636           
       1.134044             0.00886824048            0.000741459774           
       1.136684             0.00845513016            0.000771892558           
       1.139325             0.00932219179            0.000746636334           
       1.141965             0.00932462803            0.000751670461           
       1.144605             0.00753589521            0.000644319381           
       1.147246             0.00760354359            0.000662358222           
       1.149886             0.00745150382            0.000653374847           
       1.152527             0.00884084983            0.000722033728           
       1.155167             0.00993673963            0.000728085698           
       1.157807             0.00907046809            0.000745834303           
       1.160448             0.00866725192            0.000711953857           
       1.163088             0.00886320497            0.000686732994           
       1.165728             0.00879066908            0.000702190648           
       1.168369             0.00907411563            0.000720012567           
       1.171009             0.00825842296            0.000666607021           
       1.173650             0.00899170261            0.000713823046           
       1.176290               0.010119105             0.00074000545           
       1.178930             0.00919939251            0.000691528148           
       1.181571             0.00929772715            0.000709000633           
       1.184211             0.00999948117            0.000737877146           
       1.186851             0.00978784286            0.000713736708           
       1.189492             0.00986360281            0.000711673394           
       1.192132             0.00946800411            0.000689432618           
       1.194773             0.00936728569            0.000688752047           
       1.197413             0.00995197041            0.000680205665           
       1.200053             0.00889238626            0.000659313196           
       1.202694              0.0100803457            0.000667536019           
       1.205334             0.00937608685            0.000693809836           
       1.207975             0.00928454724            0.000659020268           
       1.210615              0.0101769727            0.000761149765           
       1.213255             0.00916834635            0.000646935145           
       1.215896              0.0094061603            0.000667144586           
       1.218536              0.0090232448            0.000628295236           
       1.221176              0.0111733513             0.00076012608           
       1.223817              0.0105544915            0.000693501223           
       1.226457             0.00930094103            0.000664132098           
       1.229098              0.0104819666            0.000705003465           
       1.231738              0.0103501755            0.000704005289           
       1.234378              0.0098430959            0.000645110599           
       1.237019              0.0087805593            0.000627875325           
       1.239659             0.00975064858             0.00065588751           
       1.242299             0.00977208445            0.000648265775           
       1.244940             0.00957139328            0.000623971389           
       1.247580              0.0105831522            0.000676187397           
       1.250221             0.00976160419            0.000645404654           
       1.252861             0.00916369078            0.000595313663           
       1.255501              0.0101688257            0.000680925223           
       1.258142             0.00916987223            0.000607610646           
       1.260782              0.0115820269            0.000697642194           
       1.263423              0.0104352384            0.000636302912           
       1.266063             0.00964363525            0.000626967217           
       1.268703              0.0110956389            0.000666932324           
       1.271344              0.0108494978            0.000681844069           
       1.273984              0.0100617217            0.000634168737           
       1.276624              0.0103710844            0.000631748561           
       1.279265             0.00972568347            0.000621935222           
       1.281905              0.0109380212             0.00066248747           
       1.284546             0.00989216344            0.000608970893           
       1.287186              0.0117659095            0.000651597825           
       1.289826              0.0107033029            0.000654986959           
       1.292467              0.0109306097            0.000647326412           
       1.295107             0.00979681156            0.000606747275           
       1.297747              0.0100363491            0.000587661964           
       1.300388              0.0118425913            0.000695888832           
       1.303028              0.0120755267            0.000670838951           
       1.305669              0.0109732897            0.000654716685           
       1.308309              0.0112570219            0.000656596804           
       1.310949               0.011985403            0.000676825416           
       1.313590              0.0113967407            0.000639364337           
       1.316230             0.00981866828            0.000633293897           
       1.318871              0.0100540478            0.000627623909           
       1.321511              0.0108362799            0.000639504797           
       1.324151              0.0105455398            0.000612164531           
       1.326792              0.0119112992             0.00065462116           
       1.329432              0.0105403395            0.000611451728           
       1.332072              0.0112986693            0.000623630713           
       1.334713              0.0111290229            0.000638798408           
       1.337353              0.0119225124            0.000634084063           
       1.339994               0.010253022            0.000617063855           
       1.342634               0.010606809            0.000601847837           
       1.345274              0.0108022263            0.000628567441           
       1.347915              0.0119938625             0.00064404036           
       1.350555              0.0110933013            0.000630237559           
       1.353195               0.011284313            0.000638762268           
       1.355836              0.0108264966            0.000615914323           
       1.358476              0.0113369694            0.000612085301           
       1.361117              0.0124256684            0.000641680815           
       1.363757              0.0107878885            0.000616154969           
       1.366397              0.0125696005            0.000644966617           
       1.369038              0.0112812891            0.000617104687           
       1.371678              0.0106369699            0.000593940178           
       1.374319              0.0110791874            0.000600941021           
       1.376959              0.0119663382            0.000618256831           
       1.379599              0.0111793586            0.000640425797           
       1.382240               0.012248982            0.000630041078           
       1.384880              0.0110734341            0.000634525622           
       1.387520              0.0118801988            0.000624195168           
       1.390161              0.0115205913            0.000583794105           
       1.392801              0.0118958438            0.000618083661           
       1.395442              0.0103927023            0.000585605584           
       1.398082              0.0111355317            0.000567654413           
       1.400722              0.0119339106            0.000615551566           
       1.403363              0.0104039904            0.000604985907           
       1.406003              0.0112967096            0.000589976606           
       1.408644              0.0111439502             0.00061384593           
       1.411284              0.0113231342            0.000585912029           
       1.413924              0.0116588296            0.000592329727           
       1.416565              0.0113863573            0.000583067906           
       1.419205              0.0123240709            0.000632782665           
       1.421845              0.0114081581            0.000608457378           
       1.424486              0.0111450101            0.000578082582           
       1.427126              0.0115741364            0.000611967917           
       1.429767              0.0107515557            0.000554949583           
       1.432407              0.0100942798            0.000562735705           
       1.435047              0.0106559266            0.000543006169           
       1.437688              0.0106419141            0.000550762581           
       1.440328              0.0111866665             0.00057632263           
       1.442968                0.01144174            0.000595915348           
       1.445609              0.0107832823            0.000560162174           
       1.448249              0.0112211106             0.00058588902           
       1.450890               0.011041092            0.000577377075           
       1.453530              0.0108161099            0.000597866546           
       1.456170              0.0110391716            0.000586196183           
       1.458811              0.0115666213            0.000573768103           
       1.461451               0.011486683              0.0005732819           
       1.464092               0.010944823            0.000563255423           
       1.466732              0.0112323808            0.000565703401           
       1.469372              0.0102895101             0.00052876851           
       1.472013              0.0101744899               0.000567091           
       1.474653              0.0116878862            0.000598429045           
       1.477293              0.0113810812            0.000602968728           
       1.479934              0.0101798252            0.000544147519           
       1.482574              0.0116144403            0.000562246125           
       1.485215              0.0105761397            0.000546519103           
       1.487855              0.0114808788            0.000576927081           
       1.490495              0.0125121398            0.000600062839           
       1.493136              0.0103972151            0.000539504976           
       1.495776               0.011864079            0.000573682964           
       1.498416              0.0106863684            0.000562278402           
       1.501057              0.0100590378            0.000533502306           
       1.503697              0.0109231163            0.000543524326           
       1.506338              0.0113940502            0.000565261251           
       1.508978              0.0097530285            0.000517830677           
       1.511618              0.0106925127            0.000577438233           
       1.514259             0.00983347157             0.00053462626           
       1.516899              0.0106476875             0.00054167105           
       1.519540             0.00969889767            0.000525311152           
       1.522180              0.0103604392            0.000547700214           
       1.524820              0.0109277328            0.000559339391           
       1.527461             0.00956751076             0.00052595966           
       1.530101               0.010712871             0.00055098607           
       1.532741              0.0103345772            0.000538029789           
       1.535382              0.0105606724            0.000552639188           
       1.538022              0.0110212026            0.000531845751           
       1.540663             0.00940170177            0.000528335492           
       1.543303             0.00992431861            0.000504018456           
       1.545943              0.0101519478            0.000539549562           
       1.548584             0.00977913587            0.000539055657           
       1.551224              0.0100363767            0.000504920673           
       1.553864              0.0106745803            0.000550245358           
       1.556505              0.0109649233            0.000538731722           
       1.559145              0.0100944611            0.000523237741           
       1.561786              0.0093872604            0.000504964993           
       1.564426              0.0103276306            0.000513179492           
       1.567066              0.0104424634            0.000540694727           
       1.569707             0.00930229631            0.000501156683           
       1.572347             0.00946963813            0.000522381134           
       1.574988              0.0106307142            0.000526820259           
       1.577628             0.00941462736            0.000516968928           
       1.580268              0.0101129455            0.000519131937           
       1.582909              0.0101170572            0.000550371061           
       1.585549              0.0103406795            0.000540266402           
       1.588189             0.00930774626            0.000501385857           
       1.590830              0.0099472788            0.000517674208           
       1.593470             0.00977604755            0.000533519855           
       1.596111             0.00981037562            0.000521794841           
       1.598751             0.00906783619            0.000486090967           
       1.601391              0.0100439255            0.000522871563           
       1.604032             0.00866921986             0.00049592807           
       1.606672             0.00950654241            0.000504574408           
       1.609312             0.00970850672            0.000532282254           
       1.611953             0.00911195303            0.000504614821           
       1.614593             0.00895057703            0.000490584393           
       1.617234             0.00960558427            0.000526705388           
       1.619874             0.00965448239            0.000525958397           
       1.622514              0.0109200553            0.000551739554           
       1.625155              0.0091011225            0.000506672373           
       1.627795             0.00843614671            0.000475858993           
       1.630436             0.00849264697            0.000474956759           
       1.633076             0.00837077209            0.000477720868           
       1.635716             0.00893172279            0.000485790143           
       1.638357             0.00900730112            0.000489127014           
       1.640997             0.00884607813            0.000499413219           
       1.643637             0.00936259864            0.000499972361           
       1.646278             0.00858060294             0.00049367631           
       1.648918             0.00951349622            0.000521238605           
       1.651559             0.00986521708            0.000534906132           
       1.654199             0.00939685243            0.000507743405           
       1.656839             0.00892004634            0.000494866681           
       1.659480             0.00922553043            0.000522167875           
       1.662120             0.00928340836            0.000493336388           
       1.664761             0.00926294884            0.000511884169           
       1.667401             0.00865623918            0.000472957702           
       1.670041             0.00863091919            0.000479466464           
       1.672682              0.0084809447             0.00047332901           
       1.675322             0.00869114631            0.000476077654           
       1.677962             0.00861775577            0.000468833798           
       1.680603             0.00821972731            0.000459287797           
       1.683243             0.00848660514            0.000486898041           
       1.685884             0.00988956347            0.000529486529           
       1.688524             0.00954531985            0.000510134183           
       1.691164             0.00886105511            0.000491621044           
       1.693805             0.00928676909            0.000508820911           
       1.696445             0.00882551163             0.00049890116           
       1.699085             0.00863912871            0.000477065215           
       1.701726             0.00879688376            0.000463746059           
       1.704366             0.00866140748            0.000484767258           
       1.707007             0.00906724834            0.000484938178           
       1.709647             0.00911860151            0.000491801419           
       1.712287             0.00890462102            0.000490227001           
       1.714928             0.00872818721            0.000489259237           
       1.717568             0.00780706434            0.000435886701           
       1.720209             0.00910670328            0.000493100685           
       1.722849             0.00861410792            0.000477113445           
       1.725489             0.00878453266            0.000482214596           
       1.728130             0.00842643497            0.000501905228           
       1.730770             0.00870036961            0.000484361215           
       1.733410             0.00906768598            0.000486707269           
       1.736051             0.00836482361            0.000470717567           
       1.738691             0.00841745778            0.000462624169           
       1.741332             0.00869716779             0.00048399815           
       1.743972             0.00803377237            0.000480370162           
       1.746612             0.00855150668            0.000475909231           
       1.749253             0.00913667347            0.000501637377           
       1.751893             0.00873515602             0.00048689085           
       1.754533             0.00872096165            0.000486040768           
       1.757174             0.00939258189            0.000499685673           
       1.759814             0.00767970346            0.000444982737           
       1.762455             0.00929085874            0.000498426472           
       1.765095             0.00806605557            0.000444266892           
       1.767735             0.00840007783            0.000467358847           
       1.770376             0.00830934178            0.000466053247           
       1.773016             0.00829563866            0.000462549623           
       1.775657             0.00929306751            0.000482523719           
       1.778297             0.00845836772            0.000456379948           
       1.780937             0.00946660011            0.000509610511           
       1.783578             0.00949930065            0.000497725517           
       1.786218             0.00842709302            0.000489238887           
       1.788858             0.00830192321            0.000461195133           
       1.791499             0.00872975649            0.000467618085           
       1.794139             0.00901667549            0.000471384797           
       1.796780             0.00794726086            0.000440415231           
       1.799420             0.00988345192             0.00048842313           
       1.802060              0.0097077446            0.000487971998           
       1.804701              0.0087852162             0.00044547444           
       1.807341             0.00900578403            0.000473936498           
       1.809981             0.00927635751            0.000482607067           
       1.812622             0.00895298249            0.000465584871           
       1.815262             0.00957659653            0.000491755679           
       1.817903             0.00894628993              0.0004682548           
       1.820543              0.0090857648             0.00047924391           
       1.823183             0.00911405847            0.000479725655           
       1.825824             0.00948158881            0.000467459963           
       1.828464             0.00938609321            0.000484886807           
       1.831105             0.00866856894              0.0004531012           
       1.833745             0.00858928678            0.000460656938           
       1.836385             0.00845022308            0.000469952194           
       1.839026             0.00965967938            0.000500871876           
       1.841666              0.0085715602            0.000470145752           
       1.844306             0.00852002972            0.000455940873           
       1.846947             0.00753951518            0.000432663245           
       1.849587             0.00829106452            0.000501011699           
       1.852228             0.00878829029            0.000466425604           
       1.854868             0.00836910898            0.000480815543           
       1.857508             0.00917658789            0.000498538795           
       1.860149              0.0086193306            0.000491943019           
       1.862789             0.00877177236            0.000479019385           
       1.865429             0.00877018256            0.000499977633           
       1.868070             0.00910163898            0.000502549399           
       1.870710             0.00869791781            0.000479951005           
       1.873351             0.00892695465             0.00049223997           
       1.875991             0.00893823853            0.000500589508           
       1.878631             0.00836603405            0.000475025808           
       1.881272             0.00853112745            0.000476475878           
       1.883912             0.00942759574            0.000521275786           
       1.886553             0.00799854585            0.000474777173           
       1.889193             0.00820209247            0.000479958783           
       1.891833             0.00838300284            0.000503923056           
       1.894474             0.00935424448            0.000527679164           
       1.897114             0.00928010234            0.000508596473           
       1.899754             0.00890743643            0.000500364695           
       1.902395             0.00793213812            0.000462946012           
       1.905035             0.00859210785            0.000510328429           
       1.907676             0.00845624449             0.00047716808           
       1.910316             0.00923816927            0.000511984019           
       1.912956             0.00963476682            0.000511355406           
       1.915597              0.0083018213            0.000477319738           
       1.918237             0.00904800609             0.00051463244           
       1.920878             0.00923111876            0.000517685962           
       1.923518              0.0093030723            0.000519920147           
       1.926158             0.00834068304            0.000485905437           
       1.928799             0.00895898027            0.000497764408           
       1.931439             0.00820722543            0.000488919102           
       1.934079             0.00894782869            0.000532186028           
       1.936720             0.00825868328            0.000473717124           
       1.939360             0.00874899571            0.000520176152           
       1.942001             0.00825075683            0.000462993589           
       1.944641             0.00866602474            0.000483848623           
       1.947281             0.00771625025              0.0004523567           
       1.949922             0.00830675498            0.000484793409           
       1.952562             0.00854414794             0.00050708366           
       1.955202             0.00797651652            0.000489352891           
       1.957843             0.00939370787            0.000517276719           
       1.960483             0.00911219035            0.000532646747           
       1.963124             0.00839203394            0.000500678688           
       1.965764             0.00822911409            0.000467548454           
       1.968404             0.00878212636            0.000478439506           
       1.971045             0.00799397829            0.000465391346           
       1.973685             0.00862037931            0.000506926028           
       1.976326             0.00770559398            0.000472687634           
       1.978966             0.00814667346            0.000490293359           
       1.981606              0.0076296375            0.000484375471           
       1.984247             0.00779480466            0.000486371486           
       1.986887             0.00852925379            0.000502674963           
       1.989527              0.0087234482            0.000502890437           
       1.992168             0.00854797532            0.000516516851           
       1.994808             0.00847710381            0.000512166273           
       1.997449             0.00829580511            0.000496254822           
       2.000089             0.00804036729            0.000486617986           
       2.002729             0.00810910445            0.000488986595           
       2.005370             0.00807935531            0.000482837135           
       2.008010             0.00778961235            0.000494791625           
       2.010650             0.00749199045             0.00048886802           
       2.013291             0.00809478473               0.000487546           
       2.015931             0.00821714673            0.000487744727           
       2.018572              0.0081767856            0.000520406312           
       2.021212             0.00810804877            0.000508903725           
       2.023852             0.00838005125            0.000489665825           
       2.026493             0.00866247904            0.000520091755           
       2.029133             0.00904851625            0.000520857186           
       2.031774             0.00793347541            0.000511840871           
       2.034414             0.00695925494            0.000441100952           
       2.037054              0.0081668872            0.000489954381           
       2.039695             0.00770065587             0.00047217038           
       2.042335             0.00752690668            0.000485121417           
       2.044975             0.00832121147            0.000503890838           
       2.047616             0.00713113898            0.000465310096           
       2.050256             0.00813542783            0.000501699734           
       2.052897             0.00869788094            0.000528316245           
       2.055537             0.00748297363            0.000473597191           
       2.058177             0.00761834524             0.00046795558           
       2.060818             0.00791920034            0.000499805595           
       2.063458              0.0080424742            0.000524885294           
       2.066098             0.00796226787            0.000492667484           
       2.068739             0.00852191484            0.000517610219           
       2.071379              0.0072022499            0.000488258372           
       2.074020             0.00737257921            0.000483262203           
       2.076660             0.00810878199            0.000510913784           
       2.079300             0.00735861233            0.000498632502           
       2.081941             0.00819267776            0.000481734716           
       2.084581             0.00759443868            0.000489559071           
       2.087222             0.00759989664            0.000472302559           
       2.089862             0.00675766185            0.000485068878           
       2.092502             0.00677114831            0.000470673996           
       2.095143              0.0075729799            0.000514014546           
       2.097783             0.00757506663            0.000497721158           
       2.100423             0.00682950725            0.000455387145           
       2.103064             0.00738062325            0.000491221034           
       2.105704             0.00747337434            0.000491849559           
       2.108345             0.00740615223            0.000470405904           
       2.110985             0.00853028639            0.000539211232           
       2.113625             0.00760095511            0.000513433991           
       2.116266             0.00753322986            0.000518393392           
       2.118906             0.00755399553            0.000483779002           
       2.121546             0.00804888844             0.00048984018           
       2.124187             0.00718579563            0.000485831222           
       2.126827             0.00705137674            0.000486637027           
       2.129468             0.00699694936            0.000485993517           
       2.132108             0.00731441096            0.000483442316           
       2.134748             0.00747017063            0.000486667112           
       2.137389             0.00813765048            0.000529912273           
       2.140029             0.00789739359            0.000467354076           
       2.142670             0.00786865537            0.000498561768           
       2.145310             0.00811069353            0.000492665807           
       2.147950             0.00744935699            0.000485974178           
       2.150591             0.00739825913            0.000479410161           
       2.153231             0.00820723645            0.000519758617           
       2.155871             0.00770764251            0.000486598796           
       2.158512             0.00779593668            0.000510631192           
       2.161152             0.00781778567            0.000495321873           
       2.163793             0.00753369571            0.000484049862           
       2.166433             0.00708689653            0.000482103186           
       2.169073             0.00690245952            0.000465195777           
       2.171714             0.00750834392            0.000481556395           
       2.174354             0.00654695209            0.000469864417           
       2.176995             0.00708337376            0.000486678087           
       2.179635             0.00755863242             0.00053125285           
       2.182275              0.0076769993            0.000505499115           
       2.184916             0.00653224319            0.000450375287           
       2.187556             0.00785615951            0.000488960409           
       2.190196             0.00771524022            0.000506353677           
       2.192837             0.00842087115            0.000526124328           
       2.195477             0.00839958792            0.000500962778           
       2.198118              0.0083295544            0.000511652773           
       2.200758              0.0070797632            0.000483944414           
       2.203398             0.00851620565            0.000534168988           
       2.206039             0.00768084964            0.000480111384           
       2.208679             0.00701125174            0.000469382155           
       2.211319             0.00826396294            0.000512530744           
       2.213960             0.00690569348            0.000474798757           
       2.216600             0.00709609619            0.000497893899           
       2.219241             0.00711506999             0.00047648778           
       2.221881             0.00766176233            0.000495471336           
       2.224521             0.00758901167             0.00049915594           
       2.227162             0.00775113774            0.000494359106           
       2.229802             0.00790534408             0.00051488103           
       2.232443                0.00753731            0.000494823147           
       2.235083             0.00741148126            0.000505149031           
       2.237723             0.00614707413            0.000441480911           
       2.240364             0.00786025893            0.000511523551           
       2.243004             0.00818761237            0.000517899122           
       2.245644              0.0072848546            0.000493403711           
       2.248285             0.00742460513            0.000488135189           
       2.250925             0.00687277441            0.000472497664           
       2.253566             0.00659811249            0.000494939691           
       2.256206             0.00624335072            0.000471823482           
       2.258846             0.00707152673            0.000477676747           
       2.261487             0.00722806195              0.0005068848           
       2.264127             0.00727092339            0.000490990629           
       2.266767             0.00783233407            0.000523170636           
       2.269408             0.00768920729             0.00052049116           
       2.272048             0.00866994113            0.000549389711           
       2.274689             0.00751072439             0.00051808187           
       2.277329             0.00706476692            0.000473103817           
       2.279969             0.00834161479            0.000547211101           
       2.282610             0.00702818789            0.000488316554           
       2.285250             0.00776580971            0.000491299971           
       2.287891             0.00750089021            0.000517685166           
       2.290531             0.00763349788            0.000529261502           
       2.293171             0.00734703174            0.000505782435           
       2.295812             0.00680779986            0.000484910893           
       2.298452             0.00656165771            0.000497836426           
       2.301092             0.00799665215            0.000510630955           
       2.303733             0.00784438521            0.000526152557           
       2.306373             0.00684967379            0.000499405551           
       2.309014             0.00664825568             0.00048241016           
       2.311654             0.00805561586            0.000554145955           
       2.314294             0.00732573125            0.000486858879           
       2.316935             0.00629319572             0.00045311014           
       2.319575             0.00726706587            0.000510167828           
       2.322215             0.00667836822            0.000509690776           
       2.324856             0.00780172957            0.000506488731           
       2.327496             0.00697607524            0.000509262218           
       2.330137             0.00698326893            0.000487577044           
       2.332777             0.00762993435            0.000525506194           
       2.335417             0.00668415407            0.000477176819           
       2.338058             0.00732729336            0.000514530628           
       2.340698             0.00692807567            0.000496385868           
       2.343339             0.00724796395            0.000518889075           
       2.345979             0.00547711344            0.000426746563           
       2.348619             0.00696726978            0.000498904284           
       2.351260             0.00755463686            0.000516481787           
       2.353900             0.00770130746            0.000519819428           
       2.356540             0.00738523384            0.000508317981           
       2.359181             0.00665717578            0.000475846288           
       2.361821             0.00711318483            0.000475137015           
       2.364462             0.00733747123            0.000504707497           
       2.367102             0.00773718642            0.000532607793           
       2.369742             0.00756237622            0.000554237273           
       2.372383             0.00780874546            0.000509969843           
       2.375023             0.00759301941            0.000528631897           
       2.377663             0.00723759047            0.000493477896           
       2.380304             0.00772212996            0.000518228015           
       2.382944             0.00701525035            0.000470461916           
       2.385585             0.00778492253            0.000528564403           
       2.388225             0.00612774872            0.000466740727           
       2.390865             0.00707008088            0.000496195899           
       2.393506             0.00700171934            0.000484475231           
       2.396146             0.00658055857            0.000507837503           
       2.398787             0.00682185221            0.000476514867           
       2.401427             0.00728740443            0.000475382066           
       2.404067             0.00696889557            0.000475246661           
       2.406708             0.00677415986            0.000462940782           
       2.409348             0.00743647839            0.000514484337           
       2.411988             0.00707507337            0.000491679388           
       2.414629             0.00734112546            0.000516436707           
       2.417269             0.00677793323            0.000502025247           
       2.419910             0.00793065457            0.000544299612           
       2.422550             0.00694113849            0.000487182905           
       2.425190             0.00806700231            0.000553625917           
       2.427831             0.00789314009            0.000544549068           
       2.430471             0.00719754879            0.000495401676           
       2.433112             0.00675749823            0.000467423768           
       2.435752              0.0085446111            0.000556259932           
       2.438392             0.00730834517            0.000496547068           
       2.441033             0.00728170966            0.000525280259           
       2.443673             0.00624959495            0.000487005745           
       2.446313             0.00787281285            0.000547086324           
       2.448954             0.00736697897            0.000503890676           
       2.451594             0.00776111488            0.000556104642           
       2.454235             0.00799784998            0.000529666036           
       2.456875             0.00693772207            0.000516183858           
       2.459515             0.00763059975            0.000555360488           
       2.462156             0.00785083555            0.000531850588           
       2.464796             0.00749394245             0.00051291725           
       2.467436             0.00847309524            0.000564005109           
       2.470077             0.00724748477            0.000494402694           
       2.472717             0.00860466516            0.000541042485           
       2.475358             0.00728926638            0.000503165971           
       2.477998             0.00829230516            0.000527622111           
       2.480638             0.00767678453            0.000516683121           
       2.483279             0.00744169054              0.0005316832           
       2.485919             0.00757671131            0.000517025863           
       2.488560             0.00715668385            0.000501086416           
       2.491200              0.0076626414            0.000533914534           
       2.493840             0.00742990677            0.000556305808           
       2.496481             0.00773600803            0.000558364132           
       2.499121             0.00682237389            0.000510020627           
       2.501761             0.00750972323             0.00054218606           
       2.504402             0.00652895416            0.000498157148           
       2.507042             0.00673896347            0.000502356368           
       2.509683             0.00707658798            0.000506918954           
       2.512323             0.00688030426            0.000524955441           
       2.514963             0.00784218855             0.00055352643           
       2.517604             0.00778803101            0.000572382089           
       2.520244             0.00753873377            0.000527950889           
       2.522884             0.00652948727            0.000498368624           
       2.525525             0.00971122051            0.000614680766           
       2.528165             0.00703921056            0.000515171381           
       2.530806             0.00814904643            0.000563959332           
       2.533446             0.00851460936             0.00056416569           
       2.536086             0.00808106123            0.000544695647           
       2.538727              0.0063521528            0.000463293649           
       2.541367             0.00718517637            0.000497590029           
       2.544008             0.00730789551            0.000518258936           
       2.546648             0.00730467112            0.000527032163           
       2.549288             0.00672706206            0.000516071253           
       2.551929             0.00551551443            0.000459845004           
       2.554569              0.0067552552            0.000490290333           
       2.557209              0.0075865124            0.000524353047           
       2.559850             0.00757612773            0.000525676704           
       2.562490             0.00763360467            0.000545372159           
       2.565131             0.00695690097            0.000539821143           
       2.567771             0.00618222592            0.000490635632           
       2.570411             0.00708024929            0.000519381301           
       2.573052             0.00726569903            0.000532765285           
       2.575692             0.00635930872            0.000495409473           
       2.578332             0.00785805728            0.000552979669           
       2.580973             0.00691891158            0.000513947202           
       2.583613             0.00745122519            0.000520651827           
       2.586254             0.00765585952             0.00052701933           
       2.588894              0.0074367749            0.000539396873           
       2.591534             0.00768386959            0.000567577512           
       2.594175             0.00632763738             0.00050533839           
       2.596815             0.00661728596            0.000519821981           
       2.599456             0.00645802743            0.000486976782           
       2.602096             0.00656040707            0.000494556955           
       2.604736             0.00612021244            0.000489003584           
       2.607377              0.0067655296            0.000500588771           
       2.610017             0.00654221805            0.000483643582           
       2.612657             0.00716149667            0.000538225023           
       2.615298             0.00716802583            0.000525716427           
       2.617938             0.00630529635            0.000527453959           
       2.620579             0.00673350487            0.000523261818           
       2.623219             0.00697486423            0.000531798146           
       2.625859             0.00631812444             0.00049211273           
       2.628500             0.00699667141            0.000514470233           
       2.631140             0.00736811113            0.000536084566           
       2.633780              0.0073282571            0.000534167996           
       2.636421             0.00771896788            0.000561704698           
       2.639061             0.00673039983            0.000493760305           
       2.641702             0.00719277118            0.000522255994           
       2.644342             0.00662185785            0.000503236141           
       2.646982             0.00739212371            0.000523751026           
       2.649623             0.00672244487            0.000523417864           
       2.652263             0.00673652663            0.000518707813           
       2.654904             0.00764554218            0.000553153434           
       2.657544             0.00745158395            0.000514361965           
       2.660184             0.00667982283             0.00051538551           
       2.662825             0.00673403727             0.00052947804           
       2.665465             0.00766634662            0.000546392666           
       2.668105             0.00753170244            0.000570838977           
       2.670746              0.0074880959            0.000525804707           
       2.673386             0.00900349266            0.000594190986           
       2.676027               0.007997858            0.000551036974           
       2.678667             0.00951568171            0.000586478933           
       2.681307              0.0100385068             0.00059186781           
       2.683948              0.0152630449            0.000749847576           
       2.686588              0.0123742524            0.000663971341           
       2.689229              0.0100108025            0.000583565186           
       2.691869              0.0112745969            0.000654545093           
       2.694509              0.0094477547            0.000599503795           
       2.697150              0.0072158091            0.000515426059           
       2.699790             0.00715613487             0.00053811121           
       2.702430              0.0075874617            0.000529644317           
       2.705071             0.00697761576             0.00052483254           
       2.707711             0.00688984433            0.000506175367           
       2.710352             0.00693540436            0.000536603058           
       2.712992             0.00702179009            0.000549918019           
       2.715632             0.00712189932            0.000513838999           
       2.718273             0.00708847967            0.000531274056           
       2.720913             0.00657056352            0.000510041951           
       2.723553              0.0071156344            0.000534337401           
       2.726194             0.00621377066             0.00052196289           
       2.728834             0.00684783761             0.00054820432           
       2.731475             0.00694039921            0.000509352444           
       2.734115             0.00833032916            0.000575348306           
       2.736755             0.00694991137            0.000529845624           
       2.739396             0.00734024603             0.00054136662           
       2.742036             0.00712717883            0.000558290933           
       2.744677             0.00748562577            0.000555150764           
       2.747317             0.00729555031            0.000544149183           
       2.749957             0.00600122975            0.000496988386           
       2.752598             0.00756510419            0.000564054907           
       2.755238              0.0076200823             0.00057632018           
       2.757878              0.0080113146            0.000585763155           
       2.760519              0.0076280017            0.000565517483           
       2.763159             0.00829478549            0.000583823247           
       2.765800             0.00832910923            0.000557524396           
       2.768440             0.00745549362            0.000531361971           
       2.771080             0.00795728638            0.000553534657           
       2.773721             0.00704066047             0.00053410927           
       2.776361             0.00674322525            0.000529916957           
       2.779001             0.00704184276            0.000560802243           
       2.781642             0.00646133694            0.000533230995           
       2.784282             0.00735058432            0.000578094124           
       2.786923              0.0066206436             0.00055347099           
       2.789563             0.00681121769            0.000540675127           
       2.792203             0.00692137874            0.000520659181           
       2.794844             0.00704954401            0.000575893025           
       2.797484             0.00710356638            0.000545581033           
       2.800125             0.00643689119            0.000546095438           
       2.802765             0.00727982028            0.000570761206           
       2.805405             0.00684965286            0.000555515058           
       2.808046             0.00587758736            0.000523635955           
       2.810686             0.00735071038            0.000538090248           
       2.813326             0.00696313896            0.000543992822           
       2.815967             0.00741529766            0.000577338989           
       2.818607             0.00784552293            0.000566696716           
       2.821248             0.00785076051            0.000555116762           
       2.823888             0.00734577126            0.000557384818           
       2.826528              0.0074768281            0.000544593684           
       2.829169             0.00665814408             0.00053829617           
       2.831809             0.00662609361            0.000544303358           
       2.834449             0.00738254917            0.000578164447           
       2.837090             0.00684162288            0.000537568226           
       2.839730             0.00702368413            0.000542014497           
       2.842371             0.00701377446            0.000542413708           
       2.845011             0.00739828955            0.000561524168           
       2.847651             0.00590451575            0.000502259299           
       2.850292              0.0067910724            0.000543934329           
       2.852932             0.00754703281            0.000585906717           
       2.855573             0.00718671784            0.000554612959           
       2.858213             0.00613434184            0.000538081624           
       2.860853             0.00615715719            0.000501469488           
       2.863494             0.00650754651            0.000533770558           
       2.866134             0.00642191167            0.000551125927           
       2.868774             0.00587490626            0.000518062427           
       2.871415             0.00842643711            0.000630109811           
       2.874055             0.00710459781            0.000553051276           
       2.876696             0.00681104147            0.000556151874           
       2.879336              0.0075280781            0.000563532684           
       2.881976              0.0074933073            0.000579901228           
       2.884617             0.00769394748            0.000578983636           
       2.887257             0.00911361338            0.000633392407           
       2.889897             0.00775962151            0.000572422047           
       2.892538             0.00713925155            0.000601500861           
       2.895178               0.006582018            0.000521777768           
       2.897819             0.00679113833            0.000540652461           
       2.900459              0.0074907523            0.000556772733           
       2.903099             0.00594912263            0.000491103802           
       2.905740             0.00651574406            0.000527256706           
       2.908380             0.00653685089            0.000534110556           
       2.911021             0.00676561064            0.000552210314           
       2.913661             0.00694004628            0.000559116187           
       2.916301             0.00663178529            0.000547079037           
       2.918942             0.00623755862             0.00050750264           
       2.921582             0.00733126992            0.000575667716           
       2.924222             0.00785894911            0.000577433635           
       2.926863             0.00741793824            0.000584344349           
       2.929503             0.00753966839            0.000596099006           
       2.932144             0.00739701601            0.000566779482           
       2.934784              0.0060145568            0.000502698328           
       2.937424             0.00743160588            0.000564524824           
       2.940065             0.00706641764            0.000525105687           
       2.942705              0.0071280722            0.000526729829           
       2.945346             0.00733633948            0.000567101168           
       2.947986             0.00615247884             0.00052953991           
       2.950626             0.00590767349            0.000515976275           
       2.953267             0.00814398246            0.000596026488           
       2.955907             0.00572446845            0.000518376497           
       2.958547             0.00626692287            0.000512035994           
       2.961188             0.00738910626            0.000580055869           
       2.963828                0.00666986            0.000539079932           
       2.966469             0.00671629237            0.000530673104           
       2.969109             0.00729531135            0.000561269868           
       2.971749             0.00612965949            0.000511269897           
       2.974390             0.00708729482            0.000540238759           
       2.977030             0.00840815647            0.000601581854           
       2.979670             0.00948491829            0.000621493684           
       2.982311             0.00878755282            0.000620014891           
       2.984951             0.00712738393            0.000531072624           
       2.987592               0.005927538            0.000494013258           
       2.990232             0.00775248204            0.000587557881           
       2.992872             0.00785333585            0.000557034641           
       2.995513             0.00834941455            0.000561911765           
       2.998153              0.0119405967            0.000683265055           
       3.000794              0.0122512309            0.000670365639           
       3.003434              0.0107459527            0.000628781248           
       3.006074              0.0394577832             0.00118799158           
       3.008715               0.114314825              0.0019519411           
       3.011355                0.21108406             0.00255779475           
       3.013995               0.115233365             0.00189499076           
       3.016636              0.0719858724             0.00146665982           
       3.019276               0.142595547             0.00202909914           
       3.021917               0.508608128             0.00368479324           
       3.024557                1.47749107             0.00617467191           
       3.027197                1.12220729             0.00524649382           
       3.029838               0.549959217             0.00372490211           
       3.032478                0.25765459             0.00255217189           
       3.035118              0.0669829387             0.00131874511           
       3.037759              0.0847974886             0.00148186815           
       3.040399               0.116907277             0.00179481048           
       3.043040               0.487417009             0.00370970273           
       3.045680               0.391504507              0.0031281049           
       3.048320              0.0998279073             0.00161393513           
       3.050961               0.115400257             0.00176583131           
       3.053601              0.0985484164             0.00157163471           
       3.056242              0.0753180342             0.00146081874           
       3.058882              0.0717223913             0.00152916287           
       3.061522              0.0566776153             0.00133368703           
       3.064163              0.0689739843             0.00145273791           
       3.066803               0.136150388             0.00214878818           
       3.069443               0.113911288             0.00205639045           
       3.072084              0.0350709412             0.00111105572           
       3.074724              0.0489832927             0.00146639339           
       3.077365              0.0584553639             0.00165825867           
       3.080005              0.0114475795            0.000737990727           
       3.082645              0.0140793474            0.000859787348           
       3.085286              0.0146010994            0.000882481388           
       3.087926              0.0100783484            0.000727523989           
       3.090566              0.0105219111            0.000728350603           
       3.093207               0.010040209            0.000740371719           
       3.095847             0.00947246124            0.000689278977           
       3.098488             0.00790069839            0.000698008758           
       3.101128             0.00981294728            0.000782910115           
       3.103768             0.00938219558            0.000751131468           
       3.106409              0.0110419715            0.000867238267           
       3.109049             0.00689811265             0.00065779921           
       3.111690              0.0082321715            0.000706260963           
       3.114330              0.0080574764            0.000713591213           
       3.116970             0.00917662412            0.000767384189           
       3.119611              0.0116752905            0.000921348593           
       3.122251              0.0202534344             0.00126936083           
       3.124891              0.0403027985             0.00180729879           
       3.127532               0.022483597             0.00132057585           
       3.130172              0.0169440243             0.00116621597           
       3.132813             0.00993116211            0.000878964313           
       3.135453             0.00779624594            0.000772363585           
       3.138093             0.00511764981            0.000678043261           
       3.140734             0.00765376081            0.000765001316           
       3.143374             0.00777605536            0.000815460155           
       3.146014             0.00583013165            0.000760141922           
       3.148655             0.00719314478            0.000784887769           
       3.151295             0.00611206377            0.000771008668           
       3.153936             0.00750631566            0.000825357881           
       3.156576             0.00679875884            0.000774811174           
       3.159216             0.00640310259            0.000755689044           
       3.161857             0.00757641465            0.000818669619           
       3.164497             0.00662651414            0.000804457313           
       3.167138             0.00654704697              0.0008262017           
       3.169778              0.0057292407             0.00076013387           
       3.172418             0.00820197507            0.000900244909           
       3.175059             0.00581582283            0.000672057627           
       3.177699             0.00635752456            0.000744073957           
       3.180339             0.00619609863            0.000787031269           
       3.182980             0.00566160153            0.000777822199           
       3.185620              0.0074344268            0.000907735169           
       3.188261             0.00586940483            0.000820945367           
       3.190901             0.00698426925            0.000823623086           
       3.193541             0.00588709042            0.000794550355           
       3.196182             0.00569592661            0.000814480647           
       3.198822             0.00664495201            0.000880014932           
       3.201463             0.00460686804            0.000720111117           
       3.204103             0.00666574181            0.000860935275           
       3.206743             0.00489035665            0.000737353524           
       3.209384             0.00530859356            0.000830014507           
       3.212024             0.00676485592             0.00087354897           
       3.214664             0.00509496093            0.000862071509           
       3.217305             0.00513033696            0.000822298478           
       3.219945             0.00585676244            0.000904293988           
       3.222586             0.00555646469              0.0008389528           
       3.225226             0.00795581378             0.00111364529           
       3.227866             0.00834324096             0.00104234957           
       3.230507              0.0060059805            0.000916754439           
       3.233147             0.00597799968            0.000922001843           
       3.235787             0.00592277154            0.000939185027           
       3.238428             0.00467720699            0.000900646449           
       3.241068             0.00848409916              0.0011342234           
       3.243709             0.00599756996            0.000985259236           
       3.246349             0.00362888928            0.000698635753           
       3.248989             0.00469087584            0.000937905143           
       3.251630             0.00591128198              0.0010138805           
       3.254270             0.00528384097            0.000856695677           
       3.256911             0.00526917204            0.000933451634           
       3.259551             0.00651297132             0.00111727537           
       3.262191             0.00677269401             0.00116377362           
       3.264832             0.00500448998              0.0010452537           
       3.267472             0.00535761239             0.00101456544           
       3.270112              0.0069941022             0.00128106972           
       3.272753             0.00668510584             0.00114639876           
       3.275393             0.00346847261            0.000842556776           
       3.278034             0.00491707842             0.00100375576           
       3.280674             0.00482615146             0.00107909646           
       3.283314             0.00733663329             0.00118992014           
       3.285955             0.00534448354             0.00104787521           
       3.288595             0.00611608051             0.00124711909           
       3.291235             0.00426637641             0.00107075575           
       3.293876             0.00606221537              0.0012947111           
       3.296516             0.00483343342             0.00110985551           
       3.299157             0.00820396556             0.00142777226           
       3.301797             0.00612626152               0.001407377           
       3.304437             0.00559259409             0.00116500614           
       3.307078             0.00499092101             0.00121232957           
       3.309718             0.00878962616             0.00166062225           
       3.312359             0.00563997875             0.00133053878           
       3.314999             0.00760778898             0.00152149264           
       3.317639             0.00586671419              0.0012778129           
       3.320280              0.0059570919             0.00136900339           
       3.322920             0.00516911231             0.00129671377           
       3.325560             0.00487860354              0.0012606045           
       3.328201             0.00580269848             0.00123819183           
       3.330841             0.00428585918             0.00129510436           
       3.333482             0.00628664979             0.00148262989           
       3.336122             0.00729929824             0.00159831827           
       3.338762             0.00466003851             0.00147522301           
       3.341403             0.00469672882             0.00141517303           
       3.344043             0.00351071771             0.00117467655           
       3.346683             0.00739146612                0.00174011           
       3.349324             0.00573054278             0.00172267245           
       3.351964             0.00748365662             0.00208174156           
       3.354605             0.00912678351             0.00262919606           
       3.357245             0.00426766906             0.00162187442           
       3.359885             0.00395611829             0.00124980444           
       3.362526             0.00488796972             0.00173728038           
       3.365166             0.00494402181             0.00164796007           
       3.367807             0.00451610986             0.00201571787           
       3.370447             0.00493940911             0.00174867306           
       3.373087             0.00704070501             0.00223257703           
       3.375728             0.00538759498             0.00220411919           
       3.378368             0.00605016598             0.00346649956           
       3.381008             0.00664735472             0.00270900664           
       3.383649             0.00353852321             0.00158555432           
       3.386289            0.000961825858            0.000978360402           
       3.388930             0.00739924214             0.00429227538           
       3.391570             0.00611756191             0.00276086793           
       3.394210              0.0140514385             0.00529525413           
       3.396851             0.00492236797              0.0035058009           
       3.399491             0.00483781822             0.00347653875           
       3.402131             0.00983014939             0.00701130482           
       3.404772            -2.6729052e-05                         0           
       3.407412                       nan                       nan           
       3.410053           -2.67948858e-05                         0           
       3.412693                       nan                       nan           
       3.415333             0.00909622702             0.00956132232           
