################################################################################
# EDF_DataBlockID                     0.Image.Psd
# EDF_BinarySize                      2105344
# EDF_HeaderSize                      2560
# ByteOrder                           LowByteFirst
# DataType                            FloatValue
# Dim_1                               512
# Dim_2                               1028
# Image                               0
# HeaderID                            EH:000000:000000:000000
# Size                                2105344
# Center_1                            304.9000
# Center_2                            588.7000
# Comment                             Xenocs_Cell_Window - 20251028_20perc_iodine_1.23mg
# DDummy                              0.6
# Date                                2025-11-02T19:15:33
# Delta                               21.910000
# Dummy                               -1.5
# ExposureTime                        360
# Gamma                               15.360000
# Intensity1                          8.81981e-10
# PSize_1                             7.5e-05
# PSize_2                             7.5e-05
# Pressure                            0.0326748
# SampleDistance                      0.115750
# SampleEnvKind                       large
# SampleEnvPN                         ElectroChemical cell
# SampleEnvSN                         1141
# Thickness                           0
# Wavelength                          1.541891e-10
# Wavelength                          1.54189e-10
# aux                                 0
# aux_dial                            0.002375
# beamx                               588.434
# beamx_dial                          588.434
# beamz                               657.808
# beamz_dial                          657.808
# det0x                               0
# det0x_dial                          6.36945
# det0xvd                             0
# det0xvd_dial                        0
# det0y                               450.002
# det0y_dial                          481.635
# det0z                               0
# det0z_dial                          1.23302
# det0zvd                             0
# det0zvd_dial                        0
# mag                                 1.818
# mag_dial                            1.818
# om                                  0.2499
# om_dial                             -0.610199
# phi                                 -0.0120535
# phi_dial                            0
# ry                                  0.599993
# ry_dial                             0.599993
# s1bot                               0.8
# s1bot_dial                          -1.66094
# s1hl                                0.8
# s1hl_dial                           -0.608437
# s1hr                                0.8
# s1hr_dial                           0.970938
# s1top                               0.8
# s1top_dial                          -0.461562
# s2bot                               0.45
# s2bot_dial                          1.36109
# s2hl                                0.45
# s2hl_dial                           -0.83375
# s2hr                                0.45
# s2hr_dial                           -0.118594
# s2top                               0.45
# s2top_dial                          1.44734
# w2theta                             32
# w2theta_dial                        32
# waxsch                              19.2605
# waxsch_dial                         -32.7355
# waxsh                               137.085
# waxsh_dial                          -43.5338
# waxsth                              26.0607
# waxsth_dial                         -19.4086
# waxsz                               67.0407
# waxsz_dial                          -23.7954
# wind                                65.9854
# wind_dial                           66.0041
# wpsi                                124
# wpsi_dial                           124
# wstod                               115
# wstod_dial                          115
# x                                   0
# x_dial                              1.00969
# z                                   0
# z_dial                              13.3172
# CountCutoff                         6807993
# DetectorModel                       Dectris EIGER2 Si 500K, S/N E-01-0554
# ThresholdSetting                    4023.88989258
# Saturation                          0
# FlatField                           Corrected
# BackgroundReductionExtra            0.02
# BackgroundCorrectionConstant        0.0026712
# Detector                            0
# Monitor                             0
# Pil_Roi0                            0
# SumForIntensity1                    3.17513e+08
# TransmittedFlux                     881981
# det                                 0
# mon                                 0
# pilai0                              3.17513e+08
# pilai1                              798021
# pilct0                              5.48649e+08
# pilct1                              798021
# pilroi0                             0
# pilroi1                             0
# sec                                 1
# title                               20251028_20perc_iodine_1.23mg_1_01135.edf
# usaxs0                              0
# Operation                           Azimuthal average I(q)
# Error_model                         ErrorModel.poisson
# Geometrical_correction              True
# Transmission_correction             True
# Thickness_correction                False
# Binning mode                        Uniform
# Binning factor                      1.0
# Psi                                 0.0
# Omega                               0.2499
# MaskInvalidPixels                   True
# DetectorEdge                        3
# MaskFiles                           ['WAXS_corrected.edf']
################################################################################
    q(A⁻¹)                Intensity(a.u.)            Sigma_I(a.u.)            
       0.693100             0.00802331967             0.00587978575           
       0.695741             0.00266302981             0.00276426826           
       0.698381           -2.30009871e-05                         0           
       0.701021              0.0171160029                0.01213552           
       0.703662              0.0110794526             0.00563580334           
       0.706302             0.00682212611             0.00342384191           
       0.708942              0.0083473704             0.00488820859           
       0.711583             0.00425154176               0.003020883           
       0.714223           -2.29270868e-05                         0           
       0.716864             0.00841849186             0.00321106083           
       0.719504             0.00286710593             0.00202218604           
       0.722144             0.00734332404             0.00299703907           
       0.724785             0.00540797343             0.00205160967           
       0.727425              0.0070939124             0.00317877962           
       0.730065             0.00559033155               0.001996078           
       0.732706             0.00794050216             0.00199770545           
       0.735346              0.0110726651             0.00307508882           
       0.737987             0.00550033248             0.00153152159           
       0.740627             0.00567507942             0.00232113878           
       0.743267             0.00250149854             0.00103218471           
       0.745908             0.00703439888              0.0018779305           
       0.748548              0.0110959455             0.00217401537           
       0.751189               0.010086011             0.00279290845           
       0.753829              0.0104415875             0.00261219355           
       0.756469             0.00888993844              0.0019435907           
       0.759110             0.00701980857             0.00182007215           
       0.761750             0.00985722351             0.00190705815           
       0.764390             0.00523947587             0.00145524468           
       0.767031             0.00758625143             0.00151636893           
       0.769671             0.00660361086             0.00176480464           
       0.772312             0.00787498996             0.00146717614           
       0.774952             0.00697756415             0.00186495727           
       0.777592             0.00659965205             0.00132109691           
       0.780233             0.00730644735             0.00167706949           
       0.782873             0.00701215011             0.00157132551           
       0.785513             0.00561533787              0.0015032537           
       0.788154             0.00531405556             0.00122332331           
       0.790794             0.00925181279             0.00192974827           
       0.793435             0.00648902973             0.00145186869           
       0.796075             0.00812270304             0.00156478224           
       0.798715             0.00460258394             0.00139192945           
       0.801356             0.00799163488             0.00157859273           
       0.803996             0.00582159488             0.00137361804           
       0.806637             0.00550688299             0.00106318818           
       0.809277              0.0055444373             0.00115469501           
       0.811917             0.00587979251             0.00111162217           
       0.814558             0.00785778906             0.00133559947           
       0.817198             0.00800920275             0.00128104899           
       0.819838              0.0063201947             0.00115172432           
       0.822479             0.00812871468             0.00153378098           
       0.825119             0.00270387539            0.000752903759           
       0.827760             0.00864361559             0.00136359904           
       0.830400             0.00797735444             0.00123294475           
       0.833040             0.00898052026             0.00137056166           
       0.835681             0.00780611428             0.00145264794           
       0.838321             0.00913930196             0.00131926837           
       0.840961             0.00587780911             0.00115273736           
       0.843602             0.00546892305             0.00101967604           
       0.846242             0.00871691669             0.00128714649           
       0.848883             0.00637256977              0.0011262391           
       0.851523             0.00853192913             0.00128696991           
       0.854163             0.00721725267             0.00125878019           
       0.856804              0.0083612281             0.00121821774           
       0.859444             0.00783240746             0.00115525528           
       0.862085             0.00758318445             0.00118475396           
       0.864725             0.00953421252             0.00135953009           
       0.867365             0.00734426239             0.00110646174           
       0.870006             0.00633212745            0.000979027781           
       0.872646             0.00664558066             0.00105174974           
       0.875286             0.00597485888            0.000959428862           
       0.877927             0.00715961493             0.00101344484           
       0.880567             0.00942117257             0.00120441466           
       0.883208              0.0087402298             0.00114914318           
       0.885848             0.00615146295             0.00100097944           
       0.888488             0.00786860325             0.00106183989           
       0.891129             0.00677904202             0.00101199079           
       0.893769             0.00674394778            0.000965991348           
       0.896410             0.00779176171            0.000968084201           
       0.899050             0.00712235765             0.00101787049           
       0.901690             0.00739973587             0.00113014063           
       0.904331             0.00814115802             0.00105092853           
       0.906971             0.00674323007             0.00101750949           
       0.909611             0.00635326403            0.000899077331           
       0.912252             0.00664110062            0.000949455886           
       0.914892              0.0080925961             0.00114533926           
       0.917533             0.00838864774             0.00110312735           
       0.920173              0.0089788558              0.0010588785           
       0.922813             0.00740567055             0.00100914518           
       0.925454             0.00691063932            0.000877810955           
       0.928094             0.00722468224            0.000958193994           
       0.930734              0.0075097882             0.00105175978           
       0.933375              0.0074977914             0.00104058816           
       0.936015             0.00749420516            0.000944850562           
       0.938656             0.00727297222            0.000998528293           
       0.941296              0.0052858318            0.000771473928           
       0.943936             0.00552434675            0.000773430505           
       0.946577             0.00820701942            0.000936467777           
       0.949217             0.00676612788             0.00078192442           
       0.951858             0.00752305453            0.000863089175           
       0.954498             0.00930813547             0.00111123084           
       0.957138             0.00952531725             0.00106494982           
       0.959779             0.00787140091            0.000954337108           
       0.962419             0.00751069798            0.000926013909           
       0.965059             0.00819405335             0.00101726585           
       0.967700             0.00767431457             0.00100829817           
       0.970340             0.00778729793            0.000898788026           
       0.972981             0.00917710214            0.000888957056           
       0.975621              0.0062312808            0.000779269986           
       0.978261             0.00940280377            0.000909561281           
       0.980902             0.00890799932             0.00105922437           
       0.983542             0.00790259583            0.000883493355           
       0.986182             0.00830849919            0.000889405895           
       0.988823             0.00664153022            0.000772134209           
       0.991463             0.00806530104            0.000907801632           
       0.994104             0.00786939848            0.000874753252           
       0.996744             0.00779888406            0.000888234825           
       0.999384             0.00827099668            0.000818070028           
       1.002025             0.00838844472            0.000919534199           
       1.004665             0.00861559027            0.000851642022           
       1.007306             0.00683539481            0.000754688441           
       1.009946             0.00911472015            0.000888787963           
       1.012586             0.00813879786            0.000817973667           
       1.015227             0.00701801706            0.000816013342           
       1.017867             0.00956235187            0.000915434022           
       1.020507             0.00973008747            0.000894465554           
       1.023148             0.00937714023            0.000947486222           
       1.025788             0.00941363706            0.000870459183           
       1.028429             0.00947854582             0.00091508778           
       1.031069              0.0101856206            0.000892674255           
       1.033709             0.00800815479            0.000841394684           
       1.036350             0.00640335767            0.000675740365           
       1.038990             0.00708811098            0.000724018319           
       1.041630             0.00764280128            0.000784149917           
       1.044271             0.00647654074            0.000678869653           
       1.046911             0.00747871621             0.00076734427           
       1.049552             0.00975992564            0.000920976374           
       1.052192             0.00718177823            0.000721393626           
       1.054832             0.00827887613            0.000781582542           
       1.057473             0.00861654941            0.000786031157           
       1.060113             0.00716739512            0.000699164653           
       1.062754             0.00696446952            0.000703657067           
       1.065394              0.0088274568            0.000837560175           
       1.068034             0.00750580758            0.000702704733           
       1.070675             0.00882204312            0.000794683538           
       1.073315              0.0077327994            0.000754673061           
       1.075955             0.00799505652            0.000724435191           
       1.078596             0.00867849003            0.000802163798           
       1.081236             0.00774386452            0.000725584889           
       1.083877             0.00849572934            0.000753175553           
       1.086517             0.00828813203             0.00079769623           
       1.089157             0.00817426989            0.000821994089           
       1.091798             0.00810785293            0.000717722085           
       1.094438             0.00813780972            0.000716726008           
       1.097078             0.00871265133            0.000711280151           
       1.099719             0.00965488818            0.000809891913           
       1.102359             0.00792362803            0.000687114014           
       1.105000             0.00932080144            0.000833318252           
       1.107640             0.00843422293            0.000757946516           
       1.110280             0.00878022936            0.000705611298           
       1.112921             0.00922701104            0.000777024698           
       1.115561             0.00941887006            0.000746135271           
       1.118202             0.00899795828            0.000729960205           
       1.120842             0.00798321207            0.000722639043           
       1.123482             0.00868011191            0.000750229717           
       1.126123             0.00882325105            0.000725504976           
       1.128763             0.00834358018            0.000710345769           
       1.131403             0.00818576431            0.000677974746           
       1.134044             0.00802466338             0.00069073858           
       1.136684             0.00893441635            0.000777071957           
       1.139325             0.00796039036            0.000675691918           
       1.141965             0.00922778536            0.000732304842           
       1.144605              0.0082766823            0.000661292125           
       1.147246             0.00877958938             0.00069703318           
       1.149886              0.0076378287            0.000647823714           
       1.152527             0.00892430011            0.000710442607           
       1.155167             0.00859153536            0.000663021137           
       1.157807             0.00889350014             0.00072326142           
       1.160448             0.00836738842            0.000685074087           
       1.163088              0.0102060901            0.000721694929           
       1.165728             0.00758714456            0.000638873233           
       1.168369             0.00991206277            0.000736972668           
       1.171009             0.00911807485            0.000685968759           
       1.173650             0.00884827081            0.000693474089           
       1.176290             0.00987042502             0.00071575309           
       1.178930             0.00857658251            0.000653911328           
       1.181571             0.00834915097            0.000657977161           
       1.184211             0.00965151471            0.000709944669           
       1.186851             0.00872906354            0.000660100109           
       1.189492             0.00971377339            0.000691653157           
       1.192132             0.00899671101            0.000658166739           
       1.194773             0.00840661198            0.000638995734           
       1.197413             0.00932001854            0.000644652294           
       1.200053              0.0102792336            0.000694215673           
       1.202694             0.00920145009            0.000624592216           
       1.205334             0.00869251475            0.000654235035           
       1.207975              0.0100887176            0.000672771875           
       1.210615             0.00948731047            0.000719720392           
       1.213255              0.0103307559            0.000672531649           
       1.215896             0.00911601438             0.00064320249           
       1.218536             0.00916915536            0.000620266749           
       1.221176              0.0100668643            0.000706598077           
       1.223817             0.00929737122            0.000637441153           
       1.226457             0.00954182998            0.000658776806           
       1.229098              0.0101379936            0.000679011783           
       1.231738             0.00996822465            0.000676616229           
       1.234378             0.00959892399            0.000623894323           
       1.237019              0.0109169442              0.0006856371           
       1.239659              0.0103667613            0.000662316534           
       1.242299             0.00977219714             0.00063487326           
       1.244940             0.00924133744            0.000600448753           
       1.247580             0.00870794686            0.000600687887           
       1.250221              0.0104210682            0.000653068977           
       1.252861               0.010458429            0.000622838287           
       1.255501             0.00958601955            0.000647462489           
       1.258142              0.0101482502            0.000625994839           
       1.260782              0.0094778013            0.000618052961           
       1.263423              0.0100169935            0.000610538223           
       1.266063               0.010265765             0.00063350718           
       1.268703                0.01054965            0.000636877746           
       1.271344              0.0109586338            0.000671104104           
       1.273984             0.00975449078            0.000611508386           
       1.276624              0.0107754794            0.000630640585           
       1.279265              0.0113254214            0.000657269848           
       1.281905              0.0102882381            0.000629231173           
       1.284546              0.0114292992            0.000641050337           
       1.287186             0.00988367521            0.000584867575           
       1.289826             0.00995988635            0.000618774454           
       1.292467              0.0100810506            0.000608815176           
       1.295107              0.0111377153            0.000633570505           
       1.297747             0.00972681658             0.00056657382           
       1.300388              0.0117088338            0.000677648924           
       1.303028              0.0100074986            0.000598080219           
       1.305669              0.0107828019            0.000635597584           
       1.308309              0.0105785578            0.000623349591           
       1.310949             0.00986387888            0.000601319989           
       1.313590              0.0102393886            0.000593507929           
       1.316230             0.00986205116            0.000621575764           
       1.318871              0.0118470702            0.000667215189           
       1.321511              0.0116676998            0.000649871903           
       1.324151              0.0107221148            0.000604512688           
       1.326792              0.0117674219            0.000637209986           
       1.329432              0.0103811079            0.000594275967           
       1.332072              0.0111710177            0.000607283743           
       1.334713              0.0109950255            0.000621820255           
       1.337353              0.0109114974            0.000594068549           
       1.339994              0.0110584814            0.000627600595           
       1.342634              0.0117272139            0.000619759496           
       1.345274              0.0104756226            0.000606200938           
       1.347915              0.0112950528            0.000612081314           
       1.350555              0.0120631764            0.000643629815           
       1.353195              0.0112374519            0.000624262219           
       1.355836              0.0116442463            0.000625552065           
       1.358476             0.00978247219            0.000556825623           
       1.361117              0.0117793115            0.000611857891           
       1.363757              0.0114173847            0.000620778243           
       1.366397              0.0104314423            0.000575413593           
       1.369038              0.0111710079             0.00060139124           
       1.371678              0.0119806016            0.000617311674           
       1.374319              0.0101465757            0.000563208351           
       1.376959               0.011364577            0.000590060257           
       1.379599              0.0105935643            0.000610538231           
       1.382240              0.0108692674            0.000581233239           
       1.384880              0.0103732964            0.000601447651           
       1.387520              0.0116111491            0.000604334776           
       1.390161              0.0106495144            0.000549691043           
       1.392801              0.0109755294            0.000581425149           
       1.395442              0.0110422435            0.000591154584           
       1.398082              0.0113445432            0.000561117074           
       1.400722              0.0111034524            0.000581478294           
       1.403363                0.01197526             0.00063565168           
       1.406003              0.0115227149            0.000583536003           
       1.408644              0.0106010258             0.00058633414           
       1.411284              0.0119234843            0.000588819409           
       1.413924              0.0116791324            0.000580594318           
       1.416565              0.0112706876            0.000568111235           
       1.419205              0.0112453569            0.000591964333           
       1.421845              0.0118150206            0.000606416591           
       1.424486              0.0123643161            0.000596301825           
       1.427126              0.0117208412            0.000603108134           
       1.429767              0.0113297187             0.00055790323           
       1.432407              0.0112770715             0.00058250064           
       1.435047               0.010452492            0.000526684472           
       1.437688              0.0111863873            0.000553007365           
       1.440328              0.0108431203            0.000555678897           
       1.442968              0.0115642861            0.000586717963           
       1.445609              0.0114812134            0.000566061509           
       1.448249              0.0105896031            0.000557402248           
       1.450890               0.011166538             0.00056864894           
       1.453530              0.0118097705            0.000611816064           
       1.456170             0.00981049853             0.00054119244           
       1.458811              0.0112776997            0.000554849044           
       1.461451             0.00983658795            0.000519546699           
       1.464092              0.0102732345            0.000534424118           
       1.466732              0.0115375693            0.000561489294           
       1.469372              0.0112015952            0.000540305775           
       1.472013              0.0106079918            0.000567080167           
       1.474653              0.0096395814            0.000532237171           
       1.477293               0.010287483            0.000561421489           
       1.479934              0.0118005037            0.000573757273           
       1.482574              0.0109073776            0.000533603832           
       1.485215              0.0118210208            0.000565849173           
       1.487855              0.0111498425            0.000556799918           
       1.490495              0.0111116372            0.000553798024           
       1.493136              0.0104261602            0.000529091244           
       1.495776              0.0116473029            0.000556671595           
       1.498416              0.0109316862            0.000556943764           
       1.501057              0.0105798572            0.000535832956           
       1.503697              0.0102177764            0.000514819921           
       1.506338              0.0108844807            0.000541060022           
       1.508978               0.011435404            0.000549130065           
       1.511618              0.0100668917            0.000548712412           
       1.514259               0.011770518            0.000572830429           
       1.516899              0.0115652874            0.000552863133           
       1.519540              0.0104515956            0.000534045387           
       1.522180              0.0107634965            0.000546716212           
       1.524820              0.0113563853            0.000558421162           
       1.527461              0.0110070891            0.000552485184           
       1.530101             0.00983052132            0.000516901025           
       1.532741              0.0114457453            0.000554515182           
       1.535382              0.0103252248            0.000535151921           
       1.538022              0.0105720569            0.000510131786           
       1.540663              0.0107820633            0.000554100991           
       1.543303              0.0113141301            0.000527033368           
       1.545943              0.0106048581            0.000540058152           
       1.548584              0.0113153864            0.000567870751           
       1.551224              0.0105444711            0.000506848907           
       1.553864              0.0110365255             0.00054793445           
       1.556505               0.010785338             0.00052326064           
       1.559145              0.0100954004            0.000512449066           
       1.561786              0.0102853042             0.00051764479           
       1.564426              0.0100225446             0.00049509596           
       1.567066              0.0107957481            0.000538404229           
       1.569707              0.0105799671            0.000523422078           
       1.572347              0.0105780129            0.000540697393           
       1.574988              0.0108556044            0.000521362378           
       1.577628               0.010198752            0.000526948082           
       1.580268              0.0102030566            0.000510664305           
       1.582909              0.0102537553            0.000542627001           
       1.585549              0.0105096773            0.000533408031           
       1.588189              0.0104157883            0.000519430349           
       1.590830              0.0104583248            0.000519836636           
       1.593470             0.00954812313            0.000516368068           
       1.596111             0.00952288467            0.000503468917           
       1.598751             0.00984873709            0.000496120791           
       1.601391             0.00968488274            0.000502830835           
       1.604032             0.00987101918            0.000518252156           
       1.606672             0.00965426651            0.000497972092           
       1.609312             0.00991859704            0.000526892881           
       1.611953                0.00951192            0.000504916773           
       1.614593             0.00900086895            0.000481794533           
       1.617234             0.00911741611             0.00050254296           
       1.619874             0.00859854995            0.000486105957           
       1.622514             0.00977309713            0.000511174576           
       1.625155             0.00878851894            0.000487605986           
       1.627795             0.00907307118            0.000483297798           
       1.630436             0.00824149089             0.00045821243           
       1.633076             0.00899690147            0.000485030862           
       1.635716             0.00838947815            0.000461083937           
       1.638357             0.00942031594            0.000489878613           
       1.640997             0.00902758856            0.000494085336           
       1.643637              0.0092376867            0.000486363356           
       1.646278             0.00815003472            0.000471188358           
       1.648918             0.00865713445            0.000486950727           
       1.651559             0.00848169077            0.000485732215           
       1.654199             0.00900139426            0.000486675426           
       1.656839             0.00894930875            0.000485434728           
       1.659480             0.00876018642            0.000498313426           
       1.662120             0.00943090915             0.00048696488           
       1.664761             0.00907294203            0.000496138092           
       1.667401             0.00836280626            0.000455265912           
       1.670041             0.00945249605             0.00049139915           
       1.672682             0.00945023993            0.000489321009           
       1.675322             0.00857335414            0.000463069403           
       1.677962             0.00951299774            0.000482405172           
       1.680603             0.00925040442            0.000477164361           
       1.683243             0.00879001482            0.000485285451           
       1.685884             0.00880527595             0.00048929331           
       1.688524             0.00882096627            0.000480262527           
       1.691164             0.00906868922             0.00048707007           
       1.693805             0.00880319074            0.000485159032           
       1.696445             0.00881081712            0.000488184627           
       1.699085             0.00894604165            0.000475433385           
       1.701726             0.00949724619            0.000471895777           
       1.704366             0.00922916283            0.000490062686           
       1.707007             0.00831366238             0.00045475371           
       1.709647             0.00842092934            0.000462846633           
       1.712287             0.00898751421            0.000482326074           
       1.714928             0.00889162151            0.000483614071           
       1.717568             0.00825815653            0.000439038628           
       1.720209             0.00891238437            0.000477730979           
       1.722849             0.00860289509            0.000466949863           
       1.725489              0.0088548674             0.00047413661           
       1.728130               0.008798528            0.000502268833           
       1.730770             0.00956340701            0.000497322681           
       1.733410             0.00889721828            0.000472148003           
       1.736051              0.0086916816            0.000469910722           
       1.738691              0.0090659173            0.000470191917           
       1.741332             0.00886316122            0.000478498455           
       1.743972             0.00820659047            0.000475476526           
       1.746612             0.00801644502            0.000451258251           
       1.749253             0.00847803361            0.000473232803           
       1.751893             0.00885390736             0.00048005965           
       1.754533             0.00829465287            0.000464217016           
       1.757174             0.00830528298            0.000460164443           
       1.759814             0.00822708283            0.000451050647           
       1.762455             0.00887059904            0.000476959039           
       1.765095             0.00820895536            0.000438923395           
       1.767735             0.00851708635            0.000460877787           
       1.770376             0.00857304543            0.000463608326           
       1.773016             0.00849661692             0.00045844567           
       1.775657             0.00838467488             0.00044886286           
       1.778297             0.00878152782            0.000455407053           
       1.780937             0.00855289911             0.00047438339           
       1.783578             0.00835165568            0.000457048006           
       1.786218              0.0079982282            0.000466778032           
       1.788858              0.0094375338            0.000481566268           
       1.791499             0.00813263287            0.000442015253           
       1.794139             0.00914565407            0.000464933859           
       1.796780             0.00905092342            0.000460289935           
       1.799420             0.00955762892            0.000470379532           
       1.802060             0.00953313151            0.000473570848           
       1.804701              0.0092731184            0.000448219662           
       1.807341             0.00880082636            0.000458830792           
       1.809981             0.00763465905            0.000428776722           
       1.812622             0.00973455921            0.000475449698           
       1.815262             0.00916912715            0.000471236828           
       1.817903             0.00863050392            0.000450412328           
       1.820543             0.00826345685            0.000447598041           
       1.823183             0.00925059701            0.000473318368           
       1.825824             0.00800741589              0.0004207087           
       1.828464             0.00844650841            0.000450472189           
       1.831105             0.00845942781            0.000438352452           
       1.833745             0.00779476743            0.000429766029           
       1.836385             0.00846345199            0.000460600919           
       1.839026             0.00828716349            0.000454338649           
       1.841666             0.00810996195            0.000447861183           
       1.844306             0.00784092483            0.000428354225           
       1.846947             0.00866693836            0.000454299841           
       1.849587             0.00824587111            0.000489319393           
       1.852228              0.0084981731            0.000449184136           
       1.854868             0.00807682509             0.00046258406           
       1.857508             0.00812271438            0.000459346461           
       1.860149             0.00807172577              0.0004662219           
       1.862789             0.00840569572            0.000459227284           
       1.865429             0.00828207086            0.000475824904           
       1.868070             0.00675352345            0.000423950937           
       1.870710             0.00930941463             0.00048627493           
       1.873351             0.00896412831            0.000483070683           
       1.875991             0.00840802113             0.00047548203           
       1.878631             0.00819145343            0.000460330035           
       1.881272             0.00752035963            0.000438115327           
       1.883912             0.00823090708            0.000477004376           
       1.886553             0.00775195854            0.000457742745           
       1.889193             0.00802008483            0.000464796161           
       1.891833             0.00704997361            0.000452574005           
       1.894474             0.00772912075            0.000469744898           
       1.897114             0.00873659862            0.000483280855           
       1.899754             0.00754459128            0.000450982396           
       1.902395             0.00844371945            0.000467771275           
       1.905035             0.00798476696            0.000481795194           
       1.907676             0.00735849466            0.000435921757           
       1.910316             0.00832453387            0.000475964813           
       1.912956             0.00720881901            0.000433177357           
       1.915597             0.00851162821            0.000473326112           
       1.918237             0.00799704792            0.000473823944           
       1.920878             0.00839705256            0.000483541878           
       1.923518              0.0081446828            0.000476422183           
       1.926158             0.00754559093            0.000452615077           
       1.928799             0.00847704582            0.000474185482           
       1.931439             0.00836300793            0.000483338641           
       1.934079             0.00687918524             0.00045698777           
       1.936720             0.00782151034            0.000451481987           
       1.939360             0.00752784181             0.00047253939           
       1.942001             0.00766287815            0.000436973883           
       1.944641              0.0086460333            0.000473303196           
       1.947281             0.00849247545             0.00046475756           
       1.949922             0.00793780169            0.000464111754           
       1.952562             0.00857222951            0.000497420373           
       1.955202             0.00756907241            0.000466840248           
       1.957843             0.00769403834            0.000458472212           
       1.960483             0.00811740128            0.000492343074           
       1.963124             0.00804599912            0.000480116816           
       1.965764              0.0067188485            0.000413741367           
       1.968404              0.0068399049            0.000413507758           
       1.971045             0.00736573107            0.000437498117           
       1.973685             0.00738229057            0.000459418424           
       1.976326             0.00811940278             0.00047518712           
       1.978966             0.00751971466            0.000461315424           
       1.981606             0.00762876742             0.00047433898           
       1.984247             0.00762008012            0.000470952053           
       1.986887             0.00871905034            0.000497734525           
       1.989527             0.00787128758              0.0004678252           
       1.992168             0.00784060221            0.000484461214           
       1.994808             0.00776326242            0.000479999513           
       1.997449              0.0077121166            0.000468590739           
       2.000089              0.0085952474            0.000492732083           
       2.002729             0.00766209515            0.000465495745           
       2.005370             0.00715996254            0.000445142564           
       2.008010              0.0075975891            0.000478557091           
       2.010650             0.00690842004            0.000459741625           
       2.013291              0.0076596776            0.000464461402           
       2.015931             0.00736949284            0.000452358026           
       2.018572             0.00761467442             0.00049182246           
       2.021212             0.00829311492            0.000504043168           
       2.023852             0.00817058287            0.000473515734           
       2.026493             0.00729565657            0.000467436369           
       2.029133             0.00695216334            0.000447117221           
       2.031774             0.00764091762            0.000491934656           
       2.034414             0.00724634761            0.000440806147           
       2.037054             0.00759285553            0.000462659381           
       2.039695             0.00768958171            0.000462080538           
       2.042335             0.00773438471             0.00048160003           
       2.044975             0.00766408347             0.00047359241           
       2.047616             0.00830288724            0.000491709991           
       2.050256             0.00734457984            0.000466840568           
       2.052897             0.00777639863              0.0004892242           
       2.055537             0.00701123388            0.000448952791           
       2.058177             0.00727270627            0.000447768736           
       2.060818             0.00784961925            0.000487322185           
       2.063458             0.00748658105            0.000495955568           
       2.066098              0.0082761158            0.000491903854           
       2.068739             0.00693530408            0.000457297091           
       2.071379             0.00878955546            0.000528239045           
       2.074020             0.00704465713            0.000462630727           
       2.076660              0.0073420353            0.000476112386           
       2.079300             0.00781236233            0.000503159003           
       2.081941             0.00736170899            0.000447214389           
       2.084581             0.00786551452            0.000487924099           
       2.087222             0.00740372709            0.000456533966           
       2.089862             0.00737441567            0.000496249895           
       2.092502             0.00813476932            0.000505234619           
       2.095143             0.00720273812            0.000490933036           
       2.097783             0.00733030253            0.000479496302           
       2.100423             0.00733819746             0.00046228757           
       2.103064              0.0076108412            0.000488515339           
       2.105704             0.00700711914             0.00046641779           
       2.108345             0.00782253112            0.000473458082           
       2.110985             0.00659712631            0.000464393318           
       2.113625             0.00743455561            0.000497289717           
       2.116266             0.00802199695            0.000523891717           
       2.118906             0.00817947447            0.000493006666           
       2.121546             0.00845998807            0.000491816127           
       2.124187             0.00724173871            0.000477640181           
       2.126827             0.00708366938            0.000477670884           
       2.129468             0.00765081052            0.000497692701           
       2.132108             0.00717358017            0.000468872109           
       2.134748             0.00795836474            0.000491937688           
       2.137389             0.00774245602            0.000506203651           
       2.140029             0.00700884584            0.000431180226           
       2.142670             0.00805530984            0.000494016293           
       2.145310             0.00740533794            0.000461028003           
       2.147950              0.0075947116            0.000480552545           
       2.150591             0.00754091297            0.000474008213           
       2.153231              0.0067293705            0.000460916105           
       2.155871              0.0073961942            0.000466816115           
       2.158512             0.00766424932             0.00049583758           
       2.161152             0.00701798534            0.000459603464           
       2.163793             0.00874522735            0.000510743741           
       2.166433             0.00748858212            0.000485336766           
       2.169073             0.00718965981            0.000464964117           
       2.171714              0.0074344256            0.000469278031           
       2.174354             0.00757405292            0.000494935472           
       2.176995             0.00708831952            0.000476787427           
       2.179635             0.00749960529            0.000518239249           
       2.182275             0.00781363373            0.000499439183           
       2.184916             0.00722238116            0.000463783207           
       2.187556             0.00741432227            0.000465195727           
       2.190196             0.00767677108            0.000494652234           
       2.192837             0.00752542424            0.000487087298           
       2.195477             0.00721864745            0.000454816093           
       2.198118             0.00705373679             0.00046111103           
       2.200758             0.00755696953            0.000489656347           
       2.203398             0.00797353295            0.000506188688           
       2.206039             0.00763168361            0.000468682771           
       2.208679             0.00768932372            0.000481398025           
       2.211319             0.00615654529            0.000433237177           
       2.213960             0.00862828091            0.000519755987           
       2.216600             0.00768429357            0.000507411691           
       2.219241             0.00775761317            0.000487256539           
       2.221881             0.00746798418            0.000479057154           
       2.224521             0.00789438233            0.000498579191           
       2.227162             0.00733394864            0.000470934146           
       2.229802             0.00726742181            0.000483468435           
       2.232443             0.00637880712            0.000445803005           
       2.235083             0.00653351739            0.000464485307           
       2.237723             0.00712082428             0.00046534417           
       2.240364             0.00756068911            0.000491314222           
       2.243004             0.00716360729            0.000474420952           
       2.245644             0.00732185571            0.000484433299           
       2.248285             0.00727647772            0.000473255289           
       2.250925              0.0075471459            0.000484904743           
       2.253566             0.00736292433            0.000512034274           
       2.256206             0.00705851803            0.000491313715           
       2.258846             0.00692924851            0.000463075723           
       2.261487              0.0072752656            0.000498028503           
       2.264127             0.00725951423            0.000480467081           
       2.266767             0.00774385535            0.000509457327           
       2.269408             0.00751156643            0.000503812882           
       2.272048             0.00685300189            0.000478348384           
       2.274689               0.007367765            0.000502523993           
       2.277329             0.00659566403            0.000447680557           
       2.279969             0.00748693749            0.000507707262           
       2.282610              0.0072582997            0.000485991476           
       2.285250             0.00709441588            0.000459878521           
       2.287891             0.00725733911            0.000498688626           
       2.290531             0.00722824528            0.000504378295           
       2.293171             0.00762527187            0.000504622824           
       2.295812               0.007262208            0.000490483419           
       2.298452             0.00680468613            0.000496495562           
       2.301092             0.00745977214            0.000483000138           
       2.303733             0.00764762153            0.000508776286           
       2.306373             0.00755316485            0.000513587376           
       2.309014             0.00704722121            0.000486410542           
       2.311654             0.00723284343            0.000514233971           
       2.314294             0.00814601788            0.000502784316           
       2.316935             0.00663388599             0.00045559988           
       2.319575             0.00784668238            0.000519168093           
       2.322215             0.00712503456            0.000515580543           
       2.324856             0.00678283312            0.000462499582           
       2.327496             0.00680087463            0.000492435894           
       2.330137             0.00734751672            0.000489796408           
       2.332777             0.00735544417            0.000505304689           
       2.335417               0.007756972            0.000503423705           
       2.338058             0.00659057986            0.000477895227           
       2.340698             0.00733669033            0.000500258677           
       2.343339             0.00655942015            0.000483426749           
       2.345979             0.00765503833             0.00049408229           
       2.348619              0.0072307399            0.000497747088           
       2.351260             0.00703262014            0.000488020687           
       2.353900             0.00683776993            0.000479688113           
       2.356540             0.00765467939            0.000506813632           
       2.359181             0.00717554902            0.000483816504           
       2.361821             0.00757647167            0.000480232732           
       2.364462             0.00749976377            0.000499714303           
       2.367102             0.00656724274            0.000480550418           
       2.369742             0.00755919852            0.000542670111           
       2.372383             0.00716600317            0.000478435941           
       2.375023             0.00688496867            0.000492979128           
       2.377663             0.00680730835            0.000468694493           
       2.380304             0.00714235099            0.000488095008           
       2.382944             0.00694148877            0.000458311376           
       2.385585             0.00661297854            0.000477090489           
       2.388225             0.00661329361            0.000474859974           
       2.390865             0.00795013639            0.000515299483           
       2.393506             0.00726353111             0.00048325301           
       2.396146             0.00699700943            0.000512839015           
       2.398787             0.00804953095            0.000506923036           
       2.401427             0.00728705055            0.000465547165           
       2.404067             0.00652942251             0.00045051154           
       2.406708             0.00652687069            0.000445022186           
       2.409348             0.00716595863            0.000494603385           
       2.411988             0.00730754828            0.000489366024           
       2.414629             0.00780699281            0.000521565802           
       2.417269             0.00659241222            0.000484875824           
       2.419910             0.00660314264            0.000486396325           
       2.422550             0.00750740167            0.000496195647           
       2.425190             0.00645935087            0.000485161353           
       2.427831             0.00770759255            0.000526990669           
       2.430471             0.00762965922            0.000499515732           
       2.433112             0.00666190963            0.000454515427           
       2.435752             0.00764240844            0.000515202769           
       2.438392             0.00608020611            0.000443548879           
       2.441033             0.00749354662            0.000521854635           
       2.443673             0.00782704408            0.000533750724           
       2.446313             0.00706564128            0.000507572547           
       2.448954              0.0074322894            0.000495660546           
       2.451594             0.00599307207             0.00047857571           
       2.454235             0.00732959232            0.000496577281           
       2.456875             0.00739232784            0.000521816752           
       2.459515             0.00743473562            0.000536858513           
       2.462156             0.00694405831            0.000489857567           
       2.464796             0.00738134939            0.000498530172           
       2.467436             0.00795934479            0.000535342954           
       2.470077             0.00754108443            0.000493896004           
       2.472717             0.00792132602            0.000508387382           
       2.475358             0.00842569952            0.000529790021           
       2.477998             0.00705057912            0.000476463001           
       2.480638             0.00722726739            0.000490967899           
       2.483279             0.00650231388            0.000486723749           
       2.485919             0.00675985237             0.00047826868           
       2.488560             0.00706428127            0.000487553348           
       2.491200             0.00707880716            0.000502567003           
       2.493840              0.0068289992            0.000522314257           
       2.496481             0.00653101867             0.00050243624           
       2.499121              0.0062464119            0.000477932682           
       2.501761             0.00641873153            0.000490899314           
       2.504402              0.0072882302            0.000515450584           
       2.507042             0.00725501801            0.000510465089           
       2.509683             0.00605073889            0.000459052355           
       2.512323             0.00821517167            0.000561769787           
       2.514963             0.00662621499            0.000498292008           
       2.517604             0.00875446449            0.000594317379           
       2.520244             0.00766566851             0.00052137569           
       2.522884             0.00798182102            0.000539626891           
       2.525525              0.0125556147            0.000684483753           
       2.528165             0.00867285541             0.00056001833           
       2.530806             0.00717619004            0.000518289959           
       2.533446              0.0062997871            0.000475246231           
       2.536086             0.00682837461            0.000490354102           
       2.538727             0.00709619699            0.000479556905           
       2.541367              0.0072650816            0.000490009657           
       2.544008             0.00697155047            0.000495731779           
       2.546648                 0.0063824            0.000482458802           
       2.549288             0.00658036929            0.000499865913           
       2.551929             0.00694906666            0.000505490661           
       2.554569             0.00693101018            0.000486364823           
       2.557209             0.00702065771            0.000493995563           
       2.559850             0.00796363223            0.000527815479           
       2.562490             0.00732312152            0.000523127667           
       2.565131             0.00700059397            0.000530323489           
       2.567771             0.00814748356            0.000551607083           
       2.570411             0.00727131877            0.000515466048           
       2.573052              0.0077940467            0.000540393549           
       2.575692             0.00707861298            0.000511876126           
       2.578332             0.00697951989            0.000510382508           
       2.580973               0.007414179            0.000521029829           
       2.583613             0.00655596097            0.000478281046           
       2.586254             0.00706793837            0.000495915157           
       2.588894             0.00742983935            0.000528004052           
       2.591534             0.00699641222            0.000530400983           
       2.594175              0.0075030552            0.000538904748           
       2.596815             0.00725315623            0.000532978442           
       2.599456              0.0075103671             0.00051430451           
       2.602096              0.0066869143            0.000488984662           
       2.604736             0.00752497357            0.000531022253           
       2.607377             0.00691859331            0.000495758928           
       2.610017             0.00651593152            0.000472696749           
       2.612657             0.00733225139            0.000533349754           
       2.615298             0.00650912577            0.000490619195           
       2.617938             0.00741602571            0.000560207418           
       2.620579             0.00702001489            0.000523237559           
       2.623219             0.00676584138             0.00051294557           
       2.625859             0.00635805174            0.000483463819           
       2.628500             0.00732839289            0.000515644421           
       2.631140             0.00712944007            0.000516433457           
       2.633780             0.00763125473            0.000533834858           
       2.636421              0.0066611096            0.000511014433           
       2.639061             0.00770999012            0.000517552117           
       2.641702             0.00689421287             0.00050073632           
       2.644342              0.0067113048            0.000496154364           
       2.646982             0.00712178673            0.000503461417           
       2.649623                0.00710406             0.00052695031           
       2.652263             0.00712393709            0.000522391678           
       2.654904             0.00779961098            0.000547153746           
       2.657544             0.00680821999            0.000481496102           
       2.660184             0.00671524778            0.000506071863           
       2.662825             0.00750078078            0.000547261466           
       2.665465              0.0070297303            0.000512402695           
       2.668105              0.0070808529            0.000542052394           
       2.670746             0.00679836068            0.000490650572           
       2.673386             0.00773467762            0.000539352999           
       2.676027             0.00820196361            0.000546492559           
       2.678667              0.0101898224            0.000594356762           
       2.681307              0.0122878846            0.000641298407           
       2.683948              0.0136573637            0.000694651977           
       2.686588              0.0116341763             0.00063050583           
       2.689229             0.00950877388            0.000556991576           
       2.691869             0.00943678788            0.000586452164           
       2.694509              0.0090664879            0.000575146675           
       2.697150             0.00748063341             0.00051395427           
       2.699790             0.00806449568            0.000559439112           
       2.702430             0.00677295883            0.000490068419           
       2.705071             0.00687911183             0.00051034616           
       2.707711             0.00671394155            0.000489346536           
       2.710352             0.00675875442            0.000518778562           
       2.712992             0.00747722024            0.000555744987           
       2.715632             0.00739626402            0.000512822166           
       2.718273              0.0069354224            0.000514647605           
       2.720913             0.00710131881            0.000519284707           
       2.723553             0.00685539102            0.000513637017           
       2.726194             0.00697815664            0.000541706207           
       2.728834             0.00803255168             0.00058146547           
       2.731475             0.00838911695            0.000548423089           
       2.734115             0.00737663409            0.000530225141           
       2.736755             0.00667385233             0.00050848653           
       2.739396             0.00665185846            0.000504706739           
       2.742036             0.00620540617            0.000510173964           
       2.744677             0.00694583753             0.00052370972           
       2.747317             0.00650101199            0.000503049677           
       2.749957             0.00713973296            0.000530882653           
       2.752598             0.00668368666             0.00051922238           
       2.755238             0.00738345748            0.000555578362           
       2.757878             0.00772895158            0.000563458441           
       2.760519             0.00830690934            0.000577952063           
       2.763159              0.0110143907            0.000658855964           
       2.765800             0.00794854338            0.000533383785           
       2.768440             0.00845827718            0.000554274198           
       2.771080             0.00903873289            0.000577760088           
       2.773721             0.00745049431            0.000538080677           
       2.776361             0.00790456501            0.000561881081           
       2.779001             0.00627442623            0.000518423914           
       2.781642             0.00742643034            0.000559855159           
       2.784282             0.00648487377            0.000531765092           
       2.786923             0.00581348582            0.000507919053           
       2.789563             0.00727160741            0.000547104971           
       2.792203             0.00745953317            0.000529351913           
       2.794844             0.00567012735            0.000505812025           
       2.797484             0.00702924643              0.0005315044           
       2.800125              0.0073341668            0.000570870096           
       2.802765             0.00711871424            0.000552746926           
       2.805405             0.00564798777            0.000494014693           
       2.808046             0.00773655742            0.000588349282           
       2.810686             0.00716892716            0.000520414019           
       2.813326             0.00729439079            0.000545276259           
       2.815967             0.00732101794            0.000561802628           
       2.818607             0.00623421636            0.000494723022           
       2.821248             0.00654200997            0.000496267135           
       2.823888             0.00713786535             0.00053808644           
       2.826528             0.00690868964             0.00051267623           
       2.829169             0.00734210966            0.000553587871           
       2.831809              0.0066425858            0.000533718497           
       2.834449             0.00741506646            0.000567462503           
       2.837090             0.00623760981            0.000502683425           
       2.839730             0.00601441516            0.000491197961           
       2.842371             0.00603358367            0.000492690135           
       2.845011             0.00546322225            0.000472561855           
       2.847651             0.00746962556             0.00055324398           
       2.850292             0.00617065534            0.000507778574           
       2.852932             0.00636126608            0.000526797344           
       2.855573             0.00647868101            0.000515702756           
       2.858213             0.00738505201            0.000578192417           
       2.860853             0.00716127696            0.000529640352           
       2.863494             0.00671171521            0.000530877321           
       2.866134             0.00683428228            0.000556796597           
       2.868774             0.00670153948            0.000541876546           
       2.871415             0.00682269849            0.000555269447           
       2.874055             0.00656536985            0.000520662964           
       2.876696             0.00783650387            0.000584223816           
       2.879336             0.00685822812            0.000526762018           
       2.881976             0.00770183053            0.000575765548           
       2.884617             0.00716254776            0.000547087616           
       2.887257             0.00705814963            0.000545889098           
       2.889897             0.00788801077            0.000565211864           
       2.892538             0.00743632041            0.000601201972           
       2.895178             0.00719061287            0.000534097358           
       2.897819             0.00680460396            0.000530004749           
       2.900459             0.00638921059            0.000503582094           
       2.903099              0.0066422574            0.000508201713           
       2.905740             0.00691067007            0.000531779536           
       2.908380             0.00691076747            0.000537825574           
       2.911021             0.00753069299            0.000570558163           
       2.913661              0.0074674422            0.000567986816           
       2.916301             0.00640238059            0.000526425632           
       2.918942             0.00706092611            0.000528802204           
       2.921582             0.00671415725            0.000539522377           
       2.924222             0.00757626988            0.000555237763           
       2.926863             0.00640552743            0.000531785054           
       2.929503             0.00758702592            0.000585611365           
       2.932144             0.00763136501            0.000563791328           
       2.934784             0.00680433448            0.000523636475           
       2.937424             0.00669745286            0.000524841272           
       2.940065             0.00603499858            0.000475244495           
       2.942705             0.00777199643            0.000538641242           
       2.945346             0.00711441312            0.000546917487           
       2.947986             0.00629476112            0.000524559428           
       2.950626             0.00678259073            0.000541440495           
       2.953267             0.00736696093            0.000555165881           
       2.955907             0.00710414976            0.000565542454           
       2.958547             0.00738624022            0.000544397934           
       2.961188             0.00589471097            0.000507383763           
       2.963828             0.00672821783            0.000530244613           
       2.966469             0.00733796412            0.000543227203           
       2.969109             0.00783037233            0.000569472106           
       2.971749             0.00744942425            0.000551981904           
       2.974390             0.00664251722            0.000512204362           
       2.977030             0.00835183082             0.00058717373           
       2.979670             0.00890566086             0.00058977239           
       2.982311             0.00901471743            0.000615000746           
       2.984951             0.00634140321            0.000490583525           
       2.987592             0.00703956035            0.000527236705           
       2.990232             0.00657271133            0.000529826881           
       2.992872             0.00790615779            0.000547355259           
       2.995513              0.0073995728            0.000518053813           
       2.998153              0.0100884831            0.000615064369           
       3.000794              0.0112514978            0.000629156215           
       3.003434              0.0118809672            0.000647492072           
       3.006074              0.0453084952             0.00124671814           
       3.008715               0.123519361             0.00198707559           
       3.011355               0.183470639             0.00233535387           
       3.013995              0.0938815173             0.00167509508           
       3.016636              0.0599003614             0.00131024321           
       3.019276               0.129159821             0.00189123476           
       3.021917               0.487455366             0.00353281049           
       3.024557                1.65434088              0.0063987537           
       3.027197                1.14030861             0.00517935003           
       3.029838               0.513910513              0.0035263451           
       3.032478               0.259186297              0.0025068505           
       3.035118              0.0693648962             0.00131425632           
       3.037759              0.0959884811             0.00154404185           
       3.040399               0.134672152             0.00188654932           
       3.043040               0.534481196             0.00380440218           
       3.045680               0.396793259             0.00308408619           
       3.048320              0.0820223428             0.00143270777           
       3.050961               0.105096286             0.00165033059           
       3.053601               0.084900063             0.00142860521           
       3.056242              0.0550784202             0.00122340153           
       3.058882              0.0456903016             0.00119528044           
       3.061522              0.0371713396             0.00105775159           
       3.064163              0.0424142449             0.00111566015           
       3.066803               0.103408232             0.00183397394           
       3.069443               0.100076186             0.00188763929           
       3.072084              0.0556140681             0.00137020611           
       3.074724              0.0420448538             0.00133049844           
       3.077365              0.0826273823             0.00193078327           
       3.080005              0.0183848634             0.00091591614           
       3.082645             0.00986493449            0.000704820178           
       3.085286              0.0127690114            0.000808207453           
       3.087926             0.00872350396            0.000662871814           
       3.090566              0.0095616446            0.000679971806           
       3.093207              0.0103637682             0.00073666278           
       3.095847              0.0083642726            0.000634321076           
       3.098488             0.00828323937            0.000699938165           
       3.101128             0.00935696347            0.000748705591           
       3.103768             0.00932655924            0.000733425288           
       3.106409             0.00725129463            0.000688262863           
       3.109049             0.00823442839            0.000703843936           
       3.111690             0.00749304752            0.000659885642           
       3.114330             0.00827738872            0.000708317686           
       3.116970              0.0070181261            0.000657223973           
       3.119611              0.0123334229            0.000927392072           
       3.122251              0.0214806358             0.00128023813           
       3.124891              0.0370960885             0.00169807886           
       3.127532              0.0231988858             0.00131369775           
       3.130172              0.0134068081             0.00101593245           
       3.132813             0.00952251286            0.000842904609           
       3.135453             0.00760105739            0.000746874218           
       3.138093             0.00593045165            0.000714821233           
       3.140734             0.00689721215               0.000711202           
       3.143374             0.00689136527            0.000751808352           
       3.146014              0.0058961884            0.000748639294           
       3.148655              0.0068207408            0.000748506147           
       3.151295             0.00643587771            0.000774819696           
       3.153936             0.00607550551            0.000727196095           
       3.156576             0.00532619581            0.000671616039           
       3.159216             0.00589238592             0.00070994536           
       3.161857             0.00626023792            0.000728792112           
       3.164497             0.00692228814            0.000805224006           
       3.167138             0.00709340675            0.000842213553           
       3.169778             0.00637508449            0.000785264493           
       3.172418             0.00613159452            0.000762288913           
       3.175059             0.00512699247            0.000617964757           
       3.177699             0.00532058224            0.000666627306           
       3.180339             0.00583692664            0.000748094362           
       3.182980             0.00532162166             0.00073852316           
       3.185620             0.00616117543            0.000809279692           
       3.188261             0.00537850758            0.000769625687           
       3.190901             0.00699846952            0.000807422783           
       3.193541             0.00563132888            0.000761040829           
       3.196182             0.00580009159            0.000804910218           
       3.198822              0.0053474064            0.000773120432           
       3.201463             0.00539570567            0.000763224307           
       3.204103             0.00746299628            0.000892142666           
       3.206743              0.0052182736            0.000745933917           
       3.209384             0.00560703083            0.000835398815           
       3.212024               0.004537211             0.00070062222           
       3.214664             0.00572434219            0.000894884724           
       3.217305             0.00453860837            0.000757441914           
       3.219945             0.00630062665            0.000918552852           
       3.222586             0.00265161621            0.000567577302           
       3.225226             0.00629498491            0.000970137659           
       3.227866             0.00449382854            0.000749179159           
       3.230507              0.0072298715            0.000985048898           
       3.233147             0.00709267617              0.0009835362           
       3.235787              0.0069778351            0.000998344567           
       3.238428             0.00648038863             0.00103822865           
       3.241068             0.00508259661            0.000859745667           
       3.243709             0.00589755186            0.000956819848           
       3.246349             0.00568521789            0.000856384785           
       3.248989             0.00611776456             0.00104896203           
       3.251630             0.00649505311             0.00104080346           
       3.254270             0.00841709999             0.00105892302           
       3.256911             0.00394884129            0.000791383349           
       3.259551             0.00478018258             0.00093739865           
       3.262191             0.00629956317             0.00109919422           
       3.264832             0.00375542906            0.000886753725           
       3.267472             0.00624258056             0.00107252626           
       3.270112             0.00556965432              0.0011195728           
       3.272753             0.00529303676            0.000998999931           
       3.275393             0.00625273589             0.00110788969           
       3.278034             0.00545892867             0.00103576118           
       3.280674             0.00323005075            0.000864561524           
       3.283314             0.00370103238            0.000827679671           
       3.285955             0.00609258039             0.00109569269           
       3.288595             0.00511840002             0.00111730021           
       3.291235             0.00540065962             0.00117981978           
       3.293876             0.00798080368             0.00145482898           
       3.296516             0.00414921698             0.00100705475           
       3.299157             0.00667328933             0.00126109685           
       3.301797             0.00832707152             0.00160690524           
       3.304437             0.00606447905             0.00118809112           
       3.307078             0.00478478418             0.00116250001           
       3.309718              0.0053898562             0.00127351973           
       3.312359             0.00542453453             0.00127791357           
       3.314999             0.00698087397             0.00142733845           
       3.317639             0.00508097908             0.00116459506           
       3.320280             0.00421848957             0.00112822911           
       3.322920             0.00560488712             0.00132236398           
       3.325560              0.0055780439             0.00132008985           
       3.328201             0.00556428248             0.00118743256           
       3.330841             0.00525620098             0.00140460185           
       3.333482             0.00705707547             0.00153839173           
       3.336122             0.00500370672             0.00129598528           
       3.338762             0.00805274001             0.00189918032           
       3.341403             0.00982373534             0.00200438695           
       3.344043             0.00599764756              0.0015036344           
       3.346683             0.00783327059              0.0017543426           
       3.349324             0.00448506339             0.00149252138           
       3.351964             0.00552135105             0.00175115265           
       3.354605             0.00509033566             0.00192295334           
       3.357245             0.00412707487              0.0015619764           
       3.359885             0.00418483779             0.00125886217           
       3.362526             0.00412490754             0.00156294685           
       3.365166             0.00420039522             0.00148758918           
       3.367807             0.00688802348             0.00243795814           
       3.370447             0.00474625902             0.00167872005           
       3.373087             0.00534378419             0.00190482144           
       3.375728             0.00865914195             0.00273656945           
       3.378368             0.00767020833             0.00382245625           
       3.381008             0.00530775702             0.00237067815           
       3.383649             0.00335738867             0.00151252426           
       3.386289            0.000922485024            0.000938343268           
       3.388930           -2.55162707e-05                         0           
       3.391570             0.00356090881             0.00206285314           
       3.394210             0.00574533766             0.00331600846           
       3.396851              0.0071733442              0.0041446941           
       3.399491           -2.56019997e-05                         0           
       3.402131             0.00949853648             0.00674960838           
       3.404772           -2.56357739e-05                         0           
       3.407412                       nan                       nan           
       3.410053              0.0179858201              0.0131543474           
       3.412693                       nan                       nan           
       3.415333             0.00872417094             0.00917024281           
