################################################################################
# EDF_DataBlockID                     0.Image.Psd
# EDF_BinarySize                      4366944
# EDF_HeaderSize                      2560
# ByteOrder                           LowByteFirst
# DataType                            FloatValue
# Dim_1                               1028
# Dim_2                               1062
# Image                               0
# HeaderID                            EH:000000:000000:000000
# Size                                4366944
# Center_1                            607.5200
# Center_2                            651.5500
# Comment                             Xenocs_Cell_Window - 20251028_20perc_iodine_1.23mg
# DDummy                              0.6
# Date                                2025-11-02T21:34:33
# Delta                               0
# Dummy                               -1.5
# ExposureTime                        360
# Gamma                               0
# Intensity1                          8.87144e-10
# PSize_1                             7.5e-05
# PSize_2                             7.5e-05
# Pressure                            0.0327234
# SampleDistance                      0.450002
# SampleEnvKind                       large
# SampleEnvPN                         ElectroChemical cell
# SampleEnvSN                         1141
# Thickness                           0
# Wavelength                          1.541891e-10
# Wavelength                          1.54189e-10
# aux                                 0
# aux_dial                            0.002375
# beamx                               588.434
# beamx_dial                          588.434
# beamz                               657.808
# beamz_dial                          657.808
# det0x                               0
# det0x_dial                          6.36945
# det0xvd                             0
# det0xvd_dial                        0
# det0y                               450.002
# det0y_dial                          481.635
# det0z                               0
# det0z_dial                          1.23302
# det0zvd                             0
# det0zvd_dial                        0
# mag                                 1.818
# mag_dial                            1.818
# om                                  0.2499
# om_dial                             -0.610199
# phi                                 -0.0120535
# phi_dial                            0
# ry                                  0.599993
# ry_dial                             0.599993
# s1bot                               0.8
# s1bot_dial                          -1.66094
# s1hl                                0.8
# s1hl_dial                           -0.608437
# s1hr                                0.8
# s1hr_dial                           0.970938
# s1top                               0.8
# s1top_dial                          -0.461562
# s2bot                               0.45
# s2bot_dial                          1.36109
# s2hl                                0.45
# s2hl_dial                           -0.83375
# s2hr                                0.45
# s2hr_dial                           -0.118594
# s2top                               0.45
# s2top_dial                          1.44734
# w2theta                             32
# w2theta_dial                        32
# waxsch                              19.2605
# waxsch_dial                         -32.7355
# waxsh                               137.085
# waxsh_dial                          -43.5338
# waxsth                              26.0607
# waxsth_dial                         -19.4086
# waxsz                               67.0407
# waxsz_dial                          -23.7954
# wind                                65.9854
# wind_dial                           66.0041
# wpsi                                124
# wpsi_dial                           124
# wstod                               115
# wstod_dial                          115
# x                                   0
# x_dial                              1.00969
# z                                   0
# z_dial                              13.3172
# CountCutoff                         15302352
# DetectorModel                       Dectris EIGER2 Si 1M, S/N E-02-0362
# ThresholdSetting                    4023.88989258
# Saturation                          0
# FlatField                           Corrected
# BackgroundReductionExtra            0.02
# BackgroundCorrectionConstant        0.0026712
# Detector                            0
# Monitor                             0
# Pil_Roi0                            0
# SumForIntensity1                    3.19372e+08
# TransmittedFlux                     887144
# det                                 0
# mon                                 0
# pilai0                              3.19372e+08
# pilai1                              798711
# pilct0                              5.5123e+08
# pilct1                              798711
# pilroi0                             0
# pilroi1                             0
# sec                                 1
# title                               20251028_20perc_iodine_1.23mg_0_01156.edf
# usaxs0                              0
# Operation                           Azimuthal average I(q)
# Error_model                         ErrorModel.poisson
# Geometrical_correction              True
# Transmission_correction             True
# Thickness_correction                False
# Binning mode                        Uniform
# Binning factor                      1.0
# Psi                                 0.0
# Omega                               0.2499
# MaskInvalidPixels                   True
# DetectorEdge                        3
# MaskFiles                           ['20251028_20perc_iodine_1.23mg_0_00012_mask.edf']
################################################################################
    q(A⁻¹)                Intensity(a.u.)            Sigma_I(a.u.)            
       0.000340                 373169.68                118.412466           
       0.001019                359727.762                71.1945706           
       0.001698                350247.028                49.6743466           
       0.002377                331072.874                43.1968201           
       0.003056                307286.926                35.1720817           
       0.003735                253730.953                 28.186465           
       0.004415                204225.297                25.2876667           
       0.005094                151887.513                 18.886252           
       0.005773                99602.1493                14.1594327           
       0.006452                57757.5799                10.3310689           
       0.007131                32230.6727                7.47625089           
       0.007810                16338.2431                5.28246661           
       0.008490                8312.21354                3.33983469           
       0.009169                4047.09855                2.30318687           
       0.009848                1265.17284                1.24505285           
       0.010527                495.174156               0.778918649           
       0.011206                123.387801               0.371092981           
       0.011885                56.1746702               0.232640306           
       0.012564                25.1123949                0.15969471           
       0.013244                17.0146321               0.122890332           
       0.013923                12.3268066               0.106287304           
       0.014602                 9.2744743              0.0855038509           
       0.015281                7.26655433              0.0770431729           
       0.015960                6.13465086              0.0702814562           
       0.016639                4.85790596              0.0590588517           
       0.017319                4.13295494               0.053627007           
       0.017998                3.46788459              0.0469955683           
       0.018677                2.77398022              0.0435332827           
       0.019356                2.45332525              0.0404525968           
       0.020035                2.12254248              0.0353012671           
       0.020714                1.86127585              0.0334071714           
       0.021394                1.54847643              0.0288307863           
       0.022073                 1.3750231              0.0282662727           
       0.022752                1.22119195              0.0254823243           
       0.023431                1.08296921              0.0232933752           
       0.024110               0.993144808              0.0232561256           
       0.024789               0.878721035              0.0203159337           
       0.025469               0.803648628              0.0200214925           
       0.026148               0.714470425              0.0177374183           
       0.026827                0.66106286              0.0173346278           
       0.027506               0.634692035              0.0172302942           
       0.028185               0.553072749               0.015338702           
       0.028864               0.511481996              0.0146679346           
       0.029544               0.472259798              0.0136675302           
       0.030223               0.433003332              0.0132748164           
       0.030902               0.398577435               0.012852733           
       0.031581               0.369971914                0.01177133           
       0.032260               0.342993935               0.011527151           
       0.032939               0.304461842              0.0104717773           
       0.033619               0.296515982              0.0104861068           
       0.034298               0.283751823              0.0099826245           
       0.034977               0.251717559             0.00921748371           
       0.035656               0.247855088             0.00938856216           
       0.036335               0.215167756             0.00848407272           
       0.037014               0.201376387             0.00823215569           
       0.037693               0.206099718              0.0080115607           
       0.038373                 0.1814947             0.00759191845           
       0.039052               0.185231975             0.00770231738           
       0.039731               0.170974368             0.00722750029           
       0.040410               0.145920585             0.00663222649           
       0.041089               0.137511213             0.00633743281           
       0.041768               0.149074733             0.00663299092           
       0.042448               0.133035351             0.00621738626           
       0.043127               0.135512498             0.00612680122           
       0.043806               0.123084608             0.00588263865           
       0.044485               0.122493056             0.00574792719           
       0.045164               0.125066562             0.00592246389           
       0.045843               0.109368267             0.00531191365           
       0.046523               0.112153416             0.00539769934           
       0.047202               0.104336952             0.00524258811           
       0.047881              0.0924074479             0.00483863972           
       0.048560              0.0923102654             0.00488017455           
       0.049239              0.0909406802             0.00465095695           
       0.049918              0.0872833844             0.00464554946           
       0.050598              0.0995285225             0.00488629758           
       0.051277              0.0862061948             0.00453309773           
       0.051956              0.0805034723              0.0043530869           
       0.052635              0.0768585136             0.00416313203           
       0.053314              0.0708923454             0.00411518406           
       0.053993              0.0698193078             0.00397191089           
       0.054673              0.0725254693             0.00395797903           
       0.055352              0.0782255993             0.00417095418           
       0.056031              0.0702476026             0.00386949558           
       0.056710              0.0674526249             0.00388465169           
       0.057389              0.0677661932             0.00375470949           
       0.058068               0.059161322              0.0035443995           
       0.058748              0.0653214841             0.00377081899           
       0.059427              0.0695583113             0.00382530639           
       0.060106              0.0647583806             0.00372589671           
       0.060785               0.065082184             0.00362328482           
       0.061464              0.0637870378             0.00367351291           
       0.062143              0.0575228004             0.00345303634           
       0.062822              0.0563381336               0.003377193           
       0.063502              0.0544980953             0.00331565017           
       0.064181              0.0504921806             0.00315776398           
       0.064860              0.0547163292             0.00333726707           
       0.065539              0.0501006244              0.0031621788           
       0.066218              0.0516073774             0.00314065856           
       0.066897              0.0515408871              0.0031628639           
       0.067577              0.0475059901             0.00306571085           
       0.068256              0.0430390941             0.00298970189           
       0.068935              0.0511088536             0.00320527062           
       0.069614              0.0438608934             0.00299886772           
       0.070293              0.0458679771             0.00309499312           
       0.070972              0.0469592918             0.00310866644           
       0.071652              0.0397449701              0.0028651694           
       0.072331              0.0410617772             0.00286034312           
       0.073010              0.0490294729              0.0031969762           
       0.073689               0.041304841             0.00291822099           
       0.074368               0.050787024             0.00323000744           
       0.075047              0.0392143452             0.00280773662           
       0.075727              0.0480617405             0.00308917793           
       0.076406              0.0380570096             0.00280375704           
       0.077085              0.0431963552              0.0029312538           
       0.077764              0.0417008584              0.0028699737           
       0.078443              0.0384124746             0.00277154641           
       0.079122              0.0380631899             0.00273241284           
       0.079802              0.0360768393             0.00268837464           
       0.080481              0.0338890262             0.00251769306           
       0.081160              0.0365150846             0.00266704864           
       0.081839              0.0371389689             0.00264667469           
       0.082518              0.0372339139             0.00265228748           
       0.083197              0.0342319117             0.00250360519           
       0.083876              0.0356136747             0.00251120147           
       0.084556              0.0357484185             0.00258591885           
       0.085235              0.0300671552             0.00232573261           
       0.085914              0.0314135841             0.00240032937           
       0.086593              0.0335453467             0.00246447295           
       0.087272              0.0387351179             0.00261082454           
       0.087951              0.0365108663             0.00259201446           
       0.088631              0.0322526616             0.00235320114           
       0.089310              0.0325860852              0.0024155007           
       0.089989              0.0335723586              0.0024231194           
       0.090668              0.0320234436             0.00239268469           
       0.091347               0.030539456             0.00234966998           
       0.092026               0.029740747             0.00221634092           
       0.092706              0.0306901779             0.00233316057           
       0.093385              0.0309313803             0.00230634185           
       0.094064               0.030653294             0.00232267253           
       0.094743              0.0290582151             0.00222697154           
       0.095422              0.0308534181             0.00226914256           
       0.096101              0.0283541272             0.00222009644           
       0.096781              0.0299323654             0.00224838606           
       0.097460              0.0290451163             0.00215439526           
       0.098139              0.0338650803             0.00230839574           
       0.098818              0.0247922152             0.00195078946           
       0.099497              0.0267312927             0.00202980105           
       0.100176              0.0324716813             0.00217843915           
       0.100856              0.0291128938             0.00206137664           
       0.101535              0.0301503812             0.00209373955           
       0.102214               0.032477233             0.00217304367           
       0.102893              0.0317239917             0.00212322583           
       0.103572              0.0281859019              0.0019717625           
       0.104251              0.0232729084             0.00179831345           
       0.104931              0.0313763584             0.00206904238           
       0.105610              0.0260639156             0.00189381071           
       0.106289              0.0231927832             0.00175672992           
       0.106968              0.0267234807             0.00189130712           
       0.107647              0.0237740951             0.00178495849           
       0.108326              0.0261413957             0.00184667879           
       0.109005              0.0229477767             0.00171931793           
       0.109685              0.0267283004             0.00183473167           
       0.110364              0.0242251285             0.00176654547           
       0.111043              0.0233163443             0.00172622194           
       0.111722              0.0247221604             0.00175577407           
       0.112401              0.0238143384             0.00172802773           
       0.113080              0.0228026111             0.00167154551           
       0.113760              0.0223075292             0.00168091453           
       0.114439              0.0267107747              0.0018130941           
       0.115118              0.0252594427              0.0017498543           
       0.115797              0.0237576503             0.00171276024           
       0.116476              0.0254071866             0.00174471244           
       0.117155              0.0254354256             0.00175976136           
       0.117835              0.0239524499             0.00167374234           
       0.118514              0.0238663641              0.0016919159           
       0.119193              0.0228817674             0.00165666065           
       0.119872              0.0223164536             0.00161560682           
       0.120551              0.0206604277              0.0015441525           
       0.121230              0.0217428587             0.00156814521           
       0.121910              0.0213605249             0.00156931852           
       0.122589              0.0202169317             0.00152830506           
       0.123268              0.0250468368             0.00166814027           
       0.123947              0.0234027622             0.00162289111           
       0.124626              0.0227402183             0.00158019382           
       0.125305              0.0227368045             0.00158782911           
       0.125985              0.0234612863             0.00160041242           
       0.126664              0.0253642105             0.00164820044           
       0.127343              0.0228823316             0.00158363311           
       0.128022              0.0221134793              0.0015448599           
       0.128701              0.0213488585              0.0015100094           
       0.129380              0.0192373811             0.00141544048           
       0.130059              0.0208933736             0.00147853067           
       0.130739              0.0206569528             0.00148048009           
       0.131418              0.0216104284             0.00151002282           
       0.132097              0.0209498974             0.00146769903           
       0.132776              0.0222914889             0.00150712909           
       0.133455              0.0210037205             0.00147431434           
       0.134134              0.0211577574             0.00147499839           
       0.134814              0.0211378135             0.00145911224           
       0.135493              0.0238309111             0.00155554656           
       0.136172              0.0200755933             0.00141695455           
       0.136851              0.0212088987             0.00146487066           
       0.137530              0.0234964616             0.00150521588           
       0.138209              0.0237349436             0.00153059681           
       0.138889              0.0214910275             0.00146286909           
       0.139568              0.0221360453             0.00148401794           
       0.140247              0.0207187723              0.0014338431           
       0.140926                0.01935466             0.00134621265           
       0.141605              0.0236271849             0.00152518536           
       0.142284              0.0205314669             0.00139820154           
       0.142964              0.0180152488             0.00131473382           
       0.143643              0.0212988159             0.00142773123           
       0.144322              0.0176392911             0.00127211132           
       0.145001              0.0208830717             0.00141255668           
       0.145680              0.0198992226             0.00134625867           
       0.146359              0.0189421596             0.00131828996           
       0.147039              0.0222461673             0.00144040511           
       0.147718               0.018094935             0.00127764261           
       0.148397              0.0174615012             0.00127458386           
       0.149076              0.0213401803             0.00136533974           
       0.149755              0.0181285335             0.00127784317           
       0.150434              0.0181625626             0.00127956396           
       0.151114              0.0202812599             0.00134465884           
       0.151793              0.0180690242              0.0012692174           
       0.152472              0.0204278385              0.0013256836           
       0.153151              0.0177371936             0.00124723894           
       0.153830              0.0201646856             0.00132016182           
       0.154509              0.0186139829              0.0012630929           
       0.155188               0.019033339             0.00127676974           
       0.155868              0.0193554256             0.00127836515           
       0.156547              0.0224222923             0.00138475948           
       0.157226              0.0205105601             0.00129206385           
       0.157905              0.0189577548             0.00125262571           
       0.158584              0.0165937535             0.00116979692           
       0.159263              0.0183718599             0.00123540614           
       0.159943              0.0197520897             0.00128192761           
       0.160622              0.0188938057             0.00122957071           
       0.161301              0.0190551787             0.00125132637           
       0.161980              0.0178013893             0.00118889708           
       0.162659              0.0172242339             0.00118242726           
       0.163338              0.0180535248              0.0012006909           
       0.164018              0.0191154196             0.00122901365           
       0.164697              0.0162296789             0.00114699293           
       0.165376              0.0194590771             0.00122849362           
       0.166055              0.0189066659             0.00121891674           
       0.166734              0.0187619054             0.00120880216           
       0.167413              0.0189580708              0.0012159558           
       0.168093              0.0180301028             0.00119703995           
       0.168772              0.0187987236             0.00118654278           
       0.169451              0.0180145694             0.00118290219           
       0.170130              0.0165566819             0.00111913964           
       0.170809              0.0169019835               0.001144244           
       0.171488              0.0190732475             0.00120443926           
       0.172168              0.0172053008             0.00113295169           
       0.172847              0.0177708558             0.00116654679           
       0.173526              0.0175970619             0.00113868392           
       0.174205              0.0188011653             0.00118241805           
       0.174884              0.0169571819             0.00111708542           
       0.175563              0.0174952416             0.00113951446           
       0.176243              0.0172664859             0.00114336931           
       0.176922              0.0183655221             0.00114846673           
       0.177601              0.0158366674             0.00107819036           
       0.178280              0.0187270149             0.00115937164           
       0.178959              0.0179387052             0.00114383436           
       0.179638              0.0169402666             0.00110834579           
       0.180317              0.0167788469             0.00109501687           
       0.180997              0.0164628173             0.00109054281           
       0.181676              0.0178634703              0.0011238577           
       0.182355              0.0172904021             0.00111232447           
       0.183034              0.0167809634             0.00107822841           
       0.183713              0.0169971826             0.00109836804           
       0.184392              0.0152179783             0.00103897836           
       0.185072               0.017625196             0.00110539397           
       0.185751              0.0183762172             0.00113183908           
       0.186430              0.0145307935            0.000999421678           
       0.187109                0.01842232             0.00113785301           
       0.187788              0.0166082015              0.0010777134           
       0.188467              0.0162811197             0.00105442081           
       0.189147              0.0174444003              0.0011024929           
       0.189826              0.0168243065             0.00106357398           
       0.190505              0.0150605707             0.00102284708           
       0.191184              0.0165452306             0.00105662696           
       0.191863              0.0145356548            0.000992468052           
       0.192542               0.016348268             0.00106245714           
       0.193222              0.0180841396             0.00109239863           
       0.193901               0.016265751             0.00104990914           
       0.194580              0.0160502805             0.00102468846           
       0.195259              0.0151392151             0.00100661079           
       0.195938               0.015358347             0.00101629005           
       0.196617              0.0160392415             0.00102407672           
       0.197297              0.0178885947             0.00108592132           
       0.197976              0.0159835555              0.0010107046           
       0.198655              0.0167472023             0.00104586753           
       0.199334              0.0183751906             0.00108586184           
       0.200013              0.0160231496             0.00101342525           
       0.200692              0.0152135691            0.000993431167           
       0.201371               0.018983024             0.00109720069           
       0.202051              0.0161549499             0.00101532395           
       0.202730              0.0170628772             0.00103304316           
       0.203409              0.0164753133             0.00102191501           
       0.204088              0.0165111682             0.00102189484           
       0.204767              0.0145250636            0.000953427584           
       0.205446               0.015829031            0.000997249165           
       0.206126              0.0172629688             0.00102729086           
       0.206805               0.016567049             0.00102482062           
       0.207484              0.0145527633            0.000943233946           
       0.208163              0.0166529172             0.00101506477           
       0.208842              0.0150313082            0.000961764018           
       0.209521              0.0170020967             0.00101437148           
       0.210201              0.0142510885            0.000939051374           
       0.210880              0.0154433857             0.00095836223           
       0.211559                0.01488441            0.000954768995           
       0.212238              0.0153992433            0.000966199106           
       0.212917              0.0164778927             0.00099575199           
       0.213596               0.014969251            0.000954686428           
       0.214276              0.0156802186            0.000956738622           
       0.214955              0.0163076938             0.00099621191           
       0.215634              0.0149191174             0.00094602639           
       0.216313              0.0155833669             0.00096482694           
       0.216992              0.0151004286            0.000949521134           
       0.217671              0.0153550109            0.000951006172           
       0.218351               0.016023205            0.000980979188           
       0.219030              0.0155887661            0.000952315974           
       0.219709              0.0147559819            0.000932308974           
       0.220388              0.0180948614             0.00103108663           
       0.221067              0.0144622652            0.000922528646           
       0.221746              0.0149653085             0.00093747446           
       0.222426              0.0157963369            0.000948757736           
       0.223105              0.0153205074            0.000947088098           
       0.223784              0.0145502577            0.000913818183           
       0.224463              0.0151507214            0.000939909376           
       0.225142              0.0140907465             0.00089209224           
       0.225821              0.0159782975            0.000953792389           
       0.226500              0.0178413127             0.00101427252           
       0.227180              0.0152337676            0.000922788108           
       0.227859              0.0172146697            0.000985352515           
       0.228538              0.0150358465            0.000911639685           
       0.229217              0.0134027794            0.000867522692           
       0.229896              0.0146198489            0.000905619406           
       0.230575              0.0147317837            0.000894588322           
       0.231255              0.0163650128            0.000956990631           
       0.231934              0.0148680091            0.000905938369           
       0.232613                0.01519677            0.000919278773           
       0.233292              0.0146767258            0.000894684034           
       0.233971              0.0165584729            0.000949866378           
       0.234650              0.0142962167            0.000892979468           
       0.235330              0.0148113224            0.000900987519           
       0.236009              0.0154177773            0.000917266645           
       0.236688              0.0150878364            0.000904151478           
       0.237367              0.0156668706            0.000922675863           
       0.238046              0.0139373068            0.000876385643           
       0.238725              0.0144686569            0.000879159131           
       0.239405              0.0152538989            0.000908298396           
       0.240084              0.0144725891             0.00087909735           
       0.240763              0.0155215582            0.000919115792           
       0.241442               0.014598916            0.000878820026           
       0.242121              0.0140785218            0.000864643677           
       0.242800              0.0139007591            0.000863235092           
       0.243480              0.0134345239            0.000844661503           
       0.244159               0.014676853            0.000883279443           
       0.244838              0.0129035955            0.000814575626           
       0.245517              0.0152943471            0.000899589034           
       0.246196              0.0151257068            0.000895047081           
       0.246875              0.0149138971            0.000876369075           
       0.247554              0.0139330088            0.000855668376           
       0.248234              0.0145151667            0.000860118605           
       0.248913              0.0140298499            0.000855102648           
       0.249592               0.014361396            0.000856926351           
       0.250271              0.0139240487            0.000841327403           
       0.250950              0.0144980778            0.000863752573           
       0.251629              0.0134390504            0.000824539407           
       0.252309               0.015172218            0.000877874022           
       0.252988              0.0138248918            0.000823554675           
       0.253667              0.0118879318            0.000772608593           
       0.254346              0.0137017741            0.000829288041           
       0.255025              0.0134802235             0.00082075429           
       0.255704              0.0142977627            0.000841404797           
       0.256384              0.0128202605            0.000793988668           
       0.257063              0.0141039331             0.00083753907           
       0.257742              0.0133766202            0.000810006552           
       0.258421              0.0137713158            0.000820287871           
       0.259100              0.0132150789            0.000804952279           
       0.259779              0.0140170871            0.000828315584           
       0.260459              0.0139359849            0.000827537732           
       0.261138              0.0142312932            0.000819917198           
       0.261817              0.0124613854            0.000782726919           
       0.262496               0.014253737            0.000828917433           
       0.263175              0.0120193908            0.000762816257           
       0.263854              0.0124502317            0.000772760705           
       0.264534              0.0129791384            0.000782265358           
       0.265213              0.0127283035            0.000786877334           
       0.265892              0.0123497189            0.000765156516           
       0.266571               0.012905983            0.000780420275           
       0.267250              0.0123850628            0.000765795995           
       0.267929              0.0132010537            0.000789810195           
       0.268609              0.0130164454            0.000788562358           
       0.269288              0.0128442983            0.000770317636           
       0.269967              0.0127133647            0.000774638509           
       0.270646              0.0131173709            0.000783449111           
       0.271325              0.0134479768            0.000794585456           
       0.272004              0.0117485761             0.00073528182           
       0.272683              0.0121371837            0.000748266773           
       0.273363              0.0126141498            0.000767692983           
       0.274042              0.0108175494            0.000706729332           
       0.274721               0.012872083            0.000770469639           
       0.275400              0.0111477144            0.000712260716           
       0.276079              0.0114631175            0.000726367651           
       0.276758              0.0119513204            0.000751033656           
       0.277438              0.0116663267            0.000733695609           
       0.278117               0.012934668            0.000786597608           
       0.278796              0.0121345497            0.000754147078           
       0.279475              0.0104848638            0.000712592607           
       0.280154              0.0116624742            0.000740735035           
       0.280833              0.0121940896            0.000762035671           
       0.281513              0.0128842983            0.000795594188           
       0.282192              0.0105894492            0.000708964946           
       0.282871              0.0106227676            0.000715041294           
       0.283550              0.0104171868            0.000711883063           
       0.284229              0.0109919204             0.00074199757           
       0.284908               0.010827683            0.000744201064           
       0.285588              0.0112619944            0.000750092014           
       0.286267              0.0114998154            0.000770106969           
       0.286946              0.0114218951            0.000762502432           
       0.287625              0.0107837142            0.000753509435           
       0.288304              0.0111056229            0.000754438549           
       0.288983              0.0112858957            0.000770168308           
       0.289663              0.0115832333            0.000784814428           
       0.290342             0.00988003127             0.00072096345           
       0.291021             0.00968420832            0.000717628411           
       0.291700              0.0108689175            0.000750325809           
       0.292379              0.0108492143            0.000766809323           
       0.293058             0.00937649196            0.000710174145           
       0.293738              0.0112624087            0.000771787881           
       0.294417              0.0112203565            0.000779299551           
       0.295096             0.00969512995            0.000716435579           
       0.295775             0.00897421547            0.000699811318           
       0.296454             0.00972863021            0.000719208102           
       0.297133             0.00928023953            0.000705761747           
       0.297812              0.0129961928            0.000839381422           
       0.298492                0.01034536            0.000750347386           
       0.299171              0.0110769034            0.000774954726           
       0.299850             0.00946926157            0.000711622075           
       0.300529             0.00990444225            0.000735988651           
       0.301208               0.011334945             0.00078926225           
       0.301887              0.0106387325            0.000763730574           
       0.302567             0.00890365768            0.000695182603           
       0.303246              0.0106670644            0.000765884597           
       0.303925             0.00853648986            0.000693938981           
       0.304604             0.00965315563            0.000721997817           
       0.305283              0.0102399647            0.000754647717           
       0.305962             0.00929274575            0.000714554675           
       0.306642             0.00775292052            0.000661537945           
       0.307321              0.0096754688            0.000736663405           
       0.308000             0.00997458613            0.000739097916           
       0.308679             0.00962832056            0.000741881133           
       0.309358             0.00857743243            0.000690753137           
       0.310037             0.00918626447            0.000716440688           
       0.310717             0.00973346003            0.000736760533           
       0.311396              0.0090145514            0.000713785503           
       0.312075             0.00815152505            0.000687365653           
       0.312754             0.00814771275            0.000673456995           
       0.313433             0.00790220295             0.00066900115           
       0.314112             0.00924507246            0.000723449521           
       0.314792             0.00806589439            0.000680511437           
       0.315471             0.00852495712            0.000690957013           
       0.316150             0.00839011978            0.000691814841           
       0.316829             0.00915803451            0.000727554273           
       0.317508              0.0096747663            0.000739407141           
       0.318187              0.0077408898            0.000670116692           
       0.318866             0.00848227071            0.000692023553           
       0.319546              0.0101492566             0.00076832253           
       0.320225             0.00846466619            0.000701681233           
       0.320904             0.00898511724            0.000711752938           
       0.321583             0.00864581846            0.000713569188           
       0.322262             0.00761964276            0.000659732387           
       0.322941             0.00748165155            0.000662106615           
       0.323621             0.00957873666            0.000744603012           
       0.324300             0.00844848976            0.000699842752           
       0.324979             0.00812189238            0.000687422888           
       0.325658             0.00727011036            0.000651557942           
       0.326337             0.00770177682            0.000671497665           
       0.327016             0.00831132965              0.0006931358           
       0.327696             0.00885344699            0.000723340415           
       0.328375             0.00717327533            0.000645602194           
       0.329054             0.00931887696            0.000739838896           
       0.329733             0.00951299163            0.000750234562           
       0.330412             0.00713694414            0.000644498019           
       0.331091             0.00686478769             0.00064355588           
       0.331771             0.00757081255             0.00065813087           
       0.332450             0.00811327674            0.000694528816           
       0.333129             0.00695673889            0.000641464875           
       0.333808             0.00675111768            0.000632749044           
       0.334487             0.00681384534            0.000638695794           
       0.335166             0.00763769311            0.000666309532           
       0.335846             0.00745160531            0.000669708028           
       0.336525             0.00688323524            0.000637305651           
       0.337204             0.00621431402            0.000607134809           
       0.337883             0.00682620169            0.000637167166           
       0.338562             0.00696384669            0.000647130414           
       0.339241             0.00572472486            0.000587837865           
       0.339921             0.00830910039            0.000696325685           
       0.340600             0.00641725876            0.000623562962           
       0.341279             0.00829137419            0.000701202009           
       0.341958             0.00725932534            0.000665368676           
       0.342637             0.00657386959            0.000624231478           
       0.343316             0.00694681191            0.000643551729           
       0.343995             0.00725336537            0.000668365588           
       0.344675             0.00586610944               0.000590016           
       0.345354             0.00660379252            0.000630145326           
       0.346033             0.00620789934            0.000609372364           
       0.346712             0.00605323225            0.000605572907           
       0.347391             0.00619588288            0.000616460335           
       0.348070             0.00671373704            0.000632592251           
       0.348750             0.00606480797            0.000609930931           
       0.349429             0.00637544117            0.000617282673           
       0.350108             0.00751827273            0.000678395369           
       0.350787             0.00765330396            0.000672832187           
       0.351466             0.00710902992            0.000660411884           
       0.352145             0.00632080003            0.000623240941           
       0.352825             0.00499436858            0.000551491247           
       0.353504             0.00681484551            0.000644050345           
       0.354183             0.00665556412            0.000629146298           
       0.354862             0.00604129439            0.000613339009           
       0.355541             0.00635707153            0.000620924558           
       0.356220             0.00577766714            0.000593070212           
       0.356900             0.00559452612            0.000589138156           
       0.357579             0.00622827926            0.000613990064           
       0.358258             0.00584430843            0.000602993531           
       0.358937             0.00514195379            0.000554967497           
       0.359616             0.00486107554            0.000547132247           
       0.360295             0.00585699489            0.000601070199           
       0.360975             0.00573461108            0.000592213635           
       0.361654             0.00629638323             0.00062374237           
       0.362333             0.00550685199            0.000580359974           
       0.363012             0.00445628896            0.000528791602           
       0.363691             0.00601020151            0.000601988934           
       0.364370             0.00584931814            0.000601244518           
       0.365050             0.00544009345            0.000576728647           
       0.365729             0.00512193435            0.000564945739           
       0.366408             0.00495250183            0.000556753053           
       0.367087             0.00502604922            0.000551876165           
       0.367766             0.00487294507            0.000554727825           
       0.368445             0.00474085122            0.000537442952           
       0.369124             0.00415287164            0.000506963651           
       0.369804             0.00599470668            0.000608122488           
       0.370483             0.00503550746            0.000559789546           
       0.371162             0.00603343284            0.000616305494           
       0.371841             0.00401756645            0.000494147252           
       0.372520             0.00425537845            0.000518755978           
       0.373199             0.00500436581            0.000555838499           
       0.373879             0.00537568174            0.000582760608           
       0.374558              0.0046532512            0.000534278374           
       0.375237             0.00473749732            0.000539976898           
       0.375916             0.00427659059            0.000522866448           
       0.376595              0.0057653453            0.000595226791           
       0.377274             0.00506910322            0.000567063977           
       0.377954             0.00528445536             0.00056988879           
       0.378633             0.00497707493            0.000560055402           
       0.379312             0.00523248648            0.000574101004           
       0.379991             0.00411362097            0.000506398865           
       0.380670             0.00509611611            0.000573600126           
       0.381349              0.0055866709            0.000591950211           
       0.382029             0.00439970006            0.000532842302           
       0.382708             0.00469283968            0.000538289724           
       0.383387             0.00498320341             0.00056726342           
       0.384066              0.0056387764            0.000597887788           
       0.384745             0.00415954439            0.000515530098           
       0.385424             0.00477714559            0.000554354951           
       0.386104             0.00471497822            0.000544649903           
       0.386783              0.0034344588            0.000474897985           
       0.387462             0.00449634206            0.000529858966           
       0.388141             0.00347624432            0.000473333638           
       0.388820             0.00439622446            0.000528446918           
       0.389499             0.00495131956            0.000563975102           
       0.390178             0.00480727733            0.000557924022           
       0.390858             0.00453608741            0.000537573324           
       0.391537              0.0048282866            0.000560280804           
       0.392216             0.00444921575            0.000531095994           
       0.392895             0.00434768787            0.000526770082           
       0.393574             0.00387579261            0.000496128686           
       0.394253             0.00436636537            0.000528960817           
       0.394933             0.00446996361            0.000541315052           
       0.395612             0.00550425948            0.000583237677           
       0.396291             0.00438550252            0.000531200739           
       0.396970             0.00455662174            0.000536667772           
       0.397649             0.00515348903            0.000572492472           
       0.398328              0.0034770839            0.000468180721           
       0.399008             0.00458415344            0.000536402313           
       0.399687             0.00443143122            0.000529442447           
       0.400366             0.00451222849             0.00053220386           
       0.401045             0.00387480722            0.000492249889           
       0.401724              0.0041485487            0.000510191231           
       0.402403             0.00427345619            0.000521850762           
       0.403083             0.00359075039            0.000471456194           
       0.403762             0.00363553534            0.000476726437           
       0.404441             0.00292304798            0.000430189975           
       0.405120             0.00377467142            0.000487253972           
       0.405799             0.00399360877            0.000499008279           
       0.406478             0.00424602804            0.000514549699           
       0.407158             0.00416862054            0.000508881012           
       0.407837             0.00352937447            0.000472373323           
       0.408516             0.00371863915             0.00048065545           
       0.409195             0.00323257616            0.000453226312           
       0.409874             0.00392158601            0.000506142019           
       0.410553              0.0038142567            0.000504536283           
       0.411233             0.00310926958            0.000453169275           
       0.411912             0.00388697801            0.000513863415           
       0.412591             0.00354221539            0.000493791892           
       0.413270             0.00358046344            0.000494092127           
       0.413949             0.00227082783            0.000397784708           
       0.414628             0.00348861822            0.000492155393           
       0.415307             0.00322875254             0.00047873714           
       0.415987             0.00366999428            0.000506196082           
       0.416666             0.00279473418             0.00043907174           
       0.417345             0.00375579594            0.000517498066           
       0.418024             0.00310715597            0.000470706643           
       0.418703             0.00350858518            0.000499270873           
       0.419382             0.00222650112            0.000395774891           
       0.420062             0.00350796589            0.000498172277           
       0.420741             0.00312175721            0.000472448976           
       0.421420             0.00227965163            0.000405259812           
       0.422099             0.00249789813            0.000424226648           
       0.422778             0.00332823811            0.000492337904           
       0.423457             0.00307100159            0.000475823847           
       0.424137             0.00240040227            0.000413820822           
       0.424816             0.00309274823            0.000479540732           
       0.425495             0.00243649293             0.00042523084           
       0.426174             0.00310474521            0.000480183463           
       0.426853             0.00232239748            0.000412777895           
       0.427532             0.00237158154            0.000420652608           
       0.428212             0.00369875741            0.000528798146           
       0.428891             0.00307833035            0.000481316428           
       0.429570             0.00224707314            0.000411508226           
       0.430249             0.00222915472            0.000407736239           
       0.430928             0.00210068723            0.000404468247           
       0.431607             0.00224329718            0.000410790203           
       0.432287             0.00167200478             0.00035724372           
       0.432966             0.00233552516             0.00042593319           
       0.433645             0.00233816864            0.000426619216           
       0.434324             0.00307111048             0.00048598672           
       0.435003             0.00207985128            0.000400621218           
       0.435682             0.00204224495            0.000400238727           
       0.436361             0.00228076704            0.000422400116           
       0.437041             0.00256599508              0.0004474366           
       0.437720             0.00274544307              0.0004650499           
       0.438399             0.00167501889            0.000365143498           
       0.439078             0.00247665849            0.000456879157           
       0.439757             0.00225430088            0.000433202043           
       0.440436              0.0028108611            0.000494633017           
       0.441116             0.00317519786            0.000534309558           
       0.441795              0.0028325637            0.000505266273           
       0.442474             0.00222144613             0.00044870166           
       0.443153             0.00214607453             0.00045131288           
       0.443832             0.00140623447            0.000365944831           
       0.444511             0.00289656409            0.000522837881           
       0.445191             0.00283881102            0.000530189017           
       0.445870              0.0018665363            0.000429924867           
       0.446549             0.00200539207            0.000450328764           
       0.447228             0.00308284618            0.000555194279           
       0.447907             0.00183719236            0.000433737129           
       0.448586             0.00162392123            0.000417597239           
       0.449266             0.00158056699            0.000408195646           
       0.449945             0.00251225414            0.000512529258           
       0.450624             0.00233621967            0.000502095452           
       0.451303              0.0018979276            0.000458419144           
       0.451982             0.00198815583            0.000466288857           
       0.452661             0.00219229023            0.000498764287           
       0.453341             0.00186240091            0.000461319921           
       0.454020             0.00391355463             0.00066974987           
       0.454699             0.00271557996            0.000562997864           
       0.455378              0.0020169389            0.000485461532           
       0.456057             0.00186528447            0.000475156667           
       0.456736             0.00186173326            0.000473223855           
       0.457416             0.00196745845             0.00048648899           
       0.458095             0.00166840691            0.000454476361           
       0.458774             0.00108617587            0.000371545762           
       0.459453             0.00223864847            0.000536092884           
       0.460132             0.00165132813            0.000450486697           
       0.460811              0.0016684863            0.000469715613           
       0.461490             0.00240634946            0.000558358886           
       0.462170              0.0019439486            0.000509684553           
       0.462849             0.00279349984            0.000614951844           
       0.463528             0.00182776494             0.00049627075           
       0.464207             0.00276311636            0.000621597329           
       0.464886             0.00215111824            0.000544185244           
       0.465565            0.000814035465            0.000338439504           
       0.466245              0.0032182891             0.00067502132           
       0.466924             0.00116088038            0.000414990588           
       0.467603              0.0016608795            0.000485850581           
       0.468282             0.00162620782            0.000492152793           
       0.468961             0.00255035263            0.000620377049           
       0.469640             0.00135620826              0.0004542008           
       0.470320              0.0016489684            0.000501176774           
       0.470999             0.00155204295            0.000490810313           
       0.471678             0.00111625657            0.000420240936           
       0.472357            0.000642913233            0.000319818264           
       0.473036             0.00193908922             0.00055893161           
       0.473715            0.000330390293            0.000232518555           
       0.474395            0.000850910943            0.000378310364           
       0.475074            0.000685619136            0.000339594228           
       0.475753            0.000515598255            0.000291951613           
       0.476432            0.000756066537            0.000366408103           
       0.477111            0.000901415962            0.000395242658           
       0.477790             0.00126606351            0.000470915714           
       0.478470             0.00182415657             0.00057273286           
       0.479149            0.000240524665            0.000210121166           
       0.479828            0.000772429474            0.000375660768           
       0.480507           -0.000134255701                         0           
       0.481186             0.00103117032             0.00044740443           
       0.481865             0.00101312138            0.000437979977           
       0.482545            0.000467776916            0.000301102617           
       0.483224            0.000460543356            0.000300806938           
       0.483903            0.000495838664             0.00031703729           
       0.484582           -0.000307581825                         0           
       0.485261            0.000272550756             0.00023282228           
       0.485940            0.000324354544            0.000264232586           
       0.486619            0.000114969385             0.00015558354           
       0.487299            0.000122562531            0.000163200026           
       0.487978            0.000113959464            0.000155764724           
       0.488657            0.000137899754            0.000178417342           
       0.489336            0.000136225378            0.000174221749           
       0.490015           -8.30407218e-05                         0           
       0.490694           -8.17353682e-05                         0           
       0.491374           -0.000307767503                         0           
       0.492053           -0.000307786247                         0           
       0.492732           -0.000307804859                         0           
       0.493411           -6.23068361e-05                         0           
       0.494090           -0.000307842692                         0           
       0.494769           -6.81596125e-05                         0           
       0.495449           -0.000307880177                         0           
       0.496128           -4.69764943e-05                         0           
       0.496807           -0.000307917832                         0           
       0.497486           -0.000307936729                         0           
       0.498165           -0.000307955897                         0           
       0.498844            0.000508161231            0.000373047454           
       0.499524            0.000247928656            0.000261512806           
       0.500203           -0.000308013015                         0           
       0.500882           -0.000308031905                         0           
       0.501561           -2.15566883e-05                         0           
       0.502240            -2.7574696e-05                         0           
       0.502919           -0.000308089174                         0           
       0.503599           -0.000308108368                         0           
       0.504278           -0.000308127832                         0           
       0.504957           -0.000308147067                         0           
       0.505636           -0.000308166179                         0           
       0.506315           -0.000308185605                         0           
       0.506994           -0.000308204684                         0           
       0.507673           -0.000308223724                         0           
       0.508353           -0.000308243166                         0           
       0.509032           -0.000308262525                         0           
       0.509711           -0.000308281891                         0           
       0.510390           -0.000308301562                         0           
       0.511069           -0.000308321168                         0           
       0.511748            4.71706321e-05            0.000129237712           
       0.512428            0.000423091337            0.000394392189           
       0.513107           -0.000308379724                         0           
       0.513786           -0.000308399148                         0           
       0.514465           -0.000308418904                         0           
       0.515144           -0.000308438646                         0           
       0.515823           -0.000308458208                         0           
       0.516503           -0.000308477953                         0           
       0.517182           -0.000308497697                         0           
       0.517861            0.000103252843             0.00020600818           
       0.518540             -0.0003085372                         0           
       0.519219           -0.000308556892                         0           
       0.519898           -0.000308576783                         0           
       0.520578           -0.000308596794                         0           
       0.521257           -0.000308616547                         0           
       0.521936            0.000564299794            0.000499810087           
       0.522615            0.000604589516            0.000529681804           
       0.523294            0.000132731339            0.000248190775           
       0.523973           -0.000308696328                         0           
       0.524653            0.000187062646            0.000305924261           
       0.525332            0.000146170124            0.000258410092           
       0.526011           -0.000308756332                         0           
       0.526690            0.000157647734            0.000272728061           
       0.527369           -0.000308796759                         0           
       0.528048           -0.000308817032                         0           
       0.528728           -0.000308837282                         0           
       0.529407           -0.000308857437                         0           
       0.530086           -0.000308877489                         0           
       0.530765           -0.000308897569                         0           
       0.531444           -0.000308917866                         0           
       0.532123           -0.000308938521                         0           
       0.532802            0.000211385726            0.000332612766           
       0.533482            0.000260859559            0.000382720159           
       0.534161           -0.000308999876                         0           
       0.534840           -0.000309020151                         0           
       0.535519           -0.000309040802                         0           
       0.536198           -0.000309061238                         0           
       0.536877           -0.000309081393                         0           
       0.537557            0.000247526888            0.000371088202           
       0.538236           -0.000309122581                         0           
       0.538915            0.000850394817             0.00070149081           
       0.539594            0.000313392078            0.000443993163           
       0.540273           -0.000309184885                         0           
       0.540952           -0.000309205625                         0           
       0.541632           -0.000309225986                         0           
       0.542311           -0.000309246534                         0           
       0.542990           -0.000309267312                         0           
       0.543669           -0.000309288263                         0           
       0.544348            0.000407397222            0.000539628311           
       0.545027           -0.000309330072                         0           
       0.545707           -0.000309351016                         0           
       0.546386            -0.00030937202                         0           
       0.547065           -0.000309392771                         0           
       0.547744           -0.000309413617                         0           
       0.548423           -0.000309434692                         0           
       0.549102            -0.00030945579                         0           
       0.549782            -0.00030947678                         0           
       0.550461           -0.000309498019                         0           
       0.551140           -0.000309519387                         0           
       0.551819            0.000496249005            0.000634143197           
       0.552498           -0.000309561798                         0           
       0.553177           -0.000309582728                         0           
       0.553856           -0.000309603733                         0           
       0.554536           -0.000309624807                         0           
       0.555215           -0.000309646203                         0           
       0.555894           -0.000309667548                         0           
       0.556573            -0.00030968902                         0           
       0.557252           -0.000309710474                         0           
       0.557931            -0.00030973183                         0           
       0.558611           -0.000309753687                         0           
       0.559290            0.000626220547            0.000768388868           
       0.559969           -0.000309795763                         0           
       0.560648           -0.000309817091                         0           
       0.561327           -0.000309838893                         0           
       0.562006            0.000595650607            0.000737605079           
       0.562686           -0.000309882308                         0           
       0.563365           -0.000309904101                         0           
       0.564044           -0.000309925785                         0           
       0.564723           -0.000309947421                         0           
       0.565402           -0.000309968653                         0           
       0.566081           -0.000309990027                         0           
       0.566761            -0.00031001163                         0           
       0.567440              0.0010386006              0.0011839307           
       0.568119           -0.000310055542                         0           
       0.568798           -0.000310077718                         0           
       0.569477           -0.000310099752                         0           
       0.570156           -0.000310121892                         0           
       0.570836            -0.00031014395                         0           
       0.571515            -0.00031016554                         0           
       0.572194           -0.000310187757                         0           
       0.572873           -0.000310209466                         0           
       0.573552           -0.000310231047                         0           
       0.574231           -0.000310253065                         0           
       0.574911           -0.000310275638                         0           
       0.575590           -0.000310297778                         0           
       0.576269           -0.000310319849                         0           
       0.576948           -0.000310342344                         0           
       0.577627           -0.000310364154                         0           
       0.578306           -0.000310386271                         0           
       0.578985           -0.000310408577                         0           
       0.579665           -0.000310430755                         0           
       0.580344           -0.000310453268                         0           
       0.581023           -0.000310475756                         0           
       0.581702           -0.000310498037                         0           
       0.582381           -0.000310520116                         0           
       0.583060           -0.000310542853                         0           
       0.583740           -0.000310565233                         0           
       0.584419           -0.000310587687                         0           
       0.585098           -0.000310610115                         0           
       0.585777           -0.000310632717                         0           
       0.586456           -0.000310655687                         0           
       0.587135           -0.000310678046                         0           
       0.587815           -0.000310700164                         0           
       0.588494           -0.000310722971                         0           
       0.589173           -0.000310746302                         0           
       0.589852           -0.000310768393                         0           
       0.590531           -0.000310791317                         0           
       0.591210           -0.000310813711                         0           
       0.591890           -0.000310836539                         0           
       0.592569           -0.000310858603                         0           
       0.593248           -0.000310882725                         0           
       0.593927            -0.00031090566                         0           
       0.594606           -0.000310929066                         0           
       0.595285           -0.000310951078                         0           
       0.595965           -0.000310971618                         0           
       0.596644           -0.000310992755                         0           
