################################################################################
# EDF_DataBlockID                     0.Image.Psd
# EDF_BinarySize                      2105344
# EDF_HeaderSize                      2560
# ByteOrder                           LowByteFirst
# DataType                            FloatValue
# Dim_1                               512
# Dim_2                               1028
# Image                               0
# HeaderID                            EH:000000:000000:000000
# Size                                2105344
# Center_1                            304.9000
# Center_2                            588.7000
# Comment                             Xenocs_Cell_Window - 20251028_20perc_iodine_1.23mg
# DDummy                              0.6
# Date                                2025-10-31T08:08:36
# Delta                               21.910000
# Dummy                               -1.5
# ExposureTime                        360
# Gamma                               15.360000
# Intensity1                          8.5322e-10
# PSize_1                             7.5e-05
# PSize_2                             7.5e-05
# Pressure                            0.0329475
# SampleDistance                      0.115750
# SampleEnvKind                       large
# SampleEnvPN                         ElectroChemical cell
# SampleEnvSN                         1141
# Thickness                           0
# Wavelength                          1.541891e-10
# Wavelength                          1.54189e-10
# aux                                 0
# aux_dial                            0.002375
# beamx                               588.434
# beamx_dial                          588.434
# beamz                               657.808
# beamz_dial                          657.808
# det0x                               0
# det0x_dial                          6.36945
# det0xvd                             0
# det0xvd_dial                        0
# det0y                               450.002
# det0y_dial                          481.635
# det0z                               0
# det0z_dial                          1.23302
# det0zvd                             0
# det0zvd_dial                        0
# mag                                 1.818
# mag_dial                            1.818
# om                                  0.2499
# om_dial                             -0.610199
# phi                                 -0.0120535
# phi_dial                            0
# ry                                  0.599993
# ry_dial                             0.599993
# s1bot                               0.8
# s1bot_dial                          -1.66094
# s1hl                                0.8
# s1hl_dial                           -0.608437
# s1hr                                0.8
# s1hr_dial                           0.970938
# s1top                               0.8
# s1top_dial                          -0.461562
# s2bot                               0.45
# s2bot_dial                          1.36109
# s2hl                                0.45
# s2hl_dial                           -0.83375
# s2hr                                0.45
# s2hr_dial                           -0.118594
# s2top                               0.45
# s2top_dial                          1.44734
# w2theta                             32
# w2theta_dial                        32
# waxsch                              19.2605
# waxsch_dial                         -32.7355
# waxsh                               137.085
# waxsh_dial                          -43.5338
# waxsth                              26.0607
# waxsth_dial                         -19.4086
# waxsz                               67.0407
# waxsz_dial                          -23.7954
# wind                                65.9854
# wind_dial                           66.0041
# wpsi                                124
# wpsi_dial                           124
# wstod                               115
# wstod_dial                          115
# x                                   0
# x_dial                              1.00969
# z                                   0
# z_dial                              13.3172
# CountCutoff                         6807993
# DetectorModel                       Dectris EIGER2 Si 500K, S/N E-01-0554
# ThresholdSetting                    4023.88989258
# Saturation                          0
# FlatField                           Corrected
# BackgroundReductionExtra            0.02
# BackgroundCorrectionConstant        0.0026712
# Detector                            0
# Monitor                             0
# Pil_Roi0                            0
# SumForIntensity1                    3.07159e+08
# TransmittedFlux                     853220
# det                                 0
# mon                                 0
# pilai0                              3.07159e+08
# pilai1                              782478
# pilct0                              5.31761e+08
# pilct1                              782478
# pilroi0                             0
# pilroi1                             0
# sec                                 1
# title                               20251028_20perc_iodine_1.23mg_1_00598.edf
# usaxs0                              0
# Operation                           Azimuthal average I(q)
# Error_model                         ErrorModel.poisson
# Geometrical_correction              True
# Transmission_correction             True
# Thickness_correction                False
# Binning mode                        Uniform
# Binning factor                      1.0
# Psi                                 0.0
# Omega                               0.2499
# MaskInvalidPixels                   True
# DetectorEdge                        3
# MaskFiles                           ['WAXS_corrected.edf']
################################################################################
    q(A⁻¹)                Intensity(a.u.)            Sigma_I(a.u.)            
       0.693100             0.00412767353             0.00428781684           
       0.695741             0.00559655829             0.00407428861           
       0.698381              0.0041809592             0.00431362211           
       0.701021           -2.37585018e-05                         0           
       0.703662            -2.3747573e-05                         0           
       0.706302             0.00696650585             0.00351771326           
       0.708942             0.00865311026             0.00506011174           
       0.711583             0.00659146418             0.00382428923           
       0.714223             0.00884648316             0.00511499283           
       0.716864             0.00377366638             0.00218580913           
       0.719504              0.0088165513             0.00360535231           
       0.722144              0.0100539254             0.00356543882           
       0.724785             0.00555150209             0.00211340055           
       0.727425             0.00882491921             0.00360472368           
       0.730065             0.00955447249             0.00265314621           
       0.732706             0.00621577566             0.00179702549           
       0.735346             0.00967312121             0.00292222733           
       0.737987             0.00747468019             0.00181519824           
       0.740627             0.00578682869             0.00238305766           
       0.743267             0.00695832724             0.00175028521           
       0.745908             0.00728067156             0.00194245444           
       0.748548             0.00924038481             0.00201708678           
       0.751189              0.0120141916             0.00309915545           
       0.753829             0.00541788797             0.00191309351           
       0.756469             0.00520417449             0.00151192574           
       0.759110             0.00487580364             0.00154222655           
       0.761750             0.00457616086             0.00132110208           
       0.764390             0.00623501627             0.00161402403           
       0.767031             0.00966491014             0.00174016036           
       0.769671             0.00780411854             0.00195059421           
       0.772312             0.00559412648             0.00125725246           
       0.774952              0.0108306672             0.00236234691           
       0.777592             0.00710853056             0.00139400129           
       0.780233             0.00871183953             0.00186188119           
       0.782873             0.00942442526             0.00185211137           
       0.785513             0.00582744086             0.00155697763           
       0.788154             0.00666116255             0.00139252282           
       0.790794              0.0053762998             0.00149564348           
       0.793435             0.00837663068             0.00167714744           
       0.796075             0.00716312962             0.00149401214           
       0.798715             0.00432557495             0.00137194717           
       0.801356             0.00863594189             0.00166842327           
       0.803996             0.00965769482             0.00179879154           
       0.806637             0.00485377443             0.00101483658           
       0.809277              0.0082142849              0.0014289681           
       0.811917              0.0071676327             0.00124785226           
       0.814558             0.00838466948             0.00140271077           
       0.817198             0.00739782876             0.00125176364           
       0.819838             0.00668396947             0.00120420282           
       0.822479             0.00780098761             0.00152765858           
       0.825119             0.00693727895             0.00122613929           
       0.827760             0.00689104909             0.00123788625           
       0.830400              0.0107673199             0.00145635442           
       0.833040             0.00537679769             0.00107822347           
       0.835681             0.00700338966             0.00139893059           
       0.838321             0.00668986607             0.00114758391           
       0.840961             0.00697834454             0.00127702069           
       0.843602             0.00488296151            0.000979607408           
       0.846242             0.00783803393             0.00124093547           
       0.848883             0.00557496673             0.00107101004           
       0.851523             0.00682028905             0.00116989064           
       0.854163             0.00790963644             0.00133980412           
       0.856804             0.00494202252            0.000952228867           
       0.859444              0.0072005063             0.00112618812           
       0.862085             0.00845585479             0.00127197981           
       0.864725             0.00702263603              0.0011863029           
       0.867365             0.00829866623              0.0011958193           
       0.870006             0.00624827025            0.000988778913           
       0.872646             0.00498041173            0.000925715788           
       0.875286             0.00745518328              0.0010896254           
       0.877927             0.00710502934             0.00102644887           
       0.880567             0.00748469544             0.00109146477           
       0.883208             0.00779163438             0.00110312849           
       0.885848             0.00890500467             0.00122448122           
       0.888488             0.00755482598              0.0010578438           
       0.891129             0.00811698586             0.00112587167           
       0.893769             0.00858273808             0.00110797042           
       0.896410             0.00618720256             0.00087708477           
       0.899050              0.0060040292            0.000950169607           
       0.901690             0.00640519415             0.00106902935           
       0.904331             0.00757616676             0.00103075145           
       0.906971             0.00730580753             0.00107680657           
       0.909611             0.00694470354            0.000955706528           
       0.912252             0.00659452673            0.000961934894           
       0.914892             0.00785016593              0.0011469084           
       0.917533             0.00674368899             0.00100560527           
       0.920173             0.00890299553             0.00107201981           
       0.922813             0.00625252063            0.000942753433           
       0.925454             0.00886231329             0.00101068201           
       0.928094             0.00852797454             0.00105843969           
       0.930734              0.0083582966             0.00112813405           
       0.933375             0.00880366875             0.00114641841           
       0.936015             0.00846047564             0.00102069697           
       0.938656             0.00695823077            0.000993008408           
       0.941296             0.00757424816            0.000938930507           
       0.943936             0.00691987756            0.000880094158           
       0.946577             0.00901860665            0.000998088224           
       0.949217             0.00642934275            0.000774956038           
       0.951858             0.00870465825            0.000943916393           
       0.954498             0.00768505076             0.00102658617           
       0.957138             0.00823332835             0.00100664476           
       0.959779             0.00778552485             0.00096498118           
       0.962419             0.00717673385            0.000920322167           
       0.965059             0.00705113474            0.000959430852           
       0.967700              0.0064061398            0.000936626602           
       0.970340             0.00641879627            0.000829640186           
       0.972981             0.00791308085            0.000839266526           
       0.975621             0.00756766912            0.000873131099           
       0.978261             0.00917319475            0.000913403531           
       0.980902              0.0085655552              0.0010560263           
       0.983542             0.00745780342            0.000872615592           
       0.986182             0.00738583669            0.000852584954           
       0.988823             0.00845853508            0.000885942215           
       0.991463             0.00919704244            0.000985607193           
       0.994104             0.00591939108            0.000771351654           
       0.996744             0.00586941195            0.000783444005           
       0.999384             0.00668973195            0.000748023114           
       1.002025             0.00751974108             0.00088517208           
       1.004665             0.00829369998            0.000849547812           
       1.007306             0.00800802513             0.00083051544           
       1.009946             0.00859139923            0.000877319023           
       1.012586             0.00934572586            0.000891178728           
       1.015227             0.00881789557            0.000929975756           
       1.017867             0.00750885066            0.000824765571           
       1.020507             0.00747962971            0.000797341555           
       1.023148             0.00762086944            0.000868438483           
       1.025788             0.00871776769            0.000851670164           
       1.028429             0.00767105819            0.000836986857           
       1.031069             0.00639900173            0.000719373571           
       1.033709             0.00830315986            0.000871072564           
       1.036350             0.00752347971            0.000744705326           
       1.038990             0.00794472734            0.000779332702           
       1.041630             0.00615915676            0.000715702522           
       1.044271             0.00859296534            0.000795033586           
       1.046911             0.00895476097            0.000853695176           
       1.049552             0.00692764191            0.000788891091           
       1.052192             0.00847205787            0.000796617539           
       1.054832             0.00877624768            0.000818168386           
       1.057473             0.00771145809            0.000756032426           
       1.060113             0.00809106138            0.000755267227           
       1.062754             0.00917861464            0.000821305446           
       1.065394             0.00697773364            0.000757102209           
       1.068034             0.00835144652            0.000753622956           
       1.070675             0.00807805053            0.000773146888           
       1.073315             0.00823329256            0.000791728631           
       1.075955             0.00875698935            0.000770841844           
       1.078596             0.00803603894            0.000784803789           
       1.081236             0.00723988738            0.000713303513           
       1.083877             0.00786520436            0.000736800629           
       1.086517             0.00928986792            0.000858643883           
       1.089157             0.00863889886            0.000859156943           
       1.091798             0.00812099745            0.000730309865           
       1.094438             0.00932601103            0.000780093147           
       1.097078             0.00907126979            0.000737901962           
       1.099719               0.010164426            0.000844877936           
       1.102359             0.00868048697            0.000731202913           
       1.105000             0.00761929647            0.000766021225           
       1.107640             0.00844749571            0.000771221475           
       1.110280             0.00989370209             0.00076153718           
       1.112921             0.00879831482            0.000771441775           
       1.115561              0.0083155255            0.000712790854           
       1.118202             0.00935717529            0.000756830597           
       1.120842             0.00919796849            0.000788637908           
       1.123482             0.00937539379            0.000792730304           
       1.126123             0.00856712755            0.000726846652           
       1.128763             0.00830596445            0.000720589138           
       1.131403             0.00801314823            0.000682000336           
       1.134044              0.0103415445            0.000797245553           
       1.136684             0.00943543996            0.000811910807           
       1.139325             0.00955032003             0.00075247072           
       1.141965              0.0106933192            0.000801490777           
       1.144605              0.0093900264            0.000716139644           
       1.147246              0.0090773251            0.000720600229           
       1.149886             0.00892036823            0.000711807201           
       1.152527             0.00858353251            0.000708392649           
       1.155167             0.00840357414            0.000666688712           
       1.157807             0.00771719339            0.000684995526           
       1.160448             0.00888039073            0.000717559162           
       1.163088             0.00917040311            0.000695532246           
       1.165728             0.00890532299            0.000703719284           
       1.168369             0.00860240846            0.000698037077           
       1.171009             0.00921641498            0.000701185413           
       1.173650             0.00948281755            0.000729909194           
       1.176290             0.00821926805            0.000664065592           
       1.178930             0.00907253059            0.000683793625           
       1.181571             0.00959407138             0.00071711736           
       1.184211             0.00953162935            0.000717314216           
       1.186851               0.010063522            0.000720609657           
       1.189492              0.0106552262            0.000736503505           
       1.192132             0.00943554799            0.000685293655           
       1.194773             0.00888141628             0.00066777118           
       1.197413             0.00857741793            0.000628773936           
       1.200053              0.0104687358            0.000712295611           
       1.202694             0.00863344727            0.000615119723           
       1.205334             0.00915210099            0.000682528173           
       1.207975             0.00920420893             0.00065334441           
       1.210615              0.0104828334            0.000769184801           
       1.213255             0.00973532222            0.000663775081           
       1.215896             0.00993949414              0.0006828518           
       1.218536             0.00982331064            0.000652742477           
       1.221176             0.00998781263             0.00071558238           
       1.223817               0.010516025            0.000689262925           
       1.226457              0.0106008382            0.000705978811           
       1.229098             0.00911938547            0.000654761586           
       1.231738             0.00935095045            0.000666285683           
       1.234378              0.0108823024            0.000675397197           
       1.237019             0.00863341188            0.000619917784           
       1.239659              0.0105809147            0.000680306711           
       1.242299              0.0102985199            0.000662639671           
       1.244940              0.0104744795            0.000649940889           
       1.247580              0.0086819204            0.000609814842           
       1.250221              0.0108699444            0.000678134277           
       1.252861              0.0105703184            0.000636627229           
       1.255501              0.0111548911            0.000710112613           
       1.258142             0.00992793773            0.000629511682           
       1.260782             0.00907515002            0.000614890665           
       1.263423              0.0108059809            0.000644726261           
       1.266063              0.0104905126            0.000651108462           
       1.268703              0.0104319353            0.000643900246           
       1.271344               0.009085396            0.000621273343           
       1.273984              0.0110975861            0.000663152604           
       1.276624              0.0100641447            0.000619656704           
       1.279265              0.0106468835            0.000647928192           
       1.281905              0.0102482619            0.000638504459           
       1.284546              0.0101001096            0.000612695197           
       1.287186              0.0109328376            0.000625408618           
       1.289826               0.011083308            0.000663649827           
       1.292467              0.0108649877            0.000642608242           
       1.295107             0.00986314324             0.00060618288           
       1.297747              0.0117974684            0.000634402158           
       1.300388             0.00979545076             0.00063017221           
       1.303028              0.0104907473            0.000622585473           
       1.305669              0.0098749122            0.000618418037           
       1.308309             0.00975548097            0.000608613934           
       1.310949              0.0109961583            0.000645507614           
       1.313590             0.00990557017            0.000593510427           
       1.316230              0.0105156805            0.000652571705           
       1.318871              0.0119532916            0.000681401838           
       1.321511              0.0111929251            0.000647151613           
       1.324151              0.0111268839            0.000626110625           
       1.326792              0.0113335721            0.000635805702           
       1.329432              0.0110575717            0.000623584482           
       1.332072                0.01118644            0.000617860363           
       1.334713              0.0103366787            0.000612994185           
       1.337353              0.0111517081            0.000610610379           
       1.339994              0.0113247864            0.000645728141           
       1.342634              0.0107572498            0.000603497528           
       1.345274              0.0114191103            0.000643490171           
       1.347915              0.0108276236             0.00060929928           
       1.350555              0.0106507531            0.000614885957           
       1.353195              0.0106831245            0.000618844272           
       1.355836              0.0113147617            0.000626945193           
       1.358476              0.0105754066            0.000588630197           
       1.361117             0.00932544852            0.000553508862           
       1.363757              0.0105578235             0.00060693121           
       1.366397              0.0103632707            0.000583116673           
       1.369038              0.0108757973            0.000603310067           
       1.371678              0.0110037756             0.00060149932           
       1.374319              0.0115088545            0.000609852049           
       1.376959              0.0114259557            0.000601540809           
       1.379599              0.0120248416            0.000661348837           
       1.382240              0.0116904911            0.000612866362           
       1.384880              0.0122101942            0.000663437208           
       1.387520               0.010706964            0.000590027507           
       1.390161              0.0111218775            0.000571139127           
       1.392801              0.0117591799            0.000611883431           
       1.395442              0.0106013073            0.000588913102           
       1.398082              0.0118675346            0.000583497944           
       1.400722              0.0104112113            0.000572471961           
       1.403363              0.0109713781            0.000618595016           
       1.406003              0.0111336793            0.000583188165           
       1.408644              0.0111515935             0.00061141882           
       1.411284              0.0120914078            0.000602862209           
       1.413924              0.0117212621            0.000591362499           
       1.416565              0.0115002144            0.000583458863           
       1.419205              0.0122406564            0.000627928758           
       1.421845              0.0115135947            0.000608637076           
       1.424486              0.0113181609            0.000580053594           
       1.427126              0.0121219885            0.000623593859           
       1.429767              0.0104672285            0.000545210569           
       1.432407              0.0102945751            0.000565850305           
       1.435047              0.0110702064            0.000551083683           
       1.437688              0.0103973744            0.000542059465           
       1.440328              0.0113331687            0.000577592498           
       1.442968              0.0113759929            0.000591648447           
       1.445609              0.0108076637            0.000558386284           
       1.448249              0.0104532869            0.000563059658           
       1.450890              0.0101447548            0.000551067551           
       1.453530              0.0111980965            0.000605719213           
       1.456170               0.010909669            0.000580244551           
       1.458811               0.011464568            0.000568777657           
       1.461451              0.0103284414            0.000541276093           
       1.464092               0.011369964            0.000571624841           
       1.466732              0.0111635562            0.000561545177           
       1.469372              0.0110003239            0.000544379185           
       1.472013             0.00993753433            0.000558041237           
       1.474653              0.0118193449            0.000599200156           
       1.477293              0.0106932483            0.000581953644           
       1.479934              0.0106378273            0.000553864462           
       1.482574              0.0106849417            0.000536962486           
       1.485215             0.00987951005            0.000525944599           
       1.487855              0.0099933708            0.000535944599           
       1.490495              0.0102250265            0.000540124276           
       1.493136              0.0105125394            0.000540158603           
       1.495776              0.0102210311            0.000530191587           
       1.498416              0.0113442878            0.000576840158           
       1.501057               0.010653431            0.000546680231           
       1.503697              0.0106943004            0.000535491322           
       1.506338              0.0115497639            0.000566666113           
       1.508978              0.0104586475            0.000533932467           
       1.511618              0.0105705047            0.000571668219           
       1.514259              0.0103769893             0.00054684353           
       1.516899             0.00995650407            0.000521545201           
       1.519540              0.0103842834            0.000541220498           
       1.522180              0.0111189784            0.000564958841           
       1.524820              0.0107493817            0.000552373267           
       1.527461              0.0103139913            0.000543747002           
       1.530101              0.0107042023            0.000548397385           
       1.532741             0.00988190305            0.000523854645           
       1.535382              0.0106165603            0.000551719517           
       1.538022              0.0096450405            0.000495397451           
       1.540663              0.0109418993            0.000567522974           
       1.543303              0.0107729977             0.00052287143           
       1.545943                0.01089932            0.000556656003           
       1.548584              0.0110355586            0.000570178803           
       1.551224              0.0099482205            0.000500538994           
       1.553864              0.0100095072            0.000530539681           
       1.556505             0.00980164965            0.000507165702           
       1.559145              0.0106261142            0.000534533922           
       1.561786               0.011562221            0.000558011324           
       1.564426              0.0116494152            0.000542689657           
       1.567066              0.0100449447            0.000528025588           
       1.569707             0.00983944739            0.000513209083           
       1.572347              0.0105176222            0.000548163501           
       1.574988               0.010448351            0.000520038698           
       1.577628              0.0101240558            0.000533790301           
       1.580268             0.00912368234            0.000490969521           
       1.582909              0.0101110685             0.00054784481           
       1.585549             0.00875367486            0.000494947535           
       1.588189             0.00840352179            0.000474363228           
       1.590830             0.00963749782            0.000507360985           
       1.593470             0.00914313728            0.000513744391           
       1.596111             0.00937832929            0.000507984242           
       1.598751             0.00916902133            0.000486695968           
       1.601391             0.00966092165            0.000510602692           
       1.604032              0.0089120155            0.000500664949           
       1.606672             0.00940348585            0.000499676473           
       1.609312             0.00870120061            0.000501748288           
       1.611953             0.00958226986             0.00051525119           
       1.614593             0.00853227587            0.000476926214           
       1.617234             0.00889940736            0.000504797215           
       1.619874             0.00932454655            0.000514672894           
       1.622514             0.00947169871            0.000511641986           
       1.625155             0.00854876066            0.000488947086           
       1.627795              0.0089735285            0.000488673043           
       1.630436             0.00918782298            0.000491891576           
       1.633076             0.00845385298              0.0004780236           
       1.635716               0.009123301             0.00048886351           
       1.638357              0.0092342578            0.000493123665           
       1.640997             0.00859779085            0.000490239866           
       1.643637             0.00899039943            0.000487829239           
       1.646278             0.00887847587            0.000500015115           
       1.648918             0.00900814427            0.000505027125           
       1.651559             0.00934368265            0.000518338935           
       1.654199             0.00825404787             0.00047382407           
       1.656839             0.00862428109              0.0004845032           
       1.659480             0.00864226319            0.000503221004           
       1.662120             0.00909638934            0.000486244254           
       1.664761             0.00912721831            0.000505937446           
       1.667401             0.00949921324            0.000493323763           
       1.670041             0.00921326023            0.000493249801           
       1.672682             0.00889859352            0.000482761059           
       1.675322             0.00947352778            0.000494909365           
       1.677962             0.00874861472            0.000470350929           
       1.680603             0.00825193684            0.000458210132           
       1.683243             0.00789424563            0.000467581033           
       1.685884             0.00859891645            0.000491607792           
       1.688524             0.00881616384            0.000488157031           
       1.691164               0.009119102            0.000496585828           
       1.693805             0.00809749461            0.000473084262           
       1.696445             0.00924502477            0.000508427633           
       1.699085             0.00891417846            0.000482518513           
       1.701726             0.00891563223            0.000464860256           
       1.704366             0.00875099867            0.000485174974           
       1.707007             0.00866994653            0.000472158019           
       1.709647              0.0085462657            0.000474072096           
       1.712287             0.00904736221             0.00049201805           
       1.714928             0.00855434986            0.000482281996           
       1.717568             0.00839530886            0.000450068499           
       1.720209             0.00910062596            0.000490818794           
       1.722849             0.00835500579            0.000467864849           
       1.725489             0.00866759529            0.000476936843           
       1.728130             0.00891289895            0.000513972417           
       1.730770             0.00771360392            0.000454108588           
       1.733410             0.00893547365             0.00048107072           
       1.736051             0.00892404012            0.000484109169           
       1.738691               0.007979709            0.000448499446           
       1.741332             0.00795630862            0.000460936529           
       1.743972             0.00902451473            0.000506942533           
       1.746612             0.00882201661            0.000481301576           
       1.749253             0.00922257769            0.000501825281           
       1.751893              0.0083696311            0.000474547814           
       1.754533             0.00818710793            0.000468906559           
       1.757174             0.00791847333            0.000456831109           
       1.759814             0.00912060922            0.000482851295           
       1.762455             0.00819164783            0.000466003681           
       1.765095             0.00817271235            0.000445273646           
       1.767735             0.00902980459            0.000482479126           
       1.770376              0.0086960152            0.000474725883           
       1.773016             0.00830585132            0.000460846224           
       1.775657             0.00864283841            0.000463337933           
       1.778297             0.00807212866            0.000443923208           
       1.780937             0.00888995182            0.000491724225           
       1.783578              0.0090161926            0.000482821076           
       1.786218             0.00889190223            0.000500391534           
       1.788858             0.00916948477            0.000482612277           
       1.791499             0.00832409479            0.000454662653           
       1.794139             0.00881107436            0.000463977931           
       1.796780             0.00890128167            0.000464098759           
       1.799420              0.0097155165            0.000482175769           
       1.802060             0.00904041048            0.000468878528           
       1.804701             0.00927834835            0.000455840008           
       1.807341             0.00966374936            0.000488835524           
       1.809981              0.0103159763             0.00050674637           
       1.812622             0.00941391152            0.000475368705           
       1.815262             0.00988533149            0.000497473495           
       1.817903             0.00938551702            0.000477551698           
       1.820543             0.00984276094            0.000496666497           
       1.823183              0.0100649219            0.000501964243           
       1.825824              0.0091851695            0.000458118668           
       1.828464             0.00882151431            0.000468058404           
       1.831105             0.00874225101            0.000453068307           
       1.833745              0.0086978939            0.000461569025           
       1.836385             0.00877196962            0.000476758773           
       1.839026              0.0090335688            0.000482286947           
       1.841666              0.0088144492            0.000474712541           
       1.844306              0.0082675725            0.000447205892           
       1.846947             0.00919206959            0.000475680649           
       1.849587             0.00898693184            0.000519372538           
       1.852228             0.00887424918            0.000466687893           
       1.854868             0.00879333974             0.00049073423           
       1.857508             0.00904914238            0.000492938337           
       1.860149             0.00810541673            0.000475002884           
       1.862789             0.00917979361            0.000487928752           
       1.865429             0.00948010727            0.000517587077           
       1.868070             0.00880060818             0.00049204615           
       1.870710             0.00927862512            0.000493584609           
       1.873351              0.0090043841            0.000492246636           
       1.875991              0.0089494533            0.000498751902           
       1.878631             0.00919026854            0.000495737795           
       1.881272             0.00863671194            0.000477356082           
       1.883912             0.00853255952            0.000493784301           
       1.886553             0.00858176664            0.000489669665           
       1.889193             0.00882289016            0.000495652828           
       1.891833             0.00899658444            0.000519797027           
       1.894474             0.00929669462            0.000523793868           
       1.897114              0.0083480657            0.000480308674           
       1.899754             0.00824770746            0.000479410406           
       1.902395              0.0089683443            0.000490141967           
       1.905035             0.00839875468            0.000502386418           
       1.907676             0.00762451807            0.000451148332           
       1.910316             0.00822335513            0.000480970577           
       1.912956             0.00881691649            0.000487069742           
       1.915597             0.00853289515            0.000481838443           
       1.918237             0.00951415324            0.000525455965           
       1.920878             0.00824768034            0.000487231848           
       1.923518             0.00890811878            0.000506578773           
       1.926158              0.0101239882            0.000533036937           
       1.928799             0.00826667487            0.000476091599           
       1.931439             0.00827839154            0.000488925113           
       1.934079             0.00805777972            0.000502855116           
       1.936720             0.00861397018            0.000481721355           
       1.939360             0.00828334064            0.000503969943           
       1.942001             0.00853870948            0.000468980452           
       1.944641             0.00768323318            0.000453630339           
       1.947281             0.00855975162            0.000474393791           
       1.949922             0.00862657427            0.000491915751           
       1.952562              0.0084702648            0.000502717807           
       1.955202             0.00819330017            0.000493827755           
       1.957843             0.00868888674            0.000495355529           
       1.960483             0.00826091629            0.000504978092           
       1.963124             0.00864883124            0.000506098139           
       1.965764             0.00784291894            0.000454484928           
       1.968404             0.00840389308            0.000466012956           
       1.971045             0.00908316497             0.00049395338           
       1.973685             0.00893307512            0.000513821691           
       1.976326             0.00888053158             0.00050526731           
       1.978966             0.00857297265            0.000500797457           
       1.981606             0.00841092636            0.000506387113           
       1.984247             0.00960449804            0.000537567944           
       1.986887             0.00769805064            0.000475502338           
       1.989527             0.00763914549            0.000468578345           
       1.992168             0.00738108911            0.000477907261           
       1.994808             0.00773388201            0.000487098212           
       1.997449             0.00779083696            0.000478848429           
       2.000089             0.00806588027            0.000485295917           
       2.002729             0.00874032903            0.000505481118           
       2.005370              0.0078712258            0.000474530395           
       2.008010             0.00802860445            0.000500166946           
       2.010650             0.00708238999            0.000473274906           
       2.013291             0.00867607619            0.000502579955           
       2.015931             0.00816213617             0.00048402135           
       2.018572             0.00747379749             0.00049539595           
       2.021212             0.00882680251            0.000528700471           
       2.023852             0.00779347284            0.000470189048           
       2.026493             0.00761343151            0.000485489266           
       2.029133              0.0084428683            0.000500962851           
       2.031774                  0.008216            0.000518637573           
       2.034414             0.00898421986            0.000499030795           
       2.037054             0.00789791425            0.000479749038           
       2.039695             0.00743677655             0.00046201682           
       2.042335             0.00849614653            0.000513196538           
       2.044975             0.00789863021            0.000488820727           
       2.047616             0.00659702577            0.000445623058           
       2.050256             0.00736128267             0.00047518307           
       2.052897             0.00792016134            0.000501978122           
       2.055537             0.00804678487            0.000489005502           
       2.058177             0.00837304381            0.000488479707           
       2.060818             0.00787180575            0.000496167338           
       2.063458             0.00766269237            0.000510141672           
       2.066098             0.00813355279            0.000495799623           
       2.068739             0.00773153816             0.00049090532           
       2.071379             0.00737959382            0.000492110208           
       2.074020             0.00753220364             0.00048636764           
       2.076660              0.0077488071            0.000497299212           
       2.079300             0.00749751686            0.000501154791           
       2.081941              0.0087969426            0.000497040098           
       2.084581             0.00738919987            0.000480824411           
       2.087222             0.00718575147            0.000457280931           
       2.089862             0.00783409366             0.00052003204           
       2.092502             0.00859368184            0.000527969964           
       2.095143             0.00765267518            0.000514492664           
       2.097783             0.00764534546            0.000497876893           
       2.100423              0.0071372258            0.000463533727           
       2.103064             0.00758166923            0.000495727934           
       2.105704             0.00711299049            0.000477782866           
       2.108345             0.00748027197            0.000470723283           
       2.110985             0.00804052407            0.000521254529           
       2.113625             0.00695290797            0.000488949846           
       2.116266              0.0078523925            0.000526987588           
       2.118906             0.00857659699             0.00051327096           
       2.121546             0.00826256238            0.000494167713           
       2.124187               0.006765448            0.000469382409           
       2.126827             0.00722625342            0.000490518424           
       2.129468             0.00717155855            0.000489906751           
       2.132108             0.00750735998            0.000487673484           
       2.134748             0.00718246055            0.000475153466           
       2.137389             0.00780040739            0.000516587203           
       2.140029             0.00783424875            0.000463482522           
       2.142670              0.0073887895            0.000481045211           
       2.145310             0.00735658591            0.000467188475           
       2.147950               0.008048953            0.000502983844           
       2.150591             0.00687980477            0.000460321289           
       2.153231             0.00803678871            0.000512123894           
       2.155871             0.00748867432            0.000477576843           
       2.158512             0.00816224626            0.000520245791           
       2.161152             0.00672253551            0.000457343718           
       2.163793              0.0068797011            0.000460576089           
       2.166433             0.00781280971            0.000504018083           
       2.169073             0.00744132395            0.000480938422           
       2.171714             0.00794192763            0.000493138123           
       2.174354             0.00705470323            0.000485649437           
       2.176995             0.00733115858             0.00049299051           
       2.179635             0.00797958831            0.000543501118           
       2.182275             0.00678140921            0.000473058842           
       2.184916             0.00810530916            0.000499526705           
       2.187556             0.00755056198            0.000477297025           
       2.190196             0.00817084221            0.000518851639           
       2.192837             0.00724399453            0.000485880499           
       2.195477             0.00722381298            0.000462583625           
       2.198118             0.00723581385             0.00047483058           
       2.200758             0.00722831421            0.000486894833           
       2.203398             0.00761149346            0.000502829882           
       2.206039             0.00812834475            0.000491777856           
       2.208679              0.0073541167            0.000478657196           
       2.211319             0.00708195259            0.000472424908           
       2.213960             0.00703302266            0.000477097864           
       2.216600               0.007873431            0.000522203297           
       2.219241             0.00747334646            0.000486239545           
       2.221881             0.00651175197            0.000454813829           
       2.224521             0.00767857944            0.000499936233           
       2.227162             0.00750743105            0.000484435573           
       2.229802             0.00771574403            0.000506484253           
       2.232443             0.00736011384            0.000486871803           
       2.235083             0.00763986705             0.00051067013           
       2.237723             0.00758226598            0.000488211215           
       2.240364             0.00652937293            0.000464208923           
       2.243004             0.00792897633            0.000507464467           
       2.245644             0.00789868969            0.000511564068           
       2.248285             0.00642562854            0.000452159629           
       2.250925             0.00764152883            0.000496082935           
       2.253566             0.00596125439            0.000468426863           
       2.256206             0.00703829527            0.000498809787           
       2.258846              0.0075872674              0.0004926639           
       2.261487             0.00649012218            0.000478250365           
       2.264127              0.0075655095            0.000498687002           
       2.266767              0.0072416074             0.00050089395           
       2.269408             0.00674523303            0.000485402034           
       2.272048             0.00759253986            0.000511913434           
       2.274689             0.00725924842            0.000507146988           
       2.277329             0.00757402276            0.000487754601           
       2.279969             0.00784462385            0.000528380078           
       2.282610             0.00746656237            0.000501153368           
       2.285250             0.00658364023            0.000450419258           
       2.287891             0.00705654792            0.000499960857           
       2.290531             0.00736409583             0.00051760536           
       2.293171             0.00756441141            0.000511005877           
       2.295812              0.0073310772            0.000501040678           
       2.298452             0.00670376893            0.000501037165           
       2.301092              0.0063387065            0.000452672276           
       2.303733             0.00758870576            0.000515283962           
       2.306373              0.0075548681            0.000522230705           
       2.309014             0.00773778012            0.000518204668           
       2.311654             0.00786560005            0.000545219352           
       2.314294               0.006574066             0.00045922463           
       2.316935             0.00685762316            0.000470961611           
       2.319575             0.00738354391            0.000512031276           
       2.322215             0.00752028679            0.000538541697           
       2.324856             0.00693694439            0.000475542117           
       2.327496             0.00691882507            0.000504989785           
       2.330137             0.00746027539            0.000501789807           
       2.332777             0.00717258917             0.00050732464           
       2.335417             0.00735254138             0.00049831664           
       2.338058             0.00594050704            0.000461298177           
       2.340698             0.00726817579            0.000506239872           
       2.343339             0.00806467717            0.000544992527           
       2.345979             0.00660159359            0.000466497259           
       2.348619             0.00734059839            0.000509896688           
       2.351260              0.0067878141             0.00048746532           
       2.353900             0.00679566097            0.000486201917           
       2.356540             0.00735127673            0.000504969644           
       2.359181             0.00721807401            0.000493358799           
       2.361821             0.00711811574            0.000473260088           
       2.364462             0.00626719637             0.00046444441           
       2.367102             0.00712738856            0.000508992922           
       2.369742             0.00737050216            0.000544810748           
       2.372383              0.0067405466            0.000471771779           
       2.375023             0.00687327763            0.000500793395           
       2.377663             0.00763763943            0.000504755217           
       2.380304             0.00685597632             0.00048620288           
       2.382944             0.00690558902              0.0004647654           
       2.385585             0.00758043228            0.000519335833           
       2.388225             0.00649056811            0.000478296408           
       2.390865             0.00711439584            0.000495610537           
       2.393506             0.00808849985             0.00051848209           
       2.396146             0.00711258325            0.000525699557           
       2.398787             0.00715240661            0.000485827326           
       2.401427             0.00697331632            0.000463027281           
       2.404067             0.00643538156            0.000454731235           
       2.406708             0.00721663128            0.000475768317           
       2.409348             0.00779766115            0.000524567302           
       2.411988             0.00762715252            0.000508309567           
       2.414629             0.00727937809            0.000512051283           
       2.417269             0.00671181031            0.000497424636           
       2.419910             0.00751882143            0.000527702233           
       2.422550              0.0060594146            0.000453234081           
       2.425190             0.00750654188            0.000531754064           
       2.427831             0.00673585907            0.000500886295           
       2.430471              0.0072767321            0.000495979693           
       2.433112             0.00624831737            0.000447537984           
       2.435752             0.00625150721            0.000473755795           
       2.438392             0.00650775713             0.00046654883           
       2.441033             0.00664455798            0.000499617897           
       2.443673             0.00662038727            0.000499091744           
       2.446313             0.00810384753            0.000552671493           
       2.448954             0.00689782998            0.000485487877           
       2.451594             0.00687731893            0.000521236219           
       2.454235             0.00732335666            0.000504662611           
       2.456875             0.00779127815             0.00054466675           
       2.459515             0.00766240427            0.000554126234           
       2.462156             0.00728285795            0.000510050482           
       2.464796             0.00741699959            0.000508085493           
       2.467436             0.00792013289            0.000542948662           
       2.470077             0.00797712665            0.000516465072           
       2.472717             0.00799197385            0.000519184774           
       2.475358             0.00757321759            0.000510669721           
       2.477998             0.00710942608            0.000486444346           
       2.480638             0.00740604254            0.000505310402           
       2.483279             0.00714782859            0.000518841539           
       2.485919             0.00681359737            0.000488192014           
       2.488560              0.0070186902            0.000494100495           
       2.491200             0.00752812183            0.000526934156           
       2.493840             0.00685690714             0.00053212858           
       2.496481              0.0078584505            0.000560348297           
       2.499121             0.00766897141            0.000538417393           
       2.501761             0.00693803367            0.000518901735           
       2.504402             0.00606045318            0.000477889674           
       2.507042             0.00779371338            0.000537920524           
       2.509683             0.00734392786            0.000514187264           
       2.512323             0.00686868701            0.000522259107           
       2.514963             0.00665975995            0.000507901563           
       2.517604             0.00766419703            0.000565374308           
       2.520244             0.00740525479            0.000521008567           
       2.522884              0.0062146871            0.000484118106           
       2.525525             0.00654548738            0.000502474758           
       2.528165               0.008928558             0.00057771142           
       2.530806             0.00747733567            0.000537896068           
       2.533446              0.0103244068            0.000618567931           
       2.536086             0.00825080739              0.0005480226           
       2.538727             0.00770505626            0.000508059206           
       2.541367             0.00664933749            0.000476620459           
       2.544008             0.00745824446            0.000521314111           
       2.546648             0.00580316628            0.000467734961           
       2.549288             0.00729978846            0.000535281985           
       2.551929             0.00606580801            0.000480168128           
       2.554569             0.00683842359            0.000491180355           
       2.557209             0.00732084168             0.00051287763           
       2.559850             0.00776008272            0.000529735163           
       2.562490             0.00706770629            0.000522513983           
       2.565131              0.0082719861            0.000586107687           
       2.567771             0.00740705866             0.00053473681           
       2.570411             0.00698457856            0.000513644542           
       2.573052             0.00619470663             0.00048982182           
       2.575692             0.00769597441            0.000542652364           
       2.578332              0.0075600223            0.000540062033           
       2.580973             0.00700998611            0.000515096659           
       2.583613             0.00746679392            0.000518956761           
       2.586254             0.00712770509            0.000506331524           
       2.588894             0.00749229164            0.000539080947           
       2.591534             0.00723720109            0.000548467687           
       2.594175             0.00757022999            0.000550359639           
       2.596815              0.0072878241            0.000543180498           
       2.599456             0.00647720629            0.000485604515           
       2.602096             0.00742379061            0.000523834763           
       2.604736               0.007358559            0.000533894837           
       2.607377             0.00733659554             0.00051904861           
       2.610017             0.00640909426            0.000476641432           
       2.612657             0.00677618599            0.000521296952           
       2.615298             0.00687753152            0.000512741654           
       2.617938             0.00602778908            0.000513501087           
       2.620579             0.00768440828            0.000556588478           
       2.623219             0.00727458361            0.000540771193           
       2.625859             0.00738151572            0.000529631522           
       2.628500             0.00682247934            0.000505843491           
       2.631140             0.00685203411            0.000514749007           
       2.633780             0.00744473431            0.000536083766           
       2.636421             0.00679354438            0.000524695315           
       2.639061             0.00685376764            0.000496124836           
       2.641702             0.00615141436             0.00048089841           
       2.644342             0.00735156616            0.000527961642           
       2.646982             0.00736718422            0.000520620875           
       2.649623             0.00714593476            0.000537334814           
       2.652263             0.00878129315            0.000589677491           
       2.654904             0.00610679194             0.00049224189           
       2.657544             0.00706490164            0.000498687114           
       2.660184             0.00678217364            0.000517088316           
       2.662825             0.00713010792            0.000542486314           
       2.665465             0.00694418853            0.000517787935           
       2.668105             0.00643768688            0.000525487641           
       2.670746             0.00827803276            0.000550469017           
       2.673386              0.0120709212            0.000685048465           
       2.676027              0.0143009021            0.000733679108           
       2.678667             0.00858421777            0.000554642781           
       2.681307              0.0110003026            0.000616911714           
       2.683948                0.01351621            0.000702603656           
       2.686588              0.0111187686            0.000626684183           
       2.689229              0.0108701226            0.000605484025           
       2.691869             0.00944527732            0.000596522672           
       2.694509              0.0078091171            0.000542699147           
       2.697150              0.0074769161            0.000522415011           
       2.699790             0.00820777146            0.000573820352           
       2.702430             0.00663273425            0.000493074903           
       2.705071             0.00743216484            0.000539331063           
       2.707711             0.00660345209             0.00049341501           
       2.710352             0.00782203389            0.000567423914           
       2.712992             0.00628143935             0.00051788598           
       2.715632             0.00771977053             0.00053267447           
       2.718273             0.00737791719            0.000539683931           
       2.720913             0.00583280603            0.000478491134           
       2.723553             0.00592405261            0.000485454749           
       2.726194             0.00734786114            0.000565162096           
       2.728834             0.00739610275            0.000567280342           
       2.731475             0.00839967781            0.000557940672           
       2.734115             0.00759234359            0.000546912971           
       2.736755             0.00740473518            0.000544559104           
       2.739396             0.00655785648            0.000509504071           
       2.742036             0.00672262596             0.00053988562           
       2.744677             0.00754273364            0.000554870724           
       2.747317             0.00792725907            0.000564782223           
       2.749957             0.00728908248            0.000545372311           
       2.752598              0.0075815926            0.000562243814           
       2.755238             0.00733679988            0.000563077109           
       2.757878             0.00790631039            0.000579412189           
       2.760519             0.00768537606            0.000565202073           
       2.763159              0.0080969036            0.000574339688           
       2.765800             0.00822018477             0.00055148782           
       2.768440             0.00708952322            0.000515930642           
       2.771080              0.0078154722            0.000546223617           
       2.773721             0.00745869329            0.000547375466           
       2.776361             0.00771869932            0.000564516428           
       2.779001             0.00777090008             0.00058658747           
       2.781642             0.00688968162            0.000548257153           
       2.784282             0.00678714217            0.000553110159           
       2.786923             0.00679080041            0.000558130531           
       2.789563              0.0071606807            0.000551990628           
       2.792203             0.00714732404            0.000526816658           
       2.794844             0.00712766803             0.00057658797           
       2.797484             0.00743039472             0.00055559397           
       2.800125             0.00698097172            0.000566263988           
       2.802765             0.00645823896            0.000535280858           
       2.805405              0.0067455016            0.000548907567           
       2.808046             0.00664244771            0.000554274023           
       2.810686             0.00640258274            0.000500032929           
       2.813326             0.00560354044            0.000485906191           
       2.815967             0.00850808422            0.000615762196           
       2.818607             0.00632262043            0.000506545944           
       2.821248             0.00699591391             0.00052177257           
       2.823888             0.00728410551            0.000552656252           
       2.826528              0.0074539138            0.000541422905           
       2.829169             0.00647114244            0.000528403535           
       2.831809             0.00762808378            0.000581501041           
       2.834449             0.00622602061            0.000528669218           
       2.837090             0.00685858234            0.000535922194           
       2.839730             0.00543125243            0.000474579473           
       2.842371             0.00756685507            0.000560974352           
       2.845011             0.00688271632            0.000539278697           
       2.847651             0.00737800483            0.000559030947           
       2.850292             0.00604284726            0.000510891453           
       2.852932             0.00665004031            0.000547624709           
       2.855573             0.00627175052             0.00051588113           
       2.858213             0.00696545565            0.000570912404           
       2.860853             0.00671829977            0.000521572423           
       2.863494             0.00623867477            0.000520382505           
       2.866134             0.00679698203            0.000564556326           
       2.868774             0.00696510363            0.000561663182           
       2.871415             0.00657531286            0.000554221028           
       2.874055             0.00707232465            0.000549423566           
       2.876696             0.00676133708            0.000551738736           
       2.879336             0.00716864429            0.000547552929           
       2.881976             0.00724902044            0.000567920386           
       2.884617             0.00612309104            0.000514289406           
       2.887257              0.0067570346             0.00054304543           
       2.889897             0.00694283639            0.000539131973           
       2.892538             0.00743616163            0.000611244354           
       2.895178             0.00693298218            0.000533207954           
       2.897819             0.00608874366            0.000509731274           
       2.900459             0.00647637965             0.00051548013           
       2.903099              0.0079560886            0.000565492931           
       2.905740             0.00617697399            0.000511161962           
       2.908380             0.00696523768            0.000548965916           
       2.911021             0.00719640974            0.000567073685           
       2.913661             0.00695153322            0.000557175129           
       2.916301             0.00631457298            0.000531541745           
       2.918942             0.00674849734             0.00052561175           
       2.921582             0.00712859841            0.000565216568           
       2.924222             0.00664701227            0.000528766118           
       2.926863             0.00713071584            0.000570458881           
       2.929503             0.00691253722            0.000568318188           
       2.932144             0.00666261495            0.000535597742           
       2.934784             0.00720126684            0.000547697321           
       2.937424             0.00612664393            0.000510368156           
       2.940065             0.00724724429            0.000529497679           
       2.942705             0.00753553092            0.000539248984           
       2.945346             0.00757892549            0.000573925062           
       2.947986             0.00633341012            0.000534962054           
       2.950626             0.00728732073            0.000570605524           
       2.953267             0.00704920973            0.000552138335           
       2.955907             0.00725684151            0.000581141752           
       2.958547             0.00750215702            0.000557823659           
       2.961188             0.00667956048            0.000549134022           
       2.963828             0.00755503903            0.000571273003           
       2.966469             0.00753603009            0.000559711373           
       2.969109             0.00655179788             0.00052961539           
       2.971749             0.00757442041            0.000565896868           
       2.974390             0.00784505165            0.000565944616           
       2.977030               0.008160442             0.00059010829           
       2.979670             0.00903889415            0.000604098994           
       2.982311             0.00870931977             0.00061459752           
       2.984951             0.00636304076            0.000499633707           
       2.987592             0.00727630676            0.000544988665           
       2.990232             0.00698036111            0.000555136465           
       2.992872              0.0079132115            0.000556752332           
       2.995513             0.00936956457            0.000592693762           
       2.998153              0.0106944501            0.000643851873           
       3.000794              0.0135715233            0.000702532985           
       3.003434              0.0123957336            0.000672424882           
       3.006074              0.0569359394             0.00142092385           
       3.008715               0.130186962             0.00207410012           
       3.011355               0.168838224             0.00227773869           
       3.013995              0.0825033686             0.00159655673           
       3.016636              0.0578024788             0.00130860787           
       3.019276                0.12514978              0.0018927614           
       3.021917                 0.5018369             0.00364446103           
       3.024557                1.76480752             0.00671940264           
       3.027197                1.11720347             0.00521229876           
       3.029838               0.505641655             0.00355632615           
       3.032478               0.258073781             0.00254327582           
       3.035118              0.0738476445             0.00137872493           
       3.037759               0.103027601             0.00162639264           
       3.040399               0.155140504             0.00205869004           
       3.043040                0.57381903             0.00400780684           
       3.045680               0.379877571             0.00306807019           
       3.048320              0.0789338461             0.00142896721           
       3.050961               0.112010387             0.00173222983           
       3.053601              0.0865890594             0.00146686057           
       3.056242              0.0582857119             0.00127955346           
       3.058882              0.0557901457             0.00134287519           
       3.061522              0.0407563192             0.00112609793           
       3.064163              0.0499295101             0.00123070454           
       3.066803               0.113150926             0.00195049014           
       3.069443               0.113700651             0.00204566358           
       3.072084              0.0413430439             0.00120114072           
       3.074724              0.0389843373             0.00130257316           
       3.077365              0.0849830845             0.00199084238           
       3.080005              0.0150309609             0.00084201142           
       3.082645              0.0113853142            0.000769844193           
       3.085286              0.0130429757            0.000830484741           
       3.087926              0.0114657568            0.000772653073           
       3.090566              0.0112355622            0.000749412809           
       3.093207              0.0105510728            0.000755713696           
       3.095847             0.00924392063            0.000677988391           
       3.098488             0.00757376289            0.000680478679           
       3.101128              0.0110258542            0.000826321084           
       3.103768             0.00959379397            0.000756291899           
       3.106409             0.00830536146            0.000748901898           
       3.109049             0.00720990254            0.000669612331           
       3.111690             0.00894300809            0.000732960125           
       3.114330             0.00655329875            0.000640782283           
       3.116970             0.00699513628            0.000667113922           
       3.119611              0.0151441498             0.00104482395           
       3.122251              0.0222734908             0.00132544111           
       3.124891              0.0360122785             0.00170105437           
       3.127532              0.0225265901              0.0013161601           
       3.130172              0.0130578029             0.00101938043           
       3.132813             0.00736660423            0.000753764041           
       3.135453             0.00686074437            0.000721431635           
       3.138093             0.00827809789            0.000858653491           
       3.140734              0.0078212754            0.000770005925           
       3.143374             0.00711677958            0.000776775233           
       3.146014             0.00688490537            0.000822498342           
       3.148655             0.00466301538            0.000629233917           
       3.151295             0.00627310899             0.00077774509           
       3.153936             0.00683086849            0.000783966296           
       3.156576             0.00613072439            0.000732600975           
       3.159216             0.00609777772            0.000734284278           
       3.161857             0.00664655381            0.000763493964           
       3.164497             0.00686933753            0.000815545896           
       3.167138             0.00857677956            0.000941577386           
       3.169778             0.00676599378            0.000822503749           
       3.172418             0.00646504715            0.000795825479           
       3.175059             0.00629642779            0.000696271442           
       3.177699             0.00664509074            0.000757448444           
       3.180339             0.00673799893            0.000817200896           
       3.182980             0.00538217986             0.00075512757           
       3.185620             0.00649072136            0.000844524862           
       3.188261             0.00591025418            0.000820258694           
       3.190901             0.00684030473            0.000811589255           
       3.193541             0.00665002122            0.000840839544           
       3.196182             0.00669321998            0.000879116974           
       3.198822             0.00530988631            0.000783280415           
       3.201463             0.00445901905            0.000705418479           
       3.204103             0.00683866802            0.000868285521           
       3.206743             0.00717524985            0.000889312808           
       3.209384             0.00616269672            0.000890454806           
       3.212024             0.00559099102            0.000790738559           
       3.214664              0.0056498516            0.000903903197           
       3.217305             0.00560289667            0.000855644547           
       3.219945             0.00775833544             0.00103632424           
       3.222586             0.00540873087            0.000824169377           
       3.225226              0.0054185123            0.000915113895           
       3.227866             0.00527765247            0.000825461712           
       3.230507             0.00497407839            0.000830707085           
       3.233147             0.00777886066             0.00104723074           
       3.235787              0.0052849847            0.000883366806           
       3.238428              0.0034120823            0.000765951612           
       3.241068             0.00676053447             0.00100813059           
       3.243709              0.0054574328            0.000935809805           
       3.246349             0.00559439865            0.000863716452           
       3.248989             0.00557350871              0.0010179509           
       3.251630             0.00413408432            0.000844240415           
       3.254270             0.00701319344            0.000982743443           
       3.256911             0.00623900038             0.00101136676           
       3.259551             0.00530839528             0.00100434474           
       3.262191             0.00632759544             0.00112005067           
       3.264832             0.00344953988            0.000864077958           
       3.267472              0.0077854329             0.00121777301           
       3.270112             0.00482978405             0.00105998856           
       3.272753              0.0066131007             0.00113531055           
       3.275393             0.00628669809             0.00112946267           
       3.278034             0.00606481191             0.00110997626           
       3.280674              0.0062172413             0.00121952075           
       3.283314             0.00555340964              0.0010308128           
       3.285955             0.00508478444             0.00101770874           
       3.288595             0.00555430443             0.00118335952           
       3.291235             0.00502704917             0.00115730529           
       3.293876             0.00629176053             0.00131332988           
       3.296516             0.00555981097             0.00118522042           
       3.299157             0.00640443764             0.00125608221           
       3.301797             0.00477355462             0.00123698425           
       3.304437             0.00505626306             0.00110297821           
       3.307078             0.00754660557             0.00148435136           
       3.309718             0.00806262134             0.00158363219           
       3.312359             0.00623086936             0.00139249507           
       3.314999             0.00390930112             0.00108597725           
       3.317639             0.00470115663             0.00113894487           
       3.320280             0.00839441691             0.00161812915           
       3.322920             0.00808892441             0.00161514704           
       3.325560             0.00773386455             0.00158037412           
       3.328201             0.00522767537             0.00117019375           
       3.330841             0.00585616486             0.00150738089           
       3.333482             0.00623186736             0.00146981528           
       3.336122             0.00415196701             0.00120027344           
       3.338762             0.00646894879             0.00173065428           
       3.341403             0.00593331544             0.00158376616           
       3.344043             0.00580956159             0.00150460521           
       3.346683             0.00607729378             0.00157107552           
       3.349324             0.00308696029             0.00125892799           
       3.351964             0.00742031651             0.00206400926           
       3.354605             0.00754067497             0.00237957692           
       3.357245             0.00549218032             0.00183199713           
       3.359885             0.00429129196             0.00129608057           
       3.362526             0.00608035165             0.00192930349           
       3.365166             0.00381056529             0.00144056128           
       3.367807             0.00712542478             0.00252106136           
       3.370447             0.00429645874              0.0016238914           
       3.373087             0.00416796932             0.00171037434           
       3.375728             0.00353827356             0.00177854087           
       3.378368             0.00185341674             0.00191040121           
       3.381008              0.0043668565             0.00218625412           
       3.383649             0.00490066618             0.00185792509           
       3.386289             0.00294902543             0.00170576988           
       3.388930           -2.63763929e-05                         0           
       3.391570             0.00865289814             0.00326939791           
       3.394210              0.0119535713             0.00486301704           
       3.396851             0.00485055504             0.00346518534           
       3.399491             0.00713127323             0.00420277731           
       3.402131             0.00482327906             0.00489013134           
       3.404772           -2.64999244e-05                         0           
       3.407412                       nan                       nan           
       3.410053           -2.65651938e-05                         0           
       3.412693                       nan                       nan           
       3.415333           -2.66159594e-05                         0           
