################################################################################
# EDF_DataBlockID                     0.Image.Psd
# EDF_BinarySize                      2105344
# EDF_HeaderSize                      2560
# ByteOrder                           LowByteFirst
# DataType                            FloatValue
# Dim_1                               512
# Dim_2                               1028
# Image                               0
# HeaderID                            EH:000000:000000:000000
# Size                                2105344
# Center_1                            304.9000
# Center_2                            588.7000
# Comment                             Xenocs_Cell_Window - 20251028_20perc_iodine_1.23mg
# DDummy                              0.6
# Date                                2025-10-30T04:38:40
# Delta                               21.910000
# Dummy                               -1.5
# ExposureTime                        360
# Gamma                               15.360000
# Intensity1                          8.4913e-10
# PSize_1                             7.5e-05
# PSize_2                             7.5e-05
# Pressure                            0.0325537
# SampleDistance                      0.115750
# SampleEnvKind                       large
# SampleEnvPN                         ElectroChemical cell
# SampleEnvSN                         1141
# Thickness                           0
# Wavelength                          1.541891e-10
# Wavelength                          1.54189e-10
# aux                                 0
# aux_dial                            0.002375
# beamx                               588.434
# beamx_dial                          588.434
# beamz                               657.808
# beamz_dial                          657.808
# det0x                               0
# det0x_dial                          6.36945
# det0xvd                             0
# det0xvd_dial                        0
# det0y                               450.002
# det0y_dial                          481.635
# det0z                               0
# det0z_dial                          1.23302
# det0zvd                             0
# det0zvd_dial                        0
# mag                                 1.818
# mag_dial                            1.818
# om                                  0.2499
# om_dial                             -0.610199
# phi                                 -0.0120535
# phi_dial                            0
# ry                                  0.599993
# ry_dial                             0.599993
# s1bot                               0.8
# s1bot_dial                          -1.66094
# s1hl                                0.8
# s1hl_dial                           -0.608437
# s1hr                                0.8
# s1hr_dial                           0.970938
# s1top                               0.8
# s1top_dial                          -0.461562
# s2bot                               0.45
# s2bot_dial                          1.36109
# s2hl                                0.45
# s2hl_dial                           -0.83375
# s2hr                                0.45
# s2hr_dial                           -0.118594
# s2top                               0.45
# s2top_dial                          1.44734
# w2theta                             32
# w2theta_dial                        32
# waxsch                              19.2605
# waxsch_dial                         -32.7355
# waxsh                               137.085
# waxsh_dial                          -43.5338
# waxsth                              26.0607
# waxsth_dial                         -19.4086
# waxsz                               67.0407
# waxsz_dial                          -23.7954
# wind                                65.9854
# wind_dial                           66.0041
# wpsi                                124
# wpsi_dial                           124
# wstod                               115
# wstod_dial                          115
# x                                   0
# x_dial                              1.00969
# z                                   0
# z_dial                              13.3172
# CountCutoff                         6807993
# DetectorModel                       Dectris EIGER2 Si 500K, S/N E-01-0554
# ThresholdSetting                    4023.88989258
# Saturation                          0
# FlatField                           Corrected
# BackgroundReductionExtra            0.02
# BackgroundCorrectionConstant        0.0026712
# Detector                            0
# Monitor                             0
# Pil_Roi0                            0
# SumForIntensity1                    3.05687e+08
# TransmittedFlux                     849130
# det                                 0
# mon                                 0
# pilai0                              3.05687e+08
# pilai1                              768275
# pilct0                              5.2985e+08
# pilct1                              768275
# pilroi0                             0
# pilroi1                             0
# sec                                 1
# title                               20251028_20perc_iodine_1.23mg_1_00348.edf
# usaxs0                              0
# Operation                           Azimuthal average I(q)
# Error_model                         ErrorModel.poisson
# Geometrical_correction              True
# Transmission_correction             True
# Thickness_correction                False
# Binning mode                        Uniform
# Binning factor                      1.0
# Psi                                 0.0
# Omega                               0.2499
# MaskInvalidPixels                   True
# DetectorEdge                        3
# MaskFiles                           ['WAXS_corrected.edf']
################################################################################
    q(A⁻¹)                Intensity(a.u.)            Sigma_I(a.u.)            
       0.693100             0.00832637301              0.0061045676           
       0.695741              0.0056630583             0.00410828167           
       0.698381              0.0043009443             0.00438560448           
       0.701021           -2.38729393e-05                         0           
       0.703662              0.0028154439             0.00289542713           
       0.706302             0.00873528847              0.0039485258           
       0.708942               0.011446241             0.00583376394           
       0.711583             0.00220232911             0.00221587018           
       0.714223           -2.38140861e-05                         0           
       0.716864              0.0062739756             0.00282517477           
       0.719504             0.00735716564              0.0033013915           
       0.722144             0.00634875699             0.00284009542           
       0.724785             0.00560229571             0.00212815374           
       0.727425             0.00442697719             0.00255925567           
       0.730065              0.0102549957             0.00275530062           
       0.732706             0.00880911285             0.00214445076           
       0.735346             0.00526204554             0.00216048575           
       0.737987             0.00615873068             0.00165164528           
       0.740627             0.00676426435             0.00258266421           
       0.743267             0.00616091791              0.0016509067           
       0.745908             0.00733687626             0.00195462811           
       0.748548             0.00621345267             0.00165801888           
       0.751189             0.00969330903             0.00279045828           
       0.753829             0.00815926515             0.00235336957           
       0.756469               0.008369247             0.00192194586           
       0.759110             0.00735785323             0.00189908347           
       0.761750             0.00687082201             0.00162268232           
       0.764390             0.00709146957             0.00172545145           
       0.767031              0.0112800282             0.00188446847           
       0.769671              0.0083563851             0.00202328772           
       0.772312             0.00706924792             0.00141672768           
       0.774952             0.00622043181             0.00179460865           
       0.777592              0.0057471144             0.00125643956           
       0.780233             0.00799511773             0.00178793976           
       0.782873             0.00469447918             0.00131031825           
       0.785513              0.0079660922             0.00182477584           
       0.788154             0.00580989848             0.00130363196           
       0.790794             0.00458778731             0.00138494141           
       0.793435             0.00768780441              0.0016105757           
       0.796075             0.00562038601             0.00132656708           
       0.798715             0.00525360741             0.00151561082           
       0.801356             0.00708676461             0.00151502154           
       0.803996             0.00673897757             0.00150620652           
       0.806637             0.00935515815             0.00141229462           
       0.809277             0.00623642283             0.00124809846           
       0.811917              0.0102862346             0.00149846614           
       0.814558             0.00583336848             0.00117281168           
       0.817198             0.00682671616             0.00120536767           
       0.819838               0.007156582             0.00124904664           
       0.822479             0.00814881991             0.00156510071           
       0.825119             0.00672331066             0.00120998571           
       0.827760             0.00650277016             0.00120539862           
       0.830400             0.00667170043             0.00114914534           
       0.833040             0.00605632323             0.00114708308           
       0.835681             0.00898433923             0.00158828529           
       0.838321             0.00712749289             0.00118737406           
       0.840961             0.00584565029             0.00117160594           
       0.843602             0.00826644706             0.00127765405           
       0.846242             0.00650068059             0.00113283971           
       0.848883             0.00413945241            0.000925096997           
       0.851523             0.00543667625             0.00104701772           
       0.854163             0.00660494991             0.00122727315           
       0.856804             0.00665994282             0.00110807117           
       0.859444             0.00725406935             0.00113308815           
       0.862085             0.00904248385             0.00131852617           
       0.864725             0.00767182428             0.00124290592           
       0.867365             0.00797327405             0.00117496026           
       0.870006             0.00689088211             0.00104087871           
       0.872646             0.00605853368              0.0010234632           
       0.875286             0.00848086134             0.00116496119           
       0.877927             0.00729151457             0.00104233346           
       0.880567             0.00561620608            0.000947736474           
       0.883208             0.00578900239            0.000953140896           
       0.885848             0.00743614885             0.00112163748           
       0.888488             0.00745012273             0.00105301474           
       0.891129             0.00875982284             0.00117241828           
       0.893769             0.00604402653            0.000932012721           
       0.896410             0.00695612167            0.000932226424           
       0.899050             0.00846821534             0.00113114715           
       0.901690             0.00678756045             0.00110312254           
       0.904331             0.00690000153            0.000986046072           
       0.906971             0.00621463446            0.000995531022           
       0.909611             0.00725773856            0.000979358683           
       0.912252             0.00676386417            0.000976550535           
       0.914892             0.00603174146             0.00100775299           
       0.917533             0.00616429104            0.000963748605           
       0.920173             0.00828876335             0.00103686693           
       0.922813             0.00784761783             0.00105872434           
       0.925454             0.00659167079            0.000873739882           
       0.928094             0.00776358539             0.00101231986           
       0.930734             0.00704409127             0.00103814431           
       0.933375             0.00762148822             0.00106923858           
       0.936015              0.0077869161            0.000981579787           
       0.938656             0.00686009915            0.000988353101           
       0.941296             0.00807857841            0.000972018607           
       0.943936             0.00819825782            0.000960249612           
       0.946577             0.00852857883            0.000972928586           
       0.949217             0.00636862204            0.000773143191           
       0.951858             0.00884677079            0.000953879411           
       0.954498             0.00812549204             0.00105813309           
       0.957138             0.00716133023             0.00094108487           
       0.959779             0.00720997728            0.000930861921           
       0.962419             0.00828644994            0.000991297792           
       0.965059             0.00708130686            0.000963794184           
       0.967700             0.00826001436             0.00106611022           
       0.970340             0.00828836127            0.000945019438           
       0.972981             0.00739832556            0.000813461944           
       0.975621             0.00750576937            0.000871644549           
       0.978261             0.00703909011            0.000802054838           
       0.980902             0.00715433072            0.000967441923           
       0.983542             0.00604201915            0.000787321249           
       0.986182             0.00990363286            0.000989642872           
       0.988823             0.00737234806            0.000829094731           
       0.991463             0.00699585638            0.000861675278           
       0.994104              0.0082842162            0.000914709168           
       0.996744             0.00661324726            0.000833607219           
       0.999384             0.00739110566             0.00078814983           
       1.002025              0.0092077944            0.000981855306           
       1.004665             0.00752616618            0.000811229972           
       1.007306             0.00683243559            0.000768982031           
       1.009946             0.00901107022            0.000900652386           
       1.012586             0.00855217806            0.000854555121           
       1.015227             0.00728244444            0.000847171158           
       1.017867             0.00783829182            0.000844691113           
       1.020507             0.00812782602            0.000833172583           
       1.023148             0.00913543621            0.000953114036           
       1.025788             0.00860162042            0.000848012679           
       1.028429              0.0086358315            0.000890197768           
       1.031069             0.00666375221            0.000735870182           
       1.033709             0.00843341264            0.000879989989           
       1.036350             0.00762072956            0.000751305864           
       1.038990             0.00751735116            0.000759904895           
       1.041630             0.00979182017            0.000904580151           
       1.044271             0.00887781748            0.000810047475           
       1.046911             0.00727597478            0.000771373726           
       1.049552             0.00705258706            0.000797888094           
       1.052192             0.00661943068            0.000705844683           
       1.054832             0.00812505239            0.000789123115           
       1.057473             0.00715595229            0.000730044461           
       1.060113             0.00849462857             0.00077573522           
       1.062754             0.00745890435            0.000742159198           
       1.065394              0.0108827968            0.000947787555           
       1.068034             0.00894972773            0.000782026733           
       1.070675             0.00811279399             0.00077667151           
       1.073315             0.00811289637            0.000787809044           
       1.075955             0.00913331572              0.0007891245           
       1.078596              0.0111631232            0.000927206258           
       1.081236             0.00974425385            0.000829518685           
       1.083877             0.00734653275            0.000713805045           
       1.086517             0.00629440163            0.000708482222           
       1.089157              0.0080758537            0.000832685404           
       1.091798             0.00935868441            0.000785874691           
       1.094438             0.00694682812            0.000674893426           
       1.097078             0.00844326997            0.000713614034           
       1.099719              0.0100873415             0.00084369276           
       1.102359             0.00855029707            0.000727444544           
       1.105000             0.00779767505            0.000776800247           
       1.107640             0.00835179922            0.000768685286           
       1.110280             0.00959524186            0.000751766694           
       1.112921             0.00842486111            0.000756707782           
       1.115561             0.00726088513            0.000667660176           
       1.118202             0.00880259598            0.000735825957           
       1.120842             0.00916780948            0.000789237843           
       1.123482             0.00989533615             0.00081637444           
       1.126123             0.00916291926            0.000753503943           
       1.128763             0.00903968543            0.000753551185           
       1.131403              0.0107346028            0.000791260361           
       1.134044             0.00765252165            0.000687456318           
       1.136684             0.00863235294            0.000778458131           
       1.139325             0.00934481726            0.000746121355           
       1.141965             0.00856502267            0.000719034857           
       1.144605             0.00937596261            0.000717324499           
       1.147246             0.00831359689            0.000691278983           
       1.149886             0.00890911772            0.000713069328           
       1.152527             0.00933605968            0.000740570227           
       1.155167              0.0103580818            0.000741949204           
       1.157807              0.0105027997            0.000801039635           
       1.160448             0.00909432353            0.000727897617           
       1.163088             0.00938139915            0.000705180484           
       1.165728             0.00999825795            0.000747446657           
       1.168369             0.00836153618            0.000689850397           
       1.171009             0.00961425275            0.000717881978           
       1.173650             0.00794557634            0.000669740035           
       1.176290             0.00909612614            0.000700270875           
       1.178930              0.0101445091            0.000724802638           
       1.181571             0.00903373295            0.000697534686           
       1.184211             0.00953901786            0.000719318313           
       1.186851              0.0100474142            0.000721764726           
       1.189492              0.0098669696            0.000710442277           
       1.192132             0.00924248692            0.000679878003           
       1.194773              0.0102991968            0.000720828018           
       1.197413              0.0087177032            0.000635419745           
       1.200053             0.00989170539            0.000694052232           
       1.202694             0.00985722255            0.000658852554           
       1.205334             0.00914922271            0.000684062371           
       1.207975             0.00948758774            0.000664921337           
       1.210615             0.00962516362            0.000738820324           
       1.213255              0.0104555287            0.000689544342           
       1.215896             0.00994692203            0.000684750086           
       1.218536             0.00933716322            0.000637916496           
       1.221176             0.00978546478            0.000710000403           
       1.223817              0.0100557181             0.00067563024           
       1.226457              0.0105309292            0.000705339704           
       1.229098              0.0102901184            0.000697194596           
       1.231738             0.00966440074            0.000678990174           
       1.234378             0.00949308104            0.000632333039           
       1.237019             0.00884422864            0.000628950211           
       1.239659             0.00931581251            0.000639877646           
       1.242299              0.0103824624            0.000666935188           
       1.244940               0.010117657            0.000640311103           
       1.247580              0.0106107701            0.000675782535           
       1.250221              0.0109073236            0.000680933271           
       1.252861             0.00954821607            0.000606520824           
       1.255501              0.0099865419             0.00067351232           
       1.258142              0.0114953427            0.000679013884           
       1.260782             0.00986507355              0.0006426353           
       1.263423              0.0104340337            0.000635057138           
       1.266063             0.00991230482            0.000634432949           
       1.268703              0.0110564652            0.000664488886           
       1.271344              0.0110931115            0.000688146491           
       1.273984              0.0101923479            0.000637059151           
       1.276624              0.0105596411            0.000636254281           
       1.279265              0.0107665556            0.000653126706           
       1.281905             0.00969187926            0.000622423879           
       1.284546              0.0109842861            0.000640487666           
       1.287186              0.0100567565             0.00060127037           
       1.289826               0.011984919            0.000691775628           
       1.292467              0.0108097249            0.000642513733           
       1.295107             0.00957299197            0.000598636599           
       1.297747             0.00983159213            0.000580531231           
       1.300388               0.011024145            0.000670135946           
       1.303028              0.0115443979             0.00065467361           
       1.305669              0.0112478532            0.000661597366           
       1.308309              0.0102545087            0.000625487159           
       1.310949              0.0110598863            0.000648932656           
       1.313590              0.0112861754            0.000635046362           
       1.316230              0.0109624764            0.000667893634           
       1.318871              0.0112211977            0.000661793614           
       1.321511              0.0111740965            0.000648162452           
       1.324151              0.0115618836            0.000639767264           
       1.326792              0.0110333491            0.000628837038           
       1.329432              0.0123083435            0.000659490647           
       1.332072               0.010889823            0.000611080208           
       1.334713               0.011482895            0.000647641937           
       1.337353              0.0116326788            0.000625139261           
       1.339994              0.0113807365            0.000648878386           
       1.342634              0.0112839174            0.000619581211           
       1.345274              0.0107617251            0.000626195804           
       1.347915              0.0118778868            0.000639701108           
       1.350555              0.0113401339            0.000635999725           
       1.353195              0.0110279577             0.00063026501           
       1.355836               0.010916547            0.000617295251           
       1.358476              0.0115807361            0.000617455276           
       1.361117              0.0111901489            0.000607786526           
       1.363757              0.0104453336            0.000605141379           
       1.366397              0.0114402708            0.000614141734           
       1.369038              0.0118748044            0.000631926651           
       1.371678              0.0108553267              0.0005988653           
       1.374319              0.0125247052            0.000637728187           
       1.376959              0.0111945776            0.000596851244           
       1.379599              0.0113874323            0.000645130001           
       1.382240              0.0101985166            0.000573801041           
       1.384880              0.0118438145            0.000654979577           
       1.387520              0.0113392007            0.000608658554           
       1.390161              0.0118836132            0.000591793967           
       1.392801              0.0102519695            0.000572700088           
       1.395442              0.0113730776            0.000611440111           
       1.398082              0.0114692465            0.000575002778           
       1.400722              0.0112230566            0.000595802866           
       1.403363              0.0115543427            0.000636343876           
       1.406003              0.0113513257            0.000590277274           
       1.408644              0.0109373137             0.00060697261           
       1.411284              0.0125965528            0.000616806446           
       1.413924              0.0112619023             0.00058105319           
       1.416565              0.0106143429            0.000561884756           
       1.419205              0.0115578463            0.000611631576           
       1.421845              0.0115374919            0.000610733947           
       1.424486               0.011402752            0.000583617695           
       1.427126              0.0101754042            0.000572709189           
       1.429767              0.0105692919            0.000549180087           
       1.432407               0.011277593            0.000593675287           
       1.435047              0.0108789017            0.000547615383           
       1.437688              0.0113071589            0.000566637432           
       1.440328              0.0104555502              0.0005561126           
       1.442968               0.010249745            0.000562948965           
       1.445609              0.0119615503            0.000588851775           
       1.448249              0.0108154541            0.000574108236           
       1.450890               0.011186722            0.000580067997           
       1.453530              0.0114429705            0.000613779045           
       1.456170               0.010598116            0.000573275049           
       1.458811              0.0110517535            0.000559786856           
       1.461451              0.0104198115            0.000544972771           
       1.464092              0.0109710433            0.000562858118           
       1.466732              0.0112191083            0.000564294752           
       1.469372              0.0113851994            0.000555152777           
       1.472013               0.011341655            0.000597597276           
       1.474653              0.0111365536            0.000583034215           
       1.477293              0.0121835378            0.000622678249           
       1.479934                0.01066805            0.000555984873           
       1.482574              0.0116558747            0.000562177841           
       1.485215              0.0100685723            0.000532230384           
       1.487855              0.0118470305            0.000584941012           
       1.490495              0.0115455864            0.000575324537           
       1.493136              0.0117003227            0.000571228438           
       1.495776              0.0117868503            0.000570726164           
       1.498416              0.0103632107            0.000552659265           
       1.501057              0.0101140476            0.000533942557           
       1.503697              0.0104691568            0.000531099044           
       1.506338              0.0110516143            0.000555644438           
       1.508978              0.0103670393            0.000532867657           
       1.511618              0.0103650112            0.000567445942           
       1.514259               0.010260372             0.00054507011           
       1.516899              0.0100859366            0.000526186929           
       1.519540              0.0105437158            0.000546671255           
       1.522180              0.0104086988            0.000547931173           
       1.524820              0.0101129088            0.000537059467           
       1.527461              0.0105058958              0.0005501023           
       1.530101              0.0104213107            0.000542403912           
       1.532741              0.0105292193            0.000542040842           
       1.535382              0.0107188733            0.000555705149           
       1.538022              0.0105157193            0.000518518975           
       1.540663              0.0101096098            0.000546824178           
       1.543303              0.0111811818             0.00053396637           
       1.545943              0.0112914634            0.000567944284           
       1.548584               0.010410005            0.000555114789           
       1.551224              0.0114902252            0.000539228584           
       1.553864             0.00993669617            0.000529878074           
       1.556505              0.0112238282            0.000544019183           
       1.559145              0.0101060323             0.00052254271           
       1.561786              0.0100897028            0.000522522489           
       1.564426              0.0105658587            0.000518078182           
       1.567066              0.0111056897            0.000556541279           
       1.569707             0.00994428171            0.000517176891           
       1.572347              0.0102725965             0.00054304381           
       1.574988              0.0101841869            0.000514657595           
       1.577628             0.00853047508            0.000491160512           
       1.580268              0.0102851463            0.000522538281           
       1.582909             0.00980334609            0.000540741392           
       1.585549              0.0100639443            0.000531975332           
       1.588189             0.00979007782            0.000513235683           
       1.590830             0.00942827366            0.000503030632           
       1.593470              0.0104653857            0.000550960564           
       1.596111             0.00906538154             0.00050063818           
       1.598751             0.00952720424             0.00049730453           
       1.601391             0.00951650775             0.00050799103           
       1.604032             0.00921301821            0.000510274196           
       1.606672             0.00987237945            0.000513214365           
       1.609312              0.0100231014            0.000539809835           
       1.611953               0.008879775             0.00049719781           
       1.614593             0.00926455117            0.000498166321           
       1.617234             0.00972922008             0.00052907695           
       1.619874              0.0089612217            0.000505759987           
       1.622514             0.00892804942            0.000497936489           
       1.625155             0.00864526449            0.000492881873           
       1.627795              0.0094787074            0.000503448137           
       1.630436             0.00832720645            0.000469414135           
       1.633076             0.00952213968            0.000508548863           
       1.635716             0.00837621503             0.00046954687           
       1.638357             0.00962894274            0.000504763067           
       1.640997             0.00994323079             0.00052847247           
       1.643637             0.00887540893            0.000485865364           
       1.646278               0.010225499             0.00053789759           
       1.648918             0.00939662978            0.000517042827           
       1.651559             0.00855992785            0.000497316954           
       1.654199              0.0092736279            0.000503444825           
       1.656839             0.00872409192            0.000488470944           
       1.659480             0.00965657701            0.000533212155           
       1.662120             0.00932404542            0.000493475474           
       1.664761             0.00822860054            0.000481541827           
       1.667401             0.00901188165            0.000481658666           
       1.670041             0.00828275698            0.000468803807           
       1.672682             0.00868476486            0.000478072761           
       1.675322             0.00997583482            0.000509082129           
       1.677962             0.00960518395            0.000494024656           
       1.680603              0.0101893555            0.000510391602           
       1.683243             0.00876555299            0.000493895023           
       1.685884             0.00798788497            0.000474959103           
       1.688524             0.00934352694            0.000503754066           
       1.691164             0.00962490075            0.000511398954           
       1.693805             0.00898404271             0.00049950805           
       1.696445             0.00837213584             0.00048499433           
       1.699085             0.00922812637            0.000492122822           
       1.701726             0.00841801966            0.000452787818           
       1.704366             0.00888037215            0.000489923856           
       1.707007             0.00902008721              0.0004827563           
       1.709647             0.00901196639             0.00048798829           
       1.712287              0.0089255252            0.000489869452           
       1.714928             0.00858171704            0.000484214803           
       1.717568             0.00986776687             0.00048911743           
       1.720209             0.00840785106            0.000472902356           
       1.722849             0.00848361136            0.000472585991           
       1.725489             0.00891310856            0.000484807779           
       1.728130             0.00830660135            0.000497376689           
       1.730770             0.00882933561            0.000487010675           
       1.733410             0.00899954755            0.000483953789           
       1.736051             0.00846761969            0.000472701134           
       1.738691               0.008733445            0.000470332078           
       1.741332             0.00861498384            0.000480790603           
       1.743972             0.00941008203             0.00051890389           
       1.746612             0.00936700477            0.000497138205           
       1.749253             0.00825718895            0.000475976935           
       1.751893             0.00798845163            0.000464730895           
       1.754533             0.00894232069            0.000491235326           
       1.757174             0.00865619345            0.000478786437           
       1.759814             0.00841702169             0.00046496913           
       1.762455             0.00920638994            0.000495212746           
       1.765095             0.00865114204            0.000459223418           
       1.767735             0.00867700617            0.000474097567           
       1.770376             0.00842672881            0.000468441859           
       1.773016             0.00813286051            0.000457118755           
       1.775657             0.00800964613            0.000447115521           
       1.778297             0.00837876989            0.000453364348           
       1.780937             0.00923860635            0.000502479737           
       1.783578             0.00930375607            0.000491639998           
       1.786218             0.00867140904            0.000495337117           
       1.788858             0.00833975802            0.000461366487           
       1.791499             0.00759070368            0.000435216361           
       1.794139             0.00893996118            0.000468483315           
       1.796780             0.00931014456            0.000475779547           
       1.799420             0.00869209289            0.000457170328           
       1.802060             0.00897243022            0.000468235929           
       1.804701              0.0086179057            0.000440373719           
       1.807341             0.00893819436            0.000471257471           
       1.809981             0.00902723075            0.000475177831           
       1.812622             0.00918881807            0.000470780839           
       1.815262             0.00940992636            0.000486531385           
       1.817903              0.0094509816            0.000480367009           
       1.820543             0.00882973246            0.000471545484           
       1.823183             0.00869727574            0.000467737962           
       1.825824             0.00937161188            0.000463857913           
       1.828464             0.00843307214            0.000458738092           
       1.831105              0.0083811647            0.000444680061           
       1.833745             0.00838683212            0.000454330612           
       1.836385             0.00811071381             0.00045953976           
       1.839026             0.00879568749            0.000477039286           
       1.841666             0.00746612213            0.000437949547           
       1.844306             0.00833714249            0.000450163774           
       1.846947             0.00862563684            0.000461899868           
       1.849587             0.00880602608            0.000515355201           
       1.852228             0.00812267675            0.000447562541           
       1.854868             0.00844339736            0.000482027107           
       1.857508             0.00879053189            0.000487012247           
       1.860149             0.00915622104            0.000506069457           
       1.862789             0.00811677354            0.000459912366           
       1.865429             0.00878485644            0.000499444867           
       1.868070             0.00909291085            0.000501353883           
       1.870710             0.00861698412            0.000476805067           
       1.873351             0.00774421274             0.00045760189           
       1.875991             0.00829715696            0.000481387031           
       1.878631             0.00791772016            0.000461244739           
       1.881272             0.00807314689            0.000462629254           
       1.883912             0.00831583777            0.000488645653           
       1.886553             0.00858352904            0.000490897942           
       1.889193             0.00819236653            0.000478762648           
       1.891833             0.00778062658            0.000484557889           
       1.894474             0.00872157927            0.000508554047           
       1.897114             0.00810571213            0.000474423845           
       1.899754             0.00796850759            0.000472359603           
       1.902395             0.00803911008            0.000465171567           
       1.905035             0.00778480364            0.000484839164           
       1.907676             0.00929673075            0.000499369145           
       1.910316             0.00878687876            0.000498373251           
       1.912956              0.0079448184            0.000463466337           
       1.915597             0.00833253284            0.000477293127           
       1.918237              0.0080134526            0.000483397625           
       1.920878             0.00817843199            0.000486349196           
       1.923518              0.0076370353            0.000470175298           
       1.926158             0.00754494232            0.000461267517           
       1.928799              0.0083963188            0.000480964442           
       1.931439             0.00830972625             0.00049102787           
       1.934079             0.00789569785            0.000498969338           
       1.936720              0.0082325948            0.000472069572           
       1.939360             0.00828274558            0.000505164074           
       1.942001             0.00797808068            0.000454413532           
       1.944641             0.00876364001            0.000485641478           
       1.947281             0.00807242141            0.000461799808           
       1.949922             0.00819386745            0.000480573074           
       1.952562             0.00827039059            0.000497945953           
       1.955202             0.00821551343            0.000495686212           
       1.957843              0.0078279928             0.00047130666           
       1.960483             0.00866819701            0.000518520862           
       1.963124             0.00864023548             0.00050706337           
       1.965764             0.00782056202            0.000454928375           
       1.968404             0.00754542105            0.000442632086           
       1.971045             0.00810270655            0.000467655274           
       1.973685             0.00810920637            0.000490732181           
       1.976326             0.00877149713            0.000503363827           
       1.978966             0.00820399319            0.000491080243           
       1.981606             0.00753726352            0.000480519482           
       1.984247             0.00800372933            0.000491909992           
       1.986887             0.00763609015            0.000474724034           
       1.989527             0.00747703781            0.000464695036           
       1.992168             0.00788047658             0.00049499757           
       1.994808              0.0081277668            0.000500549236           
       1.997449             0.00750599251            0.000471143814           
       2.000089             0.00785770061            0.000480144448           
       2.002729             0.00736923025            0.000465259801           
       2.005370             0.00752725024            0.000465162234           
       2.008010             0.00829552891            0.000509636375           
       2.010650             0.00864589849            0.000524169862           
       2.013291             0.00734479939            0.000463528962           
       2.015931             0.00836407692            0.000491150998           
       2.018572              0.0082747988            0.000522521219           
       2.021212             0.00791902364            0.000501980947           
       2.023852             0.00777428204            0.000470739415           
       2.026493              0.0081769266            0.000504345186           
       2.029133             0.00810956857             0.00049215603           
       2.031774             0.00810161836            0.000516253576           
       2.034414             0.00754836935            0.000458518807           
       2.037054              0.0064123852            0.000433322389           
       2.039695             0.00717070392            0.000454767832           
       2.042335             0.00783545573            0.000494024256           
       2.044975             0.00809346311             0.00049600304           
       2.047616             0.00741197116            0.000473482406           
       2.050256             0.00810356898            0.000499764956           
       2.052897              0.0067638855            0.000465006817           
       2.055537             0.00784583183            0.000484022409           
       2.058177             0.00795923509            0.000477401668           
       2.060818             0.00749501639            0.000485311634           
       2.063458             0.00789828502            0.000519170405           
       2.066098             0.00749224466            0.000476996776           
       2.068739             0.00654532268            0.000452765929           
       2.071379             0.00797770817            0.000512895205           
       2.074020             0.00841795716            0.000515407129           
       2.076660              0.0075899153            0.000493358065           
       2.079300             0.00769936519            0.000509077663           
       2.081941             0.00747546478             0.00045929114           
       2.084581             0.00725556283            0.000477602703           
       2.087222             0.00824193225            0.000490913456           
       2.089862             0.00653839477            0.000476227765           
       2.092502             0.00766359854            0.000499780578           
       2.095143             0.00718762971            0.000499814458           
       2.097783             0.00853798677            0.000527405402           
       2.100423             0.00768412716            0.000482122404           
       2.103064             0.00758579775            0.000497055663           
       2.105704             0.00689074261            0.000471390572           
       2.108345             0.00829820584            0.000496984116           
       2.110985             0.00726646604            0.000496721214           
       2.113625             0.00704383975            0.000493320573           
       2.116266             0.00807651223            0.000535740817           
       2.118906             0.00697453624            0.000463970406           
       2.121546             0.00742033487            0.000469431431           
       2.124187             0.00807882979            0.000514157505           
       2.126827             0.00785716276            0.000512713823           
       2.129468             0.00748189676             0.00050159815           
       2.132108             0.00757781594            0.000491135096           
       2.134748             0.00820228292            0.000508988617           
       2.137389              0.0075229517            0.000508537003           
       2.140029             0.00784263573            0.000464846029           
       2.142670             0.00752001109            0.000486465348           
       2.145310              0.0076013168            0.000476038198           
       2.147950             0.00789306539            0.000499287406           
       2.150591             0.00731178658            0.000475694553           
       2.153231             0.00790675386            0.000509185813           
       2.155871             0.00718795749            0.000469015245           
       2.158512             0.00649620384            0.000465239919           
       2.161152             0.00813483834            0.000504305902           
       2.163793             0.00790859227            0.000495005035           
       2.166433             0.00752084018            0.000495700202           
       2.169073             0.00719235221            0.000473961716           
       2.171714             0.00643364413            0.000444915518           
       2.174354             0.00662390699            0.000471719738           
       2.176995             0.00702784297            0.000483845491           
       2.179635             0.00693340741            0.000507840088           
       2.182275             0.00691656951            0.000478899058           
       2.184916             0.00767959515            0.000487401097           
       2.187556             0.00730199375            0.000470503912           
       2.190196              0.0073472422            0.000493191269           
       2.192837             0.00750418536            0.000495719051           
       2.195477             0.00633216513            0.000434136744           
       2.198118             0.00729938307            0.000478058986           
       2.200758             0.00725546664            0.000488981862           
       2.203398             0.00747735653            0.000499578346           
       2.206039             0.00743997123            0.000471625154           
       2.208679             0.00805293351            0.000502087964           
       2.211319              0.0071815278            0.000476878919           
       2.213960             0.00689494086            0.000473527448           
       2.216600             0.00825893884              0.0005361214           
       2.219241             0.00683621889            0.000466169782           
       2.221881             0.00706045338            0.000474727568           
       2.224521             0.00745792174            0.000493885759           
       2.227162             0.00694582801            0.000467084853           
       2.229802             0.00806395221             0.00051903236           
       2.232443             0.00790722629            0.000505857115           
       2.235083             0.00758435807            0.000510035483           
       2.237723             0.00682570872            0.000464328714           
       2.240364             0.00696630723            0.000480642843           
       2.243004              0.0070213544            0.000478686242           
       2.245644             0.00723790029            0.000490876482           
       2.248285             0.00674580298            0.000464402151           
       2.250925             0.00741913523            0.000489986624           
       2.253566             0.00643376024            0.000487807891           
       2.256206             0.00722127027            0.000506467341           
       2.258846             0.00804471568            0.000508518569           
       2.261487             0.00712973302            0.000502468602           
       2.264127             0.00740202057            0.000494455854           
       2.266767             0.00762485655            0.000515213884           
       2.269408             0.00734998945            0.000507913658           
       2.272048             0.00696645169            0.000491532482           
       2.274689             0.00798556906            0.000533192924           
       2.277329             0.00730198803            0.000480067219           
       2.279969             0.00756191516            0.000520019578           
       2.282610             0.00695841289            0.000484963243           
       2.285250             0.00647281096            0.000447686283           
       2.287891             0.00777374667            0.000526015412           
       2.290531              0.0077612628            0.000532658259           
       2.293171             0.00749566565            0.000509902156           
       2.295812             0.00677369596            0.000482775653           
       2.298452             0.00680229621            0.000505919727           
       2.301092             0.00692281692            0.000474207501           
       2.303733             0.00709424131            0.000499412223           
       2.306373             0.00783735274            0.000533183962           
       2.309014             0.00718251112            0.000500466143           
       2.311654              0.0075929127            0.000536973628           
       2.314294             0.00725973514            0.000483739947           
       2.316935             0.00708700153            0.000479925013           
       2.319575             0.00814465168             0.00053906823           
       2.322215             0.00755199883            0.000540974147           
       2.324856             0.00730690427            0.000489232173           
       2.327496             0.00762813651            0.000531519335           
       2.330137             0.00661388206             0.00047360475           
       2.332777             0.00717498366            0.000508629865           
       2.335417             0.00695821522            0.000485935918           
       2.338058             0.00784115857            0.000531255599           
       2.340698             0.00683356972            0.000492051854           
       2.343339             0.00688878021            0.000504907288           
       2.345979             0.00741913056            0.000495729349           
       2.348619             0.00746751648            0.000515522916           
       2.351260             0.00734085093            0.000508154033           
       2.353900             0.00675727791            0.000485993126           
       2.356540             0.00701080667            0.000494323552           
       2.359181             0.00660997152            0.000473255236           
       2.361821             0.00745829074            0.000485601962           
       2.364462             0.00660923933            0.000478097254           
       2.367102             0.00646227617            0.000485828182           
       2.369742             0.00668332259            0.000520040014           
       2.372383             0.00647261268             0.00046341238           
       2.375023             0.00674572886             0.00049731838           
       2.377663              0.0075654678            0.000503573138           
       2.380304              0.0065126474            0.000475012542           
       2.382944             0.00675635808            0.000460821969           
       2.385585             0.00774733624            0.000526284921           
       2.388225             0.00683588327            0.000492035574           
       2.390865             0.00802532213            0.000527650284           
       2.393506             0.00781235688            0.000510780404           
       2.396146             0.00639773261             0.00049978175           
       2.398787              0.0068918218             0.00047804225           
       2.401427             0.00651276333            0.000448552174           
       2.404067             0.00698436871            0.000474869892           
       2.406708             0.00775229374            0.000494295653           
       2.409348             0.00627165226            0.000471577899           
       2.411988              0.0070085851            0.000488433749           
       2.414629             0.00607851846            0.000469038628           
       2.417269             0.00666306166            0.000496807097           
       2.419910             0.00779936032            0.000538749599           
       2.422550             0.00746218131            0.000504177598           
       2.425190             0.00705079328            0.000516598658           
       2.427831             0.00714662287            0.000517173789           
       2.430471             0.00694104919            0.000485569818           
       2.433112             0.00740884232            0.000488502688           
       2.435752             0.00794000723            0.000535199917           
       2.438392             0.00825840761            0.000526833053           
       2.441033             0.00645645131            0.000493679736           
       2.443673             0.00661467837            0.000500076533           
       2.446313             0.00722585189            0.000523129706           
       2.448954             0.00802333779            0.000524859553           
       2.451594             0.00729019806            0.000537945264           
       2.454235             0.00740875203            0.000508817439           
       2.456875             0.00768109936            0.000542102765           
       2.459515             0.00688130977            0.000526387001           
       2.462156             0.00808277563            0.000538624278           
       2.464796             0.00773324063            0.000520052095           
       2.467436             0.00743760978            0.000527415209           
       2.470077             0.00758449649            0.000504806003           
       2.472717             0.00779107188            0.000513850694           
       2.475358             0.00739644792            0.000505888624           
       2.477998             0.00761569097            0.000504677526           
       2.480638             0.00743843953            0.000507632568           
       2.483279             0.00718526733            0.000521449866           
       2.485919             0.00663450493             0.00048289212           
       2.488560             0.00771584767             0.00051930499           
       2.491200             0.00734298068            0.000521666136           
       2.493840             0.00539225068            0.000473021531           
       2.496481             0.00733572941            0.000542693561           
       2.499121              0.0070267906            0.000516621467           
       2.501761             0.00643272179            0.000500850055           
       2.504402             0.00665479441            0.000501979335           
       2.507042             0.00662335376            0.000497082297           
       2.509683              0.0067768413            0.000495124245           
       2.512323             0.00869927891            0.000589161293           
       2.514963             0.00762110934            0.000544631529           
       2.517604             0.00704119284            0.000543211904           
       2.520244             0.00699014049            0.000507412585           
       2.522884             0.00798701421            0.000550145217           
       2.525525               0.012247226            0.000688978298           
       2.528165             0.00881113974            0.000575280636           
       2.530806             0.00757049531            0.000542538421           
       2.533446              0.0089289939            0.000576633049           
       2.536086             0.00767362906             0.00052977818           
       2.538727             0.00697911192            0.000484696541           
       2.541367             0.00603361925            0.000455109461           
       2.544008              0.0072041401            0.000513588949           
       2.546648             0.00712432403            0.000519496443           
       2.549288             0.00712815956            0.000530224287           
       2.551929             0.00774879669            0.000544013345           
       2.554569             0.00668763448            0.000486903251           
       2.557209             0.00714725978            0.000507979814           
       2.559850             0.00664024008            0.000491202918           
       2.562490             0.00650910598            0.000502646615           
       2.565131             0.00759808626             0.00056307734           
       2.567771             0.00635691354            0.000496573755           
       2.570411             0.00694392476            0.000513379472           
       2.573052              0.0074632814            0.000538934623           
       2.575692             0.00775315552            0.000545974753           
       2.578332             0.00759648937            0.000542665231           
       2.580973             0.00700831216            0.000516274048           
       2.583613             0.00674029803            0.000494250438           
       2.586254             0.00631963317             0.00047791368           
       2.588894             0.00666524278            0.000509680541           
       2.591534             0.00672885378            0.000530126718           
       2.594175             0.00783644164            0.000561299833           
       2.596815             0.00760794257            0.000556316911           
       2.599456             0.00728573135            0.000516260443           
       2.602096             0.00694061061            0.000507719355           
       2.604736             0.00629723978            0.000495082834           
       2.607377             0.00700855309            0.000508532072           
       2.610017             0.00714758592            0.000504564364           
       2.612657             0.00713202932            0.000536095927           
       2.615298             0.00713933228            0.000523666177           
       2.617938             0.00592349091            0.000510263646           
       2.620579             0.00679615902            0.000524691687           
       2.623219             0.00730677849            0.000543270184           
       2.625859               0.007519022            0.000535827686           
       2.628500             0.00708916206            0.000516875474           
       2.631140             0.00761381363             0.00054391408           
       2.633780             0.00639661309            0.000498111441           
       2.636421             0.00739778947            0.000548849639           
       2.639061             0.00594277575            0.000463088901           
       2.641702             0.00728476841            0.000524586544           
       2.644342             0.00685075604            0.000510887301           
       2.646982             0.00783940915            0.000538339069           
       2.649623              0.0069690891            0.000531920692           
       2.652263             0.00684544085            0.000521890564           
       2.654904             0.00845238845            0.000580503914           
       2.657544             0.00805937842            0.000533911508           
       2.660184             0.00736262388            0.000540057498           
       2.662825              0.0070793833            0.000541853482           
       2.665465             0.00811592134            0.000561117109           
       2.668105             0.00649980208            0.000529286807           
       2.670746             0.00753894175            0.000526584322           
       2.673386             0.00819433854            0.000565785044           
       2.676027             0.00857076903            0.000569347938           
       2.678667              0.0100508822             0.00060160095           
       2.681307              0.0104953194            0.000604034789           
       2.683948              0.0149849052            0.000741572064           
       2.686588              0.0120196762            0.000653145882           
       2.689229              0.0103144997            0.000591225248           
       2.691869             0.00839546924            0.000563748639           
       2.694509             0.00872992986            0.000575184229           
       2.697150             0.00806644217            0.000543924758           
       2.699790             0.00841389824            0.000582378547           
       2.702430             0.00832755072            0.000553820037           
       2.705071             0.00679185092            0.000516815179           
       2.707711              0.0067166358            0.000498822647           
       2.710352             0.00740631363            0.000553467673           
       2.712992             0.00738201188            0.000562775729           
       2.715632               0.006755875            0.000499509682           
       2.718273             0.00657667087            0.000510762582           
       2.720913             0.00729261105            0.000536315162           
       2.723553             0.00716424233            0.000535140543           
       2.726194             0.00615342233            0.000518435031           
       2.728834             0.00645840103            0.000531376314           
       2.731475              0.0075088262            0.000528793556           
       2.734115             0.00742804269            0.000542264175           
       2.736755             0.00789936762            0.000563806193           
       2.739396             0.00753579723            0.000547488156           
       2.742036             0.00618180569            0.000518959399           
       2.744677             0.00618540647            0.000503680304           
       2.747317             0.00735034874            0.000545151091           
       2.749957             0.00709109011            0.000539208308           
       2.752598             0.00768774571            0.000567528127           
       2.755238             0.00746416674            0.000569309751           
       2.757878             0.00749966159             0.00056567235           
       2.760519             0.00843613866            0.000593589842           
       2.763159             0.00871324881            0.000597231661           
       2.765800             0.00787967348            0.000541243467           
       2.768440             0.00803764831            0.000550669126           
       2.771080             0.00766482835            0.000542234942           
       2.773721             0.00706110464            0.000533867765           
       2.776361             0.00655976798            0.000521665581           
       2.779001              0.0056831995            0.000502848306           
       2.781642             0.00679630915             0.00054583919           
       2.784282             0.00627394576            0.000533067203           
       2.786923             0.00778771934            0.000599133859           
       2.789563             0.00707821432            0.000550123029           
       2.792203             0.00748355823            0.000540362566           
       2.794844             0.00724745251            0.000582811288           
       2.797484             0.00733668417            0.000553407339           
       2.800125             0.00693074308            0.000565580366           
       2.802765             0.00724961072            0.000568493393           
       2.805405              0.0069432745            0.000558235797           
       2.808046             0.00812333991            0.000614428266           
       2.810686             0.00639974468            0.000501124632           
       2.813326             0.00744917383            0.000561589078           
       2.815967             0.00779055839            0.000590642708           
       2.818607             0.00667548579            0.000521741216           
       2.821248             0.00761028033             0.00054551006           
       2.823888             0.00660452148            0.000527510457           
       2.826528             0.00638132561            0.000502161387           
       2.829169             0.00671622613            0.000539611641           
       2.831809             0.00637125302            0.000532719528           
       2.834449             0.00517939056             0.00048334975           
       2.837090             0.00727469684            0.000553267851           
       2.839730             0.00846041841            0.000593742719           
       2.842371             0.00677083134             0.00053192416           
       2.845011             0.00716652905            0.000551608797           
       2.847651             0.00694361968            0.000543629188           
       2.850292             0.00672860601            0.000540398082           
       2.852932             0.00638719373            0.000537984003           
       2.855573             0.00690442216            0.000542578206           
       2.858213             0.00677934137            0.000564588316           
       2.860853             0.00605360204            0.000496289728           
       2.863494              0.0076149439            0.000576306197           
       2.866134             0.00701435333            0.000574892255           
       2.868774             0.00635354034            0.000537729028           
       2.871415             0.00651902485            0.000553171158           
       2.874055             0.00760073793            0.000570949227           
       2.876696              0.0068816959            0.000557966778           
       2.879336             0.00698848025            0.000541928989           
       2.881976              0.0068284258            0.000552524467           
       2.884617             0.00797125529             0.00058820539           
       2.887257             0.00802258833            0.000593142122           
       2.889897             0.00819560126            0.000587165398           
       2.892538             0.00614295992            0.000556894223           
       2.895178             0.00672260887            0.000526318845           
       2.897819             0.00606295564            0.000509874217           
       2.900459             0.00662717507             0.00052270111           
       2.903099             0.00697955677            0.000530926885           
       2.905740              0.0070980679            0.000549267798           
       2.908380             0.00655621356             0.00053388458           
       2.911021             0.00746089201             0.00057878911           
       2.913661             0.00721834099              0.0005691327           
       2.916301             0.00747524857            0.000579724461           
       2.918942             0.00724801618            0.000546027509           
       2.921582             0.00697793759            0.000560556987           
       2.924222             0.00697723124            0.000543044423           
       2.926863             0.00730781478            0.000578888561           
       2.929503             0.00792185689            0.000609859413           
       2.932144             0.00734504511            0.000563711681           
       2.934784             0.00674178345            0.000531210909           
       2.937424             0.00670931137            0.000535370754           
       2.940065             0.00692520066            0.000518844494           
       2.942705              0.0062511894            0.000492330972           
       2.945346             0.00774587523            0.000581607557           
       2.947986              0.0070861914            0.000567223261           
       2.950626             0.00700476246            0.000560779536           
       2.953267             0.00734368948            0.000564908694           
       2.955907             0.00579687556            0.000520653352           
       2.958547             0.00645129114            0.000518526071           
       2.961188             0.00802849029            0.000603482627           
       2.963828             0.00725523031            0.000561169899           
       2.966469             0.00627447297             0.00051194684           
       2.969109              0.0068768429            0.000543899079           
       2.971749             0.00722005749             0.00055382982           
       2.974390             0.00841633653             0.00058759893           
       2.977030             0.00648231257            0.000527209564           
       2.979670             0.00872649686            0.000594995733           
       2.982311             0.00805506237            0.000592483909           
       2.984951             0.00785109136            0.000556324023           
       2.987592             0.00712935997            0.000540755148           
       2.990232             0.00706351252            0.000559776409           
       2.992872             0.00811352146            0.000565111016           
       2.995513             0.00869531525            0.000572343479           
       2.998153              0.0125427271            0.000698950051           
       3.000794              0.0126551921            0.000680033354           
       3.003434              0.0104098505            0.000617693919           
       3.006074              0.0324919969             0.00107599235           
       3.008715               0.102733734             0.00184691084           
       3.011355               0.228687674             0.00265725548           
       3.013995               0.137591829             0.00206675148           
       3.016636               0.080572461             0.00154872045           
       3.019276               0.144504545             0.00203875481           
       3.021917               0.510380034             0.00368419216           
       3.024557                1.37596376             0.00594742414           
       3.027197                1.13525387             0.00526687581           
       3.029838                0.58197757             0.00382451797           
       3.032478               0.266407674             0.00259022986           
       3.035118              0.0688357038              0.0013343188           
       3.037759              0.0835990609              0.0014685635           
       3.040399               0.108475721             0.00172559175           
       3.043040               0.429124433             0.00347419628           
       3.045680               0.397827515             0.00314727212           
       3.048320                0.11287013              0.0017128667           
       3.050961               0.117117505             0.00177554094           
       3.053601              0.0925322623             0.00152001312           
       3.056242              0.0742095749             0.00144727405           
       3.058882              0.0630493338              0.0014310031           
       3.061522              0.0475133393              0.0012187928           
       3.064163              0.0628905469             0.00138455833           
       3.066803               0.124519822              0.0020510553           
       3.069443                0.11573132             0.00206881479           
       3.072084              0.0405079426             0.00119180768           
       3.074724               0.042495174             0.00136323357           
       3.077365              0.0704091644             0.00181647175           
       3.080005               0.012779589            0.000778263162           
       3.082645              0.0130727135            0.000826906909           
       3.085286              0.0133828964            0.000843260571           
       3.087926             0.00967554491            0.000711482644           
       3.090566              0.0130504023            0.000809615993           
       3.093207              0.0116744766            0.000796839978           
       3.095847             0.00824740746            0.000641942753           
       3.098488             0.00829712075             0.00071394671           
       3.101128              0.0108290453            0.000820882913           
       3.103768              0.0098291266            0.000767352903           
       3.106409             0.00928965409            0.000793942142           
       3.109049             0.00978874539            0.000782106118           
       3.111690             0.00933794663            0.000750771282           
       3.114330             0.00846491578            0.000730020832           
       3.116970             0.00625510834            0.000632357616           
       3.119611               0.012506613            0.000951774237           
       3.122251              0.0175500073             0.00117936535           
       3.124891              0.0344448794             0.00166762598           
       3.127532                0.02502408             0.00139053996           
       3.130172              0.0168699596             0.00116145311           
       3.132813              0.0110362401            0.000924816857           
       3.135453             0.00897236878            0.000827001967           
       3.138093             0.00696063175            0.000789260578           
       3.140734             0.00685183099            0.000722440393           
       3.143374             0.00621695487            0.000727756161           
       3.146014              0.0080082909            0.000889199858           
       3.148655             0.00621678025            0.000728290892           
       3.151295             0.00755093601            0.000855341763           
       3.153936              0.0062386089            0.000751011749           
       3.156576             0.00766145562            0.000820938573           
       3.159216             0.00593214685             0.00072598526           
       3.161857             0.00745594933            0.000810591864           
       3.164497             0.00778414429            0.000870241597           
       3.167138             0.00913316173            0.000973975181           
       3.169778             0.00410042284            0.000641844512           
       3.172418             0.00670175802            0.000812212714           
       3.175059             0.00611299702            0.000687704684           
       3.177699             0.00594188868            0.000717973305           
       3.180339             0.00677625982            0.000821489111           
       3.182980             0.00541900588            0.000759529166           
       3.185620             0.00795375307            0.000937120481           
       3.188261             0.00651673598            0.000863388475           
       3.190901             0.00550974689            0.000730142803           
       3.193541             0.00597948612            0.000799239546           
       3.196182             0.00579803139            0.000820186881           
       3.198822             0.00648842052             0.00086793574           
       3.201463             0.00681899359             0.00087444144           
       3.204103             0.00586972019            0.000806359893           
       3.206743             0.00576122868            0.000798798078           
       3.209384             0.00592962044            0.000875554839           
       3.212024             0.00673961739            0.000870261081           
       3.214664             0.00536359512            0.000882825394           
       3.217305              0.0065160792            0.000924961548           
       3.219945             0.00654190027            0.000953908589           
       3.222586             0.00643604927            0.000901201464           
       3.225226             0.00636962243            0.000994570066           
       3.227866             0.00738697546            0.000978933721           
       3.230507             0.00514831439            0.000847164118           
       3.233147             0.00609372311            0.000929114342           
       3.235787             0.00561361826            0.000912607573           
       3.238428              0.0062281895             0.00103732756           
       3.241068             0.00541837191            0.000904698984           
       3.243709             0.00629343642             0.00100735081           
       3.246349             0.00507735672            0.000824815372           
       3.248989              0.0052426002            0.000989644643           
       3.251630             0.00607528845             0.00102589602           
       3.254270             0.00426687388            0.000768387993           
       3.256911             0.00607524797             0.00100040671           
       3.259551             0.00476219778            0.000953560643           
       3.262191             0.00476045302            0.000973836127           
       3.264832             0.00324284145            0.000839805319           
       3.267472             0.00669129781             0.00113167979           
       3.270112              0.0072099402             0.00129821485           
       3.272753             0.00487552902            0.000977161615           
       3.275393             0.00509780652             0.00101951983           
       3.278034             0.00613829426             0.00111936647           
       3.280674             0.00407578468            0.000989781586           
       3.283314             0.00671136667             0.00113592289           
       3.285955             0.00698858089              0.0011959834           
       3.288595             0.00663380276             0.00129636282           
       3.291235             0.00427217258              0.0010694468           
       3.293876             0.00468016945             0.00113543412           
       3.296516             0.00378944215            0.000980844527           
       3.299157             0.00590697447             0.00120921502           
       3.301797             0.00703741055             0.00150554273           
       3.304437             0.00800181242             0.00139088014           
       3.307078             0.00348513015             0.00101114587           
       3.309718             0.00249967102            0.000883895734           
       3.312359             0.00595210045             0.00136426234           
       3.314999             0.00633049843             0.00138526717           
       3.317639             0.00636778217             0.00132873343           
       3.320280             0.00499385391              0.0012510632           
       3.322920             0.00485799621             0.00125469649           
       3.325560              0.0054810593             0.00133363597           
       3.328201             0.00500635332             0.00114790947           
       3.330841             0.00624120676             0.00155989032           
       3.333482             0.00557037897             0.00139296258           
       3.336122             0.00592928346             0.00143779767           
       3.338762             0.00650975365             0.00174028013           
       3.341403             0.00507559745             0.00146834919           
       3.344043             0.00422220078             0.00128577135           
       3.346683             0.00690681933              0.0016788984           
       3.349324             0.00723958102             0.00193257121           
       3.351964             0.00456787365             0.00162330785           
       3.354605             0.00376587282              0.0016856635           
       3.357245              0.0047859262             0.00171426838           
       3.359885             0.00471131377             0.00136129549           
       3.362526             0.00911046716             0.00236728173           
       3.365166              0.0082239049               0.002121385           
       3.367807             0.00267185869             0.00154749124           
       3.370447             0.00613415916             0.00194501342           
       3.373087             0.00490676696             0.00186024461           
       3.375728             0.00264043238             0.00154010061           
       3.378368             0.00387311909             0.00276829196           
       3.381008             0.00994328467             0.00330692647           
       3.383649             0.00626230651             0.00210528658           
       3.386289             0.00688905748              0.0026133917           
       3.388930             0.00250251502             0.00249147345           
       3.391570             0.00370795227             0.00214534664           
       3.394210             0.00996838721             0.00445156607           
       3.396851             0.00496598449             0.00351460765           
       3.399491             0.00247115105             0.00247996703           
       3.402131           -2.66147209e-05                         0           
       3.404772           -2.66275664e-05                         0           
       3.407412                       nan                       nan           
       3.410053             0.00932748008             0.00965447964           
       3.412693                       nan                       nan           
       3.415333           -2.67441604e-05                         0           
