################################################################################
# EDF_DataBlockID                     0.Image.Psd
# EDF_BinarySize                      2105344
# EDF_HeaderSize                      2560
# ByteOrder                           LowByteFirst
# DataType                            FloatValue
# Dim_1                               512
# Dim_2                               1028
# Image                               0
# HeaderID                            EH:000000:000000:000000
# Size                                2105344
# Center_1                            304.9000
# Center_2                            588.7000
# Comment                             Xenocs_Cell_Window - 20251028_20perc_iodine_1.23mg
# DDummy                              0.6
# Date                                2025-10-29T20:10:46
# Delta                               21.910000
# Dummy                               -1.5
# ExposureTime                        360
# Gamma                               15.360000
# Intensity1                          8.45556e-10
# PSize_1                             7.5e-05
# PSize_2                             7.5e-05
# Pressure                            0.0326319
# SampleDistance                      0.115750
# SampleEnvKind                       large
# SampleEnvPN                         ElectroChemical cell
# SampleEnvSN                         1141
# Thickness                           0
# Wavelength                          1.541891e-10
# Wavelength                          1.54189e-10
# aux                                 0
# aux_dial                            0.002375
# beamx                               588.434
# beamx_dial                          588.434
# beamz                               657.808
# beamz_dial                          657.808
# det0x                               0
# det0x_dial                          6.36945
# det0xvd                             0
# det0xvd_dial                        0
# det0y                               450.002
# det0y_dial                          481.635
# det0z                               0
# det0z_dial                          1.23302
# det0zvd                             0
# det0zvd_dial                        0
# mag                                 1.818
# mag_dial                            1.818
# om                                  0.2499
# om_dial                             -0.610199
# phi                                 -0.0120535
# phi_dial                            0
# ry                                  0.599993
# ry_dial                             0.599993
# s1bot                               0.8
# s1bot_dial                          -1.66094
# s1hl                                0.8
# s1hl_dial                           -0.608437
# s1hr                                0.8
# s1hr_dial                           0.970938
# s1top                               0.8
# s1top_dial                          -0.461562
# s2bot                               0.45
# s2bot_dial                          1.36109
# s2hl                                0.45
# s2hl_dial                           -0.83375
# s2hr                                0.45
# s2hr_dial                           -0.118594
# s2top                               0.45
# s2top_dial                          1.44734
# w2theta                             32
# w2theta_dial                        32
# waxsch                              19.2605
# waxsch_dial                         -32.7355
# waxsh                               137.085
# waxsh_dial                          -43.5338
# waxsth                              26.0607
# waxsth_dial                         -19.4086
# waxsz                               67.0407
# waxsz_dial                          -23.7954
# wind                                65.9854
# wind_dial                           66.0041
# wpsi                                124
# wpsi_dial                           124
# wstod                               115
# wstod_dial                          115
# x                                   0
# x_dial                              1.00969
# z                                   0
# z_dial                              13.3172
# CountCutoff                         6807993
# DetectorModel                       Dectris EIGER2 Si 500K, S/N E-01-0554
# ThresholdSetting                    4023.88989258
# Saturation                          0
# FlatField                           Corrected
# BackgroundReductionExtra            0.02
# BackgroundCorrectionConstant        0.0026712
# Detector                            0
# Monitor                             0
# Pil_Roi0                            0
# SumForIntensity1                    3.044e+08
# TransmittedFlux                     845556
# det                                 0
# mon                                 0
# pilai0                              3.044e+08
# pilai1                              769613
# pilct0                              5.27197e+08
# pilct1                              769613
# pilroi0                             0
# pilroi1                             0
# sec                                 1
# title                               20251028_20perc_iodine_1.23mg_1_00271.edf
# usaxs0                              0
# Operation                           Azimuthal average I(q)
# Error_model                         ErrorModel.poisson
# Geometrical_correction              True
# Transmission_correction             True
# Thickness_correction                False
# Binning mode                        Uniform
# Binning factor                      1.0
# Psi                                 0.0
# Omega                               0.2499
# MaskInvalidPixels                   True
# DetectorEdge                        3
# MaskFiles                           ['WAXS_corrected.edf']
################################################################################
    q(A⁻¹)                Intensity(a.u.)            Sigma_I(a.u.)            
       0.693100           -2.40116595e-05                         0           
       0.695741             0.00565890116              0.0041154436           
       0.698381             0.00856197021             0.00620083697           
       0.701021              0.0178533289              0.0126582959           
       0.703662              0.0115200124             0.00586923606           
       0.706302             0.00691279132             0.00351997016           
       0.708942             0.00580485791              0.0041632176           
       0.711583              0.0112500291             0.00501875424           
       0.714223             0.00589869244             0.00419562731           
       0.716864             0.00509104156             0.00255031093           
       0.719504             0.00747072392             0.00333379592           
       0.722144             0.00381866903             0.00220729558           
       0.724785              0.0120599358             0.00312902034           
       0.727425             0.00450004266             0.00258573641           
       0.730065             0.00666831235             0.00222651241           
       0.732706             0.00934827779             0.00221376594           
       0.735346             0.00619789653             0.00234969866           
       0.737987             0.00749689625             0.00182611376           
       0.740627             0.00487877034             0.00219800538           
       0.743267             0.00972515331             0.00207856663           
       0.745908             0.00839175588             0.00209484005           
       0.748548             0.00530223278             0.00153485826           
       0.751189             0.00402605113             0.00180216708           
       0.753829              0.0061591681             0.00204899804           
       0.756469             0.00833773778             0.00192237442           
       0.759110             0.00489034528              0.0015515085           
       0.761750              0.0072669115             0.00167232236           
       0.764390             0.00708009532             0.00172770694           
       0.767031              0.0079133565             0.00158172163           
       0.769671             0.00393108029             0.00139065783           
       0.772312             0.00427064945             0.00110347536           
       0.774952             0.00620567435             0.00179626284           
       0.777592              0.0057584484             0.00126033305           
       0.780233              0.0100882161             0.00201262816           
       0.782873             0.00802488508             0.00171679484           
       0.785513             0.00461151144              0.0013913116           
       0.788154             0.00674994332             0.00140811036           
       0.790794             0.00542862908             0.00150970034           
       0.793435             0.00815125901              0.0016619128           
       0.796075             0.00659151927             0.00143964301           
       0.798715             0.00832798771             0.00191225071           
       0.801356             0.00809381859             0.00162251022           
       0.803996              0.0063568931             0.00146597268           
       0.806637             0.00640310168             0.00117087583           
       0.809277             0.00755143685             0.00137629577           
       0.811917             0.00681550372              0.0012223163           
       0.814558             0.00657735815             0.00124798748           
       0.817198             0.00617994856             0.00114926968           
       0.819838             0.00590972396             0.00113743171           
       0.822479             0.00696303822              0.0014498071           
       0.825119             0.00586316134             0.00113232339           
       0.827760             0.00853538319             0.00138391337           
       0.830400             0.00851699193             0.00130111509           
       0.833040              0.0058659353             0.00113129246           
       0.835681             0.00565020594             0.00126221543           
       0.838321              0.0093438539             0.00136237945           
       0.840961             0.00682116408             0.00126826586           
       0.843602             0.00592905953             0.00108433292           
       0.846242             0.00830461667             0.00128311254           
       0.848883             0.00768025823             0.00126275658           
       0.851523             0.00810258589              0.0012808994           
       0.854163             0.00548028898              0.0011202736           
       0.856804             0.00742299963             0.00117229801           
       0.859444               0.006742109             0.00109467862           
       0.862085             0.00731358953             0.00118829995           
       0.864725             0.00608458083             0.00110922633           
       0.867365              0.0055531709            0.000982632796           
       0.870006              0.0097709942              0.0012420755           
       0.872646             0.00642119871             0.00105587481           
       0.875286             0.00785425437             0.00112346581           
       0.877927              0.0079241177             0.00108890294           
       0.880567              0.0072436458             0.00107860042           
       0.883208              0.0089701503             0.00118897029           
       0.885848             0.00776628984              0.0011486856           
       0.888488             0.00612043409            0.000956444452           
       0.891129             0.00738657772              0.0010788783           
       0.893769             0.00951718434             0.00117200322           
       0.896410             0.00861851955             0.00103984849           
       0.899050             0.00652721309            0.000995183021           
       0.901690             0.00719848234               0.001138422           
       0.904331             0.00863313235             0.00110528103           
       0.906971             0.00655520943             0.00102460435           
       0.909611               0.008490521             0.00106151025           
       0.912252             0.00651884119            0.000960723444           
       0.914892             0.00760423262             0.00113390413           
       0.917533             0.00919689955             0.00117966534           
       0.920173             0.00702530193            0.000956591582           
       0.922813             0.00857701879             0.00110916987           
       0.925454             0.00568527117            0.000813159803           
       0.928094             0.00700494534            0.000963617928           
       0.930734             0.00691459908             0.00103072936           
       0.933375             0.00676800852             0.00100972028           
       0.936015             0.00990797338             0.00110956099           
       0.938656              0.0078771665             0.00106132367           
       0.941296              0.0075027732            0.000938715351           
       0.943936             0.00630949995            0.000844183248           
       0.946577             0.00912957537             0.00100875064           
       0.949217             0.00838319044            0.000888909952           
       0.951858              0.0083532744             0.00092884953           
       0.954498             0.00637657246            0.000939344756           
       0.957138             0.00795578846            0.000994007037           
       0.959779             0.00664167983            0.000895309494           
       0.962419             0.00725572013            0.000929557051           
       0.965059             0.00843341537             0.00105401124           
       0.967700             0.00814035307             0.00106059415           
       0.970340             0.00853781283            0.000961159859           
       0.972981             0.00859794401             0.00087878722           
       0.975621             0.00609947397            0.000787415404           
       0.978261             0.00659863342            0.000778195484           
       0.980902             0.00811633406             0.00103260984           
       0.983542              0.0072027044            0.000861439188           
       0.986182              0.0084487498            0.000915995551           
       0.988823             0.00777899709            0.000853451703           
       0.991463             0.00798504471            0.000922524208           
       0.994104             0.00689101809            0.000836016636           
       0.996744             0.00760103981            0.000895584348           
       0.999384             0.00641147051            0.000735612008           
       1.002025             0.00715580255            0.000867390705           
       1.004665             0.00914200425            0.000895970478           
       1.007306             0.00738369501            0.000801089792           
       1.009946             0.00732497408            0.000813744316           
       1.012586              0.0083337564            0.000845352847           
       1.015227             0.00781073784            0.000879213823           
       1.017867             0.00796836966            0.000853469198           
       1.020507             0.00756162419            0.000805325072           
       1.023148             0.00898427074            0.000947190951           
       1.025788             0.00822302681            0.000830890831           
       1.028429             0.00821669933            0.000870159816           
       1.031069             0.00888480642            0.000851494162           
       1.033709             0.00764409112            0.000839566089           
       1.036350             0.00728366764            0.000736053646           
       1.038990             0.00803261173            0.000787174678           
       1.041630             0.00797611401             0.00081813867           
       1.044271             0.00747463012            0.000744848804           
       1.046911             0.00756216688            0.000788058183           
       1.049552             0.00698390437             0.00079566967           
       1.052192             0.00832074045            0.000793041145           
       1.054832             0.00878781374            0.000822409287           
       1.057473             0.00891376046             0.00081651088           
       1.060113             0.00824979387            0.000766088188           
       1.062754             0.00794474449            0.000767565466           
       1.065394             0.00818867561            0.000823879087           
       1.068034             0.00809256783            0.000745205011           
       1.070675             0.00844466636            0.000794070941           
       1.073315             0.00945216274            0.000852146958           
       1.075955             0.00711687326            0.000698058489           
       1.078596             0.00950612876            0.000857435078           
       1.081236             0.00907869103            0.000802378718           
       1.083877             0.00871002745            0.000778868375           
       1.086517             0.00905459573            0.000851534344           
       1.089157             0.00959106164            0.000909360271           
       1.091798             0.00853541343            0.000752097399           
       1.094438             0.00722655657            0.000689800539           
       1.097078             0.00903774642            0.000739867627           
       1.099719             0.00885676756            0.000792226725           
       1.102359             0.00882340275            0.000740531003           
       1.105000             0.00924921024            0.000847803136           
       1.107640             0.00844940829            0.000774796407           
       1.110280             0.00820139875            0.000696490162           
       1.112921             0.00800086338            0.000738977401           
       1.115561             0.00844722147            0.000721661497           
       1.118202             0.00752933832            0.000681968052           
       1.120842             0.00886631872            0.000777790591           
       1.123482             0.00771345772            0.000722294951           
       1.126123             0.00868477378            0.000735129345           
       1.128763             0.00845069448            0.000730126654           
       1.131403              0.0101776552            0.000772086916           
       1.134044             0.00843352213            0.000723208003           
       1.136684              0.0085946471            0.000778395998           
       1.139325             0.00782567006            0.000684227831           
       1.141965             0.00883828525            0.000731957049           
       1.144605              0.0105405411            0.000762175682           
       1.147246             0.00748095795             0.00065713316           
       1.149886              0.0102658977            0.000767059015           
       1.152527              0.0086766323            0.000715444484           
       1.155167             0.00923584732            0.000702083525           
       1.157807               0.010006783            0.000783546203           
       1.160448             0.00908515176             0.00072906642           
       1.163088             0.00909767029            0.000695901029           
       1.165728             0.00925800351             0.00072076321           
       1.168369             0.00919094187            0.000724782663           
       1.171009             0.00940098619            0.000711373847           
       1.173650             0.00809455528            0.000677416794           
       1.176290             0.00925858832            0.000707988362           
       1.178930             0.00966229357            0.000708859668           
       1.181571              0.0103710705            0.000748962172           
       1.184211              0.0088556925            0.000694538708           
       1.186851             0.00811988853            0.000650218673           
       1.189492              0.0101709893            0.000722827065           
       1.192132             0.00932209776            0.000684241324           
       1.194773             0.00916329165            0.000681352163           
       1.197413              0.0102436739            0.000690245276           
       1.200053             0.00895640139            0.000661819025           
       1.202694             0.00915360515            0.000636242894           
       1.205334             0.00995448457            0.000715037626           
       1.207975              0.0100005459            0.000684100841           
       1.210615              0.0102442445            0.000763819331           
       1.213255             0.00903080627            0.000642197141           
       1.215896             0.00997048962            0.000687008145           
       1.218536             0.00942350002            0.000642211946           
       1.221176             0.00874539319            0.000672625675           
       1.223817             0.00896817218            0.000639396725           
       1.226457             0.00927131021            0.000663210581           
       1.229098             0.00934606863            0.000665846642           
       1.231738             0.00981731391            0.000685785452           
       1.234378              0.0106819682            0.000672177274           
       1.237019              0.0111749253            0.000708474961           
       1.239659              0.0105482694            0.000682327822           
       1.242299              0.0102078863            0.000662700449           
       1.244940             0.00930154391            0.000615239883           
       1.247580             0.00910662314            0.000627376286           
       1.250221             0.00962142361             0.00064088636           
       1.252861             0.00923368665            0.000597706623           
       1.255501             0.00979972779            0.000668591561           
       1.258142              0.0101802718            0.000640343909           
       1.260782              0.0102889136            0.000657680671           
       1.263423               0.010169334            0.000628273649           
       1.266063              0.0105161544            0.000654851441           
       1.268703              0.0105769837            0.000651292974           
       1.271344               0.010536936            0.000672089772           
       1.273984              0.0109849317            0.000662761424           
       1.276624              0.0111508638            0.000655203634           
       1.279265              0.0106144103            0.000649864612           
       1.281905              0.0104026497            0.000646204741           
       1.284546             0.00948912021            0.000596559454           
       1.287186              0.0112198364             0.00063642906           
       1.289826             0.00957935551            0.000619771721           
       1.292467              0.0109825798            0.000648997738           
       1.295107              0.0107409643            0.000635443525           
       1.297747             0.00987429242            0.000583018799           
       1.300388              0.0100405789            0.000640893307           
       1.303028             0.00949960818            0.000595124654           
       1.305669              0.0124188972             0.00069665277           
       1.308309                0.01085176            0.000644802872           
       1.310949             0.00995964271            0.000617109286           
       1.313590              0.0117965443            0.000650616903           
       1.316230              0.0111361454             0.00067458444           
       1.318871              0.0114320129            0.000669391547           
       1.321511              0.0116367135            0.000662840042           
       1.324151              0.0103660399            0.000607057821           
       1.326792              0.0108346049            0.000624463238           
       1.329432              0.0115817289            0.000641078836           
       1.332072              0.0111802836            0.000620483335           
       1.334713              0.0114936963            0.000649314395           
       1.337353              0.0105503369            0.000596603744           
       1.339994              0.0112010016             0.00064509319           
       1.342634               0.010180315            0.000589745727           
       1.345274              0.0108915898            0.000631292671           
       1.347915              0.0103196687            0.000597525294           
       1.350555              0.0108816897            0.000624326703           
       1.353195              0.0110756742             0.00063296055           
       1.355836              0.0113981952            0.000632097748           
       1.358476              0.0114366407            0.000614897272           
       1.361117              0.0107078914            0.000595800712           
       1.363757              0.0108723437            0.000618690123           
       1.366397              0.0114949554            0.000616907442           
       1.369038              0.0112455509            0.000616253944           
       1.371678              0.0111338295            0.000607779274           
       1.374319              0.0107189895            0.000591213967           
       1.376959              0.0116467244            0.000610070539           
       1.379599              0.0114681545            0.000648779333           
       1.382240              0.0109207076            0.000595023504           
       1.384880              0.0108411229            0.000627964365           
       1.387520              0.0102400451            0.000579627988           
       1.390161              0.0111507867            0.000574466807           
       1.392801              0.0103541742            0.000576762793           
       1.395442              0.0117205004            0.000622019367           
       1.398082              0.0115040354            0.000577089947           
       1.400722              0.0107180504            0.000583473066           
       1.403363              0.0122442566            0.000656449562           
       1.406003              0.0105290366            0.000569695766           
       1.408644              0.0114231735            0.000621617238           
       1.411284               0.011486488            0.000590245362           
       1.413924              0.0119742732            0.000600413568           
       1.416565              0.0105041231            0.000560139887           
       1.419205              0.0100612489            0.000571864702           
       1.421845              0.0109016302            0.000594919199           
       1.424486              0.0101603296            0.000552069068           
       1.427126               0.011292095            0.000604590729           
       1.429767             0.00998192771            0.000534829002           
       1.432407              0.0101994448            0.000565776537           
       1.435047              0.0108861632            0.000548954613           
       1.437688             0.00966500621            0.000524983296           
       1.440328               0.010869631            0.000568214869           
       1.442968              0.0114042868            0.000595062337           
       1.445609              0.0107300803            0.000558894253           
       1.448249                0.01114087            0.000583911268           
       1.450890              0.0111141798            0.000579404812           
       1.453530              0.0119134173            0.000627591061           
       1.456170              0.0117349354            0.000604512048           
       1.458811              0.0113677285            0.000568931335           
       1.461451              0.0101713088            0.000539571742           
       1.464092              0.0108377404            0.000560609233           
       1.466732              0.0105598168            0.000548619117           
       1.469372              0.0108919719            0.000544140881           
       1.472013              0.0105239905            0.000576868095           
       1.474653              0.0110135506            0.000581029544           
       1.477293               0.011595459            0.000608747044           
       1.479934              0.0122229113            0.000596380847           
       1.482574               0.010304299            0.000529695666           
       1.485215              0.0109254507            0.000555586012           
       1.487855              0.0105569182            0.000553339663           
       1.490495             0.00997306097            0.000535839888           
       1.493136              0.0113019595            0.000562605119           
       1.495776              0.0107585947            0.000546414955           
       1.498416              0.0102384558            0.000550482384           
       1.501057              0.0114607619            0.000569579948           
       1.503697             0.00973334352            0.000513176309           
       1.506338              0.0112092601              0.0005607748           
       1.508978              0.0107158435            0.000542901542           
       1.511618              0.0104338723            0.000570529718           
       1.514259               0.010642739            0.000556305591           
       1.516899              0.0099061837            0.000522577889           
       1.519540              0.0107538322             0.00055325701           
       1.522180              0.0103720405            0.000548120184           
       1.524820             0.00972758694            0.000527840606           
       1.527461              0.0104103963            0.000548752424           
       1.530101              0.0101772315            0.000537146032           
       1.532741              0.0104091868             0.00054008017           
       1.535382              0.0108363911            0.000559922725           
       1.538022              0.0108978603            0.000528970782           
       1.540663              0.0108327507            0.000567238617           
       1.543303              0.0100005619            0.000506055509           
       1.545943              0.0105420744            0.000549932721           
       1.548584              0.0110286745            0.000572578311           
       1.551224              0.0101831509            0.000508704561           
       1.553864             0.00982831972            0.000528093092           
       1.556505             0.00992613109            0.000512683827           
       1.559145             0.00990859015            0.000518505408           
       1.561786              0.0099190302            0.000519178035           
       1.564426             0.00947986391            0.000491767542           
       1.567066              0.0100377022            0.000530221914           
       1.569707              0.0100597362            0.000521268646           
       1.572347              0.0101110839             0.00053989526           
       1.574988             0.00964266324            0.000501845011           
       1.577628             0.00885223988            0.000501394222           
       1.580268               0.010350001            0.000525289811           
       1.582909             0.00970323353            0.000539109014           
       1.585549             0.00954710508            0.000519229235           
       1.588189             0.00978124356            0.000514087108           
       1.590830             0.00980020956            0.000513939418           
       1.593470             0.00971829623            0.000532051737           
       1.596111             0.00937548825            0.000510203901           
       1.598751             0.00966075248             0.00050183513           
       1.601391              0.0097815175            0.000516102858           
       1.604032             0.00833945178            0.000486504989           
       1.606672             0.00946093782            0.000503466853           
       1.609312             0.00907647637             0.00051477124           
       1.611953              0.0088618986            0.000497745702           
       1.614593             0.00841648649            0.000475820875           
       1.617234             0.00882060317            0.000504829673           
       1.619874             0.00981072412            0.000530306918           
       1.622514             0.00841233269            0.000484361688           
       1.625155             0.00831471215            0.000484387825           
       1.627795             0.00876853066            0.000485243244           
       1.630436             0.00952561555            0.000503116924           
       1.633076              0.0094504642            0.000507700848           
       1.635716             0.00864044488            0.000477902165           
       1.638357             0.00918746624            0.000494096811           
       1.640997             0.00925210827            0.000510851727           
       1.643637             0.00940062507            0.000501090333           
       1.646278             0.00947028207            0.000518745935           
       1.648918             0.00939681736            0.000518139566           
       1.651559             0.00809293303            0.000484581792           
       1.654199             0.00934766102            0.000506517472           
       1.656839             0.00906350988            0.000498933575           
       1.659480             0.00869942486            0.000507165394           
       1.662120             0.00831243873            0.000466921117           
       1.664761             0.00872236988            0.000496825846           
       1.667401             0.00831800077            0.000463721275           
       1.670041             0.00738455169            0.000443589893           
       1.672682             0.00938356152            0.000497983238           
       1.675322             0.00878806659            0.000478823879           
       1.677962             0.00900120872            0.000479249978           
       1.680603             0.00901873875            0.000481192633           
       1.683243             0.00841342085            0.000484894436           
       1.685884              0.0086175177            0.000494364539           
       1.688524             0.00858368895            0.000483855892           
       1.691164             0.00892166213            0.000493401535           
       1.693805             0.00876754597             0.00049449456           
       1.696445             0.00823534629             0.00048203144           
       1.699085             0.00823011952             0.00046573161           
       1.701726               0.008993638            0.000469000571           
       1.704366             0.00915713349            0.000498549955           
       1.707007             0.00903139084            0.000484078512           
       1.709647             0.00829791853             0.00046924549           
       1.712287             0.00842579781            0.000476963218           
       1.714928             0.00873005029            0.000489412711           
       1.717568              0.0090049785            0.000468231842           
       1.720209              0.0081497428            0.000466570019           
       1.722849             0.00977558671            0.000508367505           
       1.725489              0.0094511924            0.000500281206           
       1.728130             0.00816511926            0.000494163784           
       1.730770             0.00818895526            0.000470007321           
       1.733410              0.0085479733            0.000472651499           
       1.736051             0.00850133518            0.000474641215           
       1.738691             0.00785407526            0.000446966772           
       1.741332             0.00861925494            0.000481925055           
       1.743972             0.00824160954            0.000486644864           
       1.746612              0.0089808787            0.000487811561           
       1.749253             0.00897649847            0.000497323729           
       1.751893              0.0091223274            0.000497667147           
       1.754533             0.00826128062            0.000473155685           
       1.757174             0.00831621495            0.000470280661           
       1.759814             0.00910541453            0.000484630411           
       1.762455             0.00793247215            0.000460646011           
       1.765095             0.00820884697            0.000448274763           
       1.767735             0.00933955398            0.000492903324           
       1.770376               0.008946853            0.000483701286           
       1.773016             0.00844966029            0.000466920463           
       1.775657             0.00851997722            0.000462113017           
       1.778297             0.00884069837             0.00046667703           
       1.780937             0.00862407803            0.000486505288           
       1.783578             0.00850225168            0.000470978338           
       1.786218             0.00894378034            0.000504118345           
       1.788858             0.00825121762            0.000459879707           
       1.791499              0.0085291034            0.000462308405           
       1.794139              0.0090387002            0.000472057832           
       1.796780             0.00854191867            0.000456689658           
       1.799420             0.00916471725            0.000470425977           
       1.802060             0.00959035025            0.000485112907           
       1.804701             0.00842947613            0.000436452234           
       1.807341             0.00928087431            0.000481220036           
       1.809981              0.0098271924            0.000496831968           
       1.812622             0.00943116317            0.000477955525           
       1.815262             0.00950431173            0.000489997641           
       1.817903             0.00880746335            0.000464703604           
       1.820543             0.00919859519            0.000482310233           
       1.823183             0.00961749092            0.000492898841           
       1.825824             0.00883818411            0.000451414234           
       1.828464             0.00893711695            0.000473245531           
       1.831105             0.00916080124             0.00046588433           
       1.833745             0.00850304546            0.000458433325           
       1.836385              0.0081411035            0.000461371854           
       1.839026             0.00919226913            0.000488704706           
       1.841666             0.00868545153            0.000473356823           
       1.844306             0.00920249357            0.000473947894           
       1.846947             0.00855798601            0.000461056282           
       1.849587             0.00902363236            0.000522785196           
       1.852228             0.00924767558            0.000478559942           
       1.854868             0.00934340911             0.00050813772           
       1.857508             0.00855576559            0.000481479332           
       1.860149             0.00935560182            0.000512629698           
       1.862789             0.00936354913            0.000495016328           
       1.865429             0.00797880598             0.00047698539           
       1.868070             0.00876595792            0.000493297042           
       1.870710             0.00908528453            0.000490623546           
       1.873351             0.00797550379            0.000465365453           
       1.875991             0.00883765902            0.000497868052           
       1.878631             0.00959821978            0.000508911894           
       1.881272              0.0091169034            0.000492664473           
       1.883912             0.00846765268            0.000494126856           
       1.886553             0.00934113624            0.000513185089           
       1.889193             0.00898471106            0.000502439223           
       1.891833             0.00914214478            0.000526354493           
       1.894474             0.00884339837            0.000513174476           
       1.897114             0.00806003281            0.000474083926           
       1.899754             0.00907499178            0.000505153398           
       1.902395             0.00955712983            0.000508263381           
       1.905035             0.00914881394            0.000526710729           
       1.907676             0.00862228757            0.000481929748           
       1.910316             0.00930083962            0.000513824005           
       1.912956             0.00927402263            0.000501794837           
       1.915597             0.00921871467            0.000503092398           
       1.918237             0.00845638104            0.000497625759           
       1.920878             0.00975172911            0.000532193907           
       1.923518             0.00950956171            0.000525767291           
       1.926158             0.00840934775            0.000488002415           
       1.928799             0.00796668435             0.00046948662           
       1.931439             0.00956132105            0.000527822184           
       1.934079             0.00905041884            0.000535338949           
       1.936720             0.00793694434            0.000464494109           
       1.939360             0.00862189411            0.000516490744           
       1.942001             0.00812476776            0.000459540112           
       1.944641             0.00856416795            0.000481096281           
       1.947281             0.00864468008            0.000478897095           
       1.949922             0.00896052435            0.000503613756           
       1.952562             0.00861009479            0.000509142168           
       1.955202             0.00813146357            0.000494185216           
       1.957843             0.00895007939            0.000505018999           
       1.960483             0.00783418361            0.000493985982           
       1.963124             0.00847551133            0.000503266831           
       1.965764             0.00878665265             0.00048322754           
       1.968404             0.00754293535            0.000443493491           
       1.971045             0.00859061334            0.000482546058           
       1.973685             0.00907341147            0.000520183497           
       1.976326             0.00823149411            0.000488652788           
       1.978966             0.00774010673             0.00047800143           
       1.981606             0.00904393727            0.000527471289           
       1.984247             0.00849584692            0.000507877171           
       1.986887             0.00754700959            0.000472943272           
       1.989527             0.00817090775            0.000486804185           
       1.992168             0.00779746306            0.000493423004           
       1.994808             0.00746128893             0.00048060028           
       1.997449              0.0081037256            0.000490577582           
       2.000089              0.0082271108            0.000492338446           
       2.002729             0.00832490408            0.000495552865           
       2.005370              0.0073244111            0.000459820714           
       2.008010             0.00878989952            0.000525709999           
       2.010650             0.00825618513            0.000513301575           
       2.013291             0.00834429234             0.00049510529           
       2.015931             0.00760660584            0.000469372221           
       2.018572             0.00734370507             0.00049328593           
       2.021212             0.00795426404            0.000504158762           
       2.023852             0.00680035641            0.000441196602           
       2.026493             0.00980242683            0.000553369909           
       2.029133             0.00833225438            0.000499920678           
       2.031774             0.00833493767            0.000524740114           
       2.034414             0.00747419288            0.000457223599           
       2.037054             0.00772950231             0.00047675252           
       2.039695              0.0081811365            0.000486778699           
       2.042335             0.00819219213            0.000506211622           
       2.044975              0.0077505443            0.000486406252           
       2.047616             0.00762352633            0.000481205788           
       2.050256             0.00773294064            0.000489233149           
       2.052897             0.00774079256             0.00049850534           
       2.055537             0.00772699154            0.000481356781           
       2.058177             0.00727214348            0.000457293881           
       2.060818             0.00791114475            0.000499654702           
       2.063458             0.00769895407            0.000513659466           
       2.066098             0.00658931838            0.000448276135           
       2.068739             0.00779886158            0.000495267373           
       2.071379             0.00791194304            0.000511855114           
       2.074020             0.00757060034            0.000489810545           
       2.076660             0.00746830191            0.000490422747           
       2.079300              0.0082034867            0.000526588931           
       2.081941              0.0078325176            0.000471124362           
       2.084581             0.00852210626            0.000518705197           
       2.087222             0.00787543668            0.000480887671           
       2.089862             0.00762000674            0.000515196288           
       2.092502             0.00788700949            0.000508083496           
       2.095143             0.00820105617            0.000535015994           
       2.097783              0.0073938691             0.00049183408           
       2.100423             0.00765113549            0.000482101955           
       2.103064             0.00759074797             0.00049826753           
       2.105704             0.00789637784             0.00050568229           
       2.108345             0.00809869152            0.000492009785           
       2.110985             0.00801410772            0.000522750645           
       2.113625             0.00694640617            0.000490931033           
       2.116266             0.00760288476            0.000520892275           
       2.118906             0.00699989796            0.000465794517           
       2.121546             0.00758966345            0.000475759617           
       2.124187             0.00794369861            0.000510915684           
       2.126827             0.00816254197            0.000523685766           
       2.129468             0.00788324288            0.000515962845           
       2.132108             0.00812522192            0.000509638776           
       2.134748             0.00863066301            0.000523213188           
       2.137389             0.00679596758            0.000484361902           
       2.140029             0.00708779254            0.000442842717           
       2.142670             0.00827985039             0.00051152848           
       2.145310             0.00760964079            0.000477304324           
       2.147950             0.00799331545            0.000503508888           
       2.150591              0.0077193799            0.000489805364           
       2.153231             0.00727969592            0.000489609357           
       2.155871             0.00828786657            0.000504686269           
       2.158512             0.00839771478             0.00053008268           
       2.161152             0.00716400888            0.000474256781           
       2.163793             0.00846260931            0.000513130789           
       2.166433              0.0068609394            0.000474453453           
       2.169073              0.0080048935            0.000501073544           
       2.171714             0.00717234844            0.000470755747           
       2.174354             0.00698336082            0.000485372405           
       2.176995             0.00759993812            0.000504215981           
       2.179635             0.00745129694            0.000527576522           
       2.182275             0.00761247677            0.000503474529           
       2.184916             0.00714873958            0.000471246331           
       2.187556             0.00666345028             0.00045040997           
       2.190196             0.00848016231            0.000530971473           
       2.192837             0.00700483414            0.000479952951           
       2.195477             0.00746993636            0.000472524993           
       2.198118             0.00802169234            0.000502212264           
       2.200758             0.00760669613            0.000501734557           
       2.203398             0.00726707273            0.000493543253           
       2.206039             0.00764912219            0.000479217905           
       2.208679             0.00662794181            0.000456465546           
       2.211319             0.00768588943            0.000494382025           
       2.213960             0.00758231196             0.00049761861           
       2.216600             0.00756771649            0.000514279662           
       2.219241             0.00741100123             0.00048639655           
       2.221881             0.00795444476            0.000504950721           
       2.224521             0.00799051497            0.000512295903           
       2.227162             0.00784869385            0.000497563335           
       2.229802             0.00725946057            0.000493501575           
       2.232443             0.00741749267            0.000490975981           
       2.235083             0.00629274838            0.000465561506           
       2.237723             0.00649737955            0.000453979966           
       2.240364             0.00763585997            0.000504273389           
       2.243004             0.00688677507             0.00047507738           
       2.245644             0.00642521275            0.000463474227           
       2.248285             0.00749081972            0.000490408483           
       2.250925              0.0077500321            0.000501851512           
       2.253566             0.00708965041            0.000513150434           
       2.256206             0.00725456319            0.000508705209           
       2.258846             0.00736213265            0.000487493905           
       2.261487             0.00647918834            0.000480008029           
       2.264127             0.00657982607            0.000467170586           
       2.266767             0.00681444343             0.00048809327           
       2.269408             0.00719716523            0.000503666626           
       2.272048             0.00788123407            0.000523913303           
       2.274689             0.00734084323            0.000512295241           
       2.277329             0.00732256875            0.000481758212           
       2.279969             0.00661083133            0.000487245388           
       2.282610             0.00791221067            0.000518225228           
       2.285250             0.00675045366            0.000458152131           
       2.287891             0.00784561791            0.000529557055           
       2.290531             0.00642652164             0.00048572042           
       2.293171             0.00731194546            0.000504677707           
       2.295812              0.0071933076            0.000498554604           
       2.298452             0.00698812032            0.000513866062           
       2.301092             0.00691171931            0.000474827592           
       2.303733              0.0061847129            0.000467285028           
       2.306373             0.00775850679            0.000531615161           
       2.309014             0.00639211516             0.00047312375           
       2.311654             0.00770770169            0.000542159544           
       2.314294             0.00683268629            0.000470287255           
       2.316935             0.00725017363            0.000486443304           
       2.319575             0.00731132259            0.000511824838           
       2.322215             0.00840556877             0.00057193281           
       2.324856              0.0081357179            0.000517323427           
       2.327496             0.00690437251            0.000506743109           
       2.330137             0.00736170953            0.000500717846           
       2.332777             0.00665554654            0.000490906934           
       2.335417             0.00712861736            0.000492888436           
       2.338058             0.00700980079            0.000503363992           
       2.340698             0.00690659845             0.00049571843           
       2.343339             0.00724769429            0.000518986801           
       2.345979              0.0063915658            0.000461092079           
       2.348619             0.00765720261            0.000523131479           
       2.351260             0.00695362383            0.000495614126           
       2.353900             0.00653252576            0.000478851339           
       2.356540             0.00661098485            0.000481034575           
       2.359181             0.00711032203            0.000491876613           
       2.361821             0.00721669225            0.000478680544           
       2.364462             0.00773051416            0.000518156088           
       2.367102             0.00744671909            0.000522622782           
       2.369742             0.00634034405            0.000507589777           
       2.372383             0.00753461872             0.00050104227           
       2.375023             0.00677256458            0.000499358621           
       2.377663             0.00808822465            0.000521779688           
       2.380304             0.00762077639            0.000514922427           
       2.382944             0.00689015543            0.000466344931           
       2.385585             0.00818564343            0.000542109528           
       2.388225             0.00703666567            0.000500263189           
       2.390865             0.00715067984             0.00049911947           
       2.393506             0.00750916774            0.000501828124           
       2.396146             0.00744850346             0.00054040302           
       2.398787             0.00625890671            0.000456524833           
       2.401427             0.00737829048            0.000478436271           
       2.404067             0.00724834507            0.000484781894           
       2.406708             0.00764298927             0.00049183475           
       2.409348              0.0071912301              0.0005060343           
       2.411988             0.00765465674            0.000511527815           
       2.414629             0.00650973358            0.000486415329           
       2.417269             0.00642133147             0.00048874162           
       2.419910             0.00668091318            0.000499679217           
       2.422550             0.00708087463            0.000492164181           
       2.425190              0.0083030012            0.000561781893           
       2.427831              0.0067110942            0.000502225368           
       2.430471             0.00590057177            0.000448644219           
       2.433112             0.00691222663            0.000472842681           
       2.435752             0.00782557753            0.000532451055           
       2.438392             0.00701578304            0.000486607543           
       2.441033             0.00770162146            0.000540325358           
       2.443673             0.00698724019             0.00051505173           
       2.446313             0.00725303345            0.000525219207           
       2.448954             0.00751450132            0.000509016142           
       2.451594             0.00805913126            0.000566798176           
       2.454235             0.00720059076            0.000502677478           
       2.456875             0.00663189238            0.000504782825           
       2.459515             0.00697490313            0.000531073457           
       2.462156             0.00637247873            0.000479265056           
       2.464796             0.00808866149             0.00053299155           
       2.467436              0.0075170076            0.000531342254           
       2.470077             0.00816763751            0.000524958854           
       2.472717             0.00779551065            0.000515082187           
       2.475358             0.00656013399            0.000477436449           
       2.477998             0.00761613532            0.000505757742           
       2.480638             0.00788720145            0.000523824648           
       2.483279             0.00710717804            0.000519703447           
       2.485919             0.00746672644            0.000513365741           
       2.488560             0.00662267831             0.00048212917           
       2.491200             0.00677106577            0.000501996713           
       2.493840             0.00768247611            0.000565799274           
       2.496481             0.00745665306            0.000548303338           
       2.499121             0.00705803109             0.00051886172           
       2.501761             0.00661527539            0.000508979406           
       2.504402             0.00615309534            0.000483705744           
       2.507042             0.00730009431             0.00052296119           
       2.509683             0.00765640557            0.000527386375           
       2.512323             0.00680294707            0.000522104011           
       2.514963             0.00729613285            0.000534018071           
       2.517604             0.00673845839            0.000532527867           
       2.520244             0.00661547763            0.000494669108           
       2.522884             0.00794415839             0.00054982561           
       2.525525             0.00704482543             0.00052364589           
       2.528165             0.00773042022            0.000539984343           
       2.530806             0.00722100082            0.000530985857           
       2.533446             0.00682873108            0.000505340583           
       2.536086             0.00694993148            0.000505242449           
       2.538727             0.00788237189            0.000516195488           
       2.541367             0.00668775387            0.000480156662           
       2.544008             0.00614167075            0.000475208024           
       2.546648             0.00604720013            0.000479627219           
       2.549288             0.00719284362            0.000533749062           
       2.551929             0.00774888734             0.00054516504           
       2.554569               0.007479575            0.000516013158           
       2.557209             0.00721291194            0.000511384888           
       2.559850             0.00728608088            0.000515622602           
       2.562490             0.00654719624            0.000505179449           
       2.565131             0.00725329367            0.000551314577           
       2.567771             0.00725367253             0.00053156391           
       2.570411             0.00728290254            0.000526870824           
       2.573052             0.00742994756            0.000538864974           
       2.575692             0.00655683288            0.000503148607           
       2.578332              0.0073625774            0.000535372884           
       2.580973             0.00715420365            0.000522721219           
       2.583613             0.00716088885            0.000510513092           
       2.586254             0.00609544578            0.000470351104           
       2.588894              0.0080162131            0.000560132276           
       2.591534             0.00646392921             0.00052068294           
       2.594175              0.0075020248            0.000550352082           
       2.596815              0.0072768717            0.000545226446           
       2.599456             0.00609288987             0.00047310751           
       2.602096             0.00746425881            0.000527635648           
       2.604736             0.00715595156            0.000528874167           
       2.607377             0.00688579607            0.000505123004           
       2.610017             0.00751080073            0.000518317541           
       2.612657             0.00663334354            0.000518105374           
       2.615298             0.00679523369            0.000511969194           
       2.617938             0.00830245147            0.000605375502           
       2.620579             0.00641797457            0.000510960488           
       2.623219             0.00697500202            0.000531913451           
       2.625859             0.00659563902            0.000502908315           
       2.628500              0.0063930122            0.000491877712           
       2.631140             0.00720991061            0.000530407951           
       2.633780              0.0064692096            0.000501987602           
       2.636421             0.00808702482             0.00057505938           
       2.639061             0.00717283349            0.000509836566           
       2.641702             0.00708772211            0.000518535527           
       2.644342             0.00745535034            0.000534079354           
       2.646982             0.00721172528            0.000517427761           
       2.649623             0.00757884272             0.00055587383           
       2.652263             0.00686802832            0.000523854498           
       2.654904             0.00777347604            0.000557877653           
       2.657544             0.00706313932            0.000500879548           
       2.660184             0.00691828385            0.000524612683           
       2.662825             0.00690471484             0.00053625695           
       2.665465             0.00752329666            0.000541382975           
       2.668105             0.00675451023             0.00054069685           
       2.670746             0.00785234031            0.000538552681           
       2.673386             0.00978041874            0.000619425587           
       2.676027              0.0108773081            0.000642753538           
       2.678667             0.00934545313            0.000581329697           
       2.681307              0.0121714354            0.000651854886           
       2.683948              0.0107678794            0.000629951853           
       2.686588              0.0118441645            0.000649728516           
       2.689229              0.0108649101            0.000608075999           
       2.691869              0.0103948211            0.000628618899           
       2.694509             0.00965881751            0.000606288705           
       2.697150             0.00865751748            0.000564690404           
       2.699790             0.00695099354            0.000530451996           
       2.702430             0.00713695906             0.00051378631           
       2.705071              0.0072570692            0.000535349899           
       2.707711             0.00629245963            0.000483834002           
       2.710352             0.00685318172            0.000533523113           
       2.712992             0.00870288223            0.000612343973           
       2.715632              0.0066017357            0.000494820951           
       2.718273             0.00731981094              0.0005399852           
       2.720913              0.0069227671            0.000523641809           
       2.723553             0.00646675385            0.000509497188           
       2.726194             0.00665969526            0.000540479294           
       2.728834             0.00729058736            0.000565766008           
       2.731475             0.00773068863            0.000537681537           
       2.734115             0.00797232859            0.000562966066           
       2.736755             0.00718866791             0.00053898142           
       2.739396             0.00640994937            0.000506003278           
       2.742036              0.0061633394            0.000519277677           
       2.744677             0.00711661984            0.000541406711           
       2.747317             0.00771314763            0.000559621821           
       2.749957             0.00727033717            0.000547133433           
       2.752598             0.00706812293            0.000545325539           
       2.755238             0.00827255677            0.000600611632           
       2.757878             0.00650682394            0.000528012921           
       2.760519             0.00736375226            0.000555750797           
       2.763159             0.00730479252            0.000547989973           
       2.765800             0.00752910735            0.000530183498           
       2.768440             0.00707861268             0.00051786458           
       2.771080             0.00830162568              0.0005655015           
       2.773721              0.0067296375            0.000522286878           
       2.776361             0.00670543705            0.000528539432           
       2.779001             0.00713966233            0.000564800771           
       2.781642             0.00792234452             0.00059056937           
       2.784282             0.00589967369            0.000518013984           
       2.786923             0.00731362486            0.000581836501           
       2.789563             0.00646909814            0.000527030495           
       2.792203             0.00657645141            0.000507624876           
       2.794844             0.00619453448            0.000539952439           
       2.797484             0.00752931766            0.000561809032           
       2.800125             0.00657699062            0.000552120587           
       2.802765             0.00778620198            0.000590400635           
       2.805405             0.00751730533            0.000582079781           
       2.808046             0.00764927342             0.00059748894           
       2.810686             0.00684703939            0.000519435639           
       2.813326             0.00766607417             0.00057090916           
       2.815967             0.00686633842            0.000555672699           
       2.818607             0.00591709786            0.000492248032           
       2.821248             0.00634423136            0.000499123304           
       2.823888             0.00679816703            0.000536317804           
       2.826528             0.00676568131            0.000518154812           
       2.829169             0.00682247048            0.000545011157           
       2.831809             0.00586116502            0.000512028423           
       2.834449             0.00551182313              0.0004996728           
       2.837090             0.00688081206            0.000539217202           
       2.839730             0.00725255154            0.000550888483           
       2.842371             0.00738341809            0.000556638645           
       2.845011             0.00775838328            0.000575146222           
       2.847651             0.00654671343            0.000528977712           
       2.850292             0.00670715581            0.000540675078           
       2.852932             0.00668114832            0.000551386056           
       2.855573             0.00745962061            0.000565161997           
       2.858213             0.00628018245            0.000544553019           
       2.860853              0.0061604772            0.000501708472           
       2.863494             0.00616390961            0.000519593812           
       2.866134              0.0066743099            0.000561968182           
       2.868774             0.00657359242            0.000548116501           
       2.871415              0.0066369561            0.000559330609           
       2.874055             0.00719416273            0.000556641579           
       2.876696             0.00572972361            0.000510203395           
       2.879336             0.00690285087            0.000539735721           
       2.881976             0.00628038298            0.000531006926           
       2.884617             0.00752595539            0.000572746396           
       2.887257             0.00925403656            0.000638385513           
       2.889897             0.00780318695            0.000574145486           
       2.892538             0.00709494132            0.000599755418           
       2.895178             0.00670183996            0.000526614641           
       2.897819             0.00722020869            0.000557585712           
       2.900459             0.00667014713            0.000525500111           
       2.903099             0.00746233434             0.00055014105           
       2.905740             0.00682470048            0.000539724045           
       2.908380             0.00808420995            0.000594094496           
       2.911021             0.00717213061            0.000568676096           
       2.913661             0.00584399298            0.000513175117           
       2.916301             0.00705002717            0.000564183143           
       2.918942             0.00697948371            0.000536948334           
       2.921582             0.00624874528            0.000531579893           
       2.924222             0.00751081466             0.00056461606           
       2.926863             0.00834165219            0.000619787974           
       2.929503             0.00838969149            0.000628934089           
       2.932144             0.00694822901            0.000549430504           
       2.934784             0.00739396255            0.000557486191           
       2.937424             0.00845437888            0.000602243924           
       2.940065             0.00710558935            0.000526668069           
       2.942705             0.00737148427            0.000535758666           
       2.945346             0.00738052249            0.000568923995           
       2.947986             0.00733847117            0.000578450624           
       2.950626             0.00781271584            0.000593488584           
       2.953267              0.0067133278            0.000541260006           
       2.955907             0.00712873881            0.000578594014           
       2.958547              0.0077018732            0.000567755517           
       2.961188             0.00707104844            0.000567551976           
       2.963828             0.00780608941            0.000583312699           
       2.966469             0.00764341712            0.000566233977           
       2.969109               0.007352408            0.000563578577           
       2.971749             0.00788846473            0.000580120426           
       2.974390             0.00698091707            0.000536279992           
       2.977030             0.00680558227            0.000541335919           
       2.979670             0.00856348771             0.00059065669           
       2.982311             0.00993156199            0.000659275276           
       2.984951             0.00991305321            0.000626444241           
       2.987592             0.00775497863             0.00056517325           
       2.990232             0.00776048186            0.000587982608           
       2.992872             0.00844290882            0.000577684923           
       2.995513             0.00889368714            0.000580057307           
       2.998153              0.0132546545            0.000720029458           
       3.000794              0.0122653388            0.000670890316           
       3.003434              0.0108255343            0.000631235849           
       3.006074              0.0392308479             0.00118481551           
       3.008715               0.117298233             0.00197765728           
       3.011355                 0.2089945             0.00254562991           
       3.013995               0.116445155             0.00190532274           
       3.016636              0.0719969044             0.00146707574           
       3.019276                0.13816946             0.00199777319           
       3.021917               0.500948132             0.00365769696           
       3.024557                 1.4891937             0.00620036012           
       3.027197                1.14304918             0.00529608499           
       3.029838               0.539070122             0.00368860472           
       3.032478               0.261253473              0.0025704661           
       3.035118              0.0705102168             0.00135330179           
       3.037759              0.0845712615             0.00148019638           
       3.040399               0.120285969             0.00182093806           
       3.043040               0.502048554             0.00376575008           
       3.045680               0.386873824             0.00311019389           
       3.048320              0.0952973778             0.00157721331           
       3.050961               0.113204086             0.00174930986           
       3.053601              0.0976934595             0.00156512632           
       3.056242              0.0767254368             0.00147470921           
       3.058882              0.0784627693             0.00159973499           
       3.061522              0.0593888502             0.00136549611           
       3.064163              0.0786487754             0.00155160246           
       3.066803               0.150148003              0.0022570117           
       3.069443               0.105580098             0.00198017281           
       3.072084              0.0359671873             0.00112539565           
       3.074724              0.0475475853             0.00144504245           
       3.077365              0.0518111116             0.00156149793           
       3.080005               0.012071843            0.000758002651           
       3.082645               0.015452821            0.000900935167           
       3.085286              0.0159383749            0.000922199027           
       3.087926              0.0125015138            0.000810445474           
       3.090566              0.0116195763            0.000765558143           
       3.093207              0.0123929563            0.000822727034           
       3.095847             0.00853763028            0.000654518839           
       3.098488             0.00770980755            0.000689667506           
       3.101128             0.00942209053            0.000767318506           
       3.103768             0.00913443824            0.000741300858           
       3.106409             0.00952500882            0.000805633805           
       3.109049              0.0087154507            0.000739542261           
       3.111690             0.00810668309            0.000701002329           
       3.114330             0.00700334526             0.00066541503           
       3.116970             0.00769628555            0.000702913406           
       3.119611              0.0120473884            0.000936109062           
       3.122251              0.0182438628             0.00120499159           
       3.124891              0.0364666509             0.00171949201           
       3.127532              0.0258142968             0.00141530639           
       3.130172              0.0158203479             0.00112711591           
       3.132813             0.00998261954            0.000881420875           
       3.135453              0.0072387502            0.000744390264           
       3.138093             0.00682151977            0.000782983406           
       3.140734             0.00596981085            0.000675763747           
       3.143374             0.00822381652            0.000838783048           
       3.146014             0.00653984346             0.00080524687           
       3.148655             0.00598724782            0.000716228573           
       3.151295             0.00700622311             0.00082565225           
       3.153936             0.00699745891            0.000797056181           
       3.156576             0.00679667413            0.000774852691           
       3.159216             0.00650694997            0.000761950037           
       3.161857             0.00697634643            0.000785743307           
       3.164497             0.00711727557            0.000833886983           
       3.167138             0.00852795982            0.000943139195           
       3.169778             0.00613408489            0.000786694847           
       3.172418             0.00591701418            0.000764790741           
       3.175059             0.00643108182            0.000706859033           
       3.177699             0.00583400937            0.000712927729           
       3.180339             0.00599712139            0.000774451297           
       3.182980             0.00597800152            0.000799426535           
       3.185620              0.0056513874            0.000791594598           
       3.188261              0.0045909981            0.000726207359           
       3.190901             0.00562844014            0.000739523391           
       3.193541               0.005890245            0.000794927676           
       3.196182             0.00442128623             0.00071773274           
       3.198822             0.00570033205            0.000815237333           
       3.201463             0.00696568958            0.000885663104           
       3.204103             0.00612234335            0.000825267923           
       3.206743             0.00477979089            0.000729121337           
       3.209384             0.00518349457             0.00082034613           
       3.212024              0.0053126082            0.000774286593           
       3.214664             0.00451354996            0.000811562283           
       3.217305             0.00644656968            0.000921957172           
       3.219945             0.00543834583            0.000871573696           
       3.222586             0.00430080247             0.00073824899           
       3.225226              0.0068533946             0.00103382567           
       3.227866             0.00674896955            0.000937679885           
       3.230507             0.00683338062            0.000978067286           
       3.233147             0.00626344082            0.000943952627           
       3.235787             0.00444981836            0.000814234831           
       3.238428             0.00572805692            0.000996906835           
       3.241068             0.00482167094            0.000855232873           
       3.243709             0.00583351962            0.000971892095           
       3.246349             0.00512424976            0.000830364851           
       3.248989             0.00597679445              0.0010589025           
       3.251630             0.00486131407             0.00091962896           
       3.254270             0.00444195607            0.000785649252           
       3.256911             0.00577811422            0.000977695367           
       3.259551              0.0051711059            0.000995754377           
       3.262191              0.0061783174             0.00111176437           
       3.264832             0.00655615841             0.00119662036           
       3.267472             0.00555981194             0.00103374718           
       3.270112             0.00633001113             0.00121898646           
       3.272753             0.00649058029             0.00112983024           
       3.275393             0.00716694638             0.00121139837           
       3.278034             0.00264057424            0.000735721652           
       3.280674              0.0045875102             0.00105229663           
       3.283314             0.00578376872             0.00105673169           
       3.285955             0.00597412887             0.00110811249           
       3.288595             0.00357328044            0.000953443025           
       3.291235             0.00374032757             0.00100277966           
       3.293876             0.00634803174             0.00132515476           
       3.296516             0.00686171523             0.00132264953           
       3.299157             0.00447892412             0.00105517318           
       3.301797             0.00709362249             0.00151473473           
       3.304437             0.00461712507             0.00105875932           
       3.307078             0.00468550745             0.00117489358           
       3.309718             0.00529471186              0.0012891299           
       3.312359             0.00565813233             0.00133295417           
       3.314999              0.0051796305             0.00125568262           
       3.317639             0.00809231306             0.00150105293           
       3.320280             0.00469242487             0.00121527875           
       3.322920              0.0055258379             0.00134098856           
       3.325560             0.00518114645             0.00129937315           
       3.328201             0.00444141615             0.00108348656           
       3.330841             0.00426383816             0.00129204024           
       3.333482             0.00596514307             0.00144451952           
       3.336122             0.00453629032             0.00126026825           
       3.338762             0.00185437396            0.000930789444           
       3.341403             0.00212520812            0.000952143483           
       3.344043             0.00587021474             0.00151927783           
       3.346683             0.00408628566             0.00129409344           
       3.349324              0.0036247951             0.00137036553           
       3.351964             0.00402820682             0.00152762104           
       3.354605             0.00531771604             0.00200731965           
       3.357245             0.00553518263             0.00184747129           
       3.359885              0.0055311981              0.0014781105           
       3.362526             0.00608171125              0.0019382439           
       3.365166             0.00660207342             0.00190474365           
       3.367807              0.0035824405             0.00179567136           
       3.370447             0.00552552046             0.00184989714           
       3.373087             0.00779567971             0.00234971525           
       3.375728             0.00358956992             0.00179948686           
       3.378368             0.00800251228             0.00398759043           
       3.381008             0.00438417512             0.00220049027           
       3.383649              0.0028513834             0.00142359933           
       3.386289             0.00896522874             0.00298759136           
       3.388930             0.00249948926             0.00249522355           
       3.391570             0.00374970998             0.00216194753           
       3.394210            -2.6662998e-05                         0           
       3.396851           -2.66898763e-05                         0           
       3.399491             0.00744925576             0.00431487887           
       3.402131             0.00486699657              0.0049344548           
       3.404772             0.00976668079             0.00988785137           
       3.407412                       nan                       nan           
       3.410053            -2.6805977e-05                         0           
       3.412693                       nan                       nan           
       3.415333           -2.68572027e-05                         0           
