################################################################################
# EDF_DataBlockID                     0.Image.Psd
# EDF_BinarySize                      4366944
# EDF_HeaderSize                      2560
# ByteOrder                           LowByteFirst
# DataType                            FloatValue
# Dim_1                               1028
# Dim_2                               1062
# Image                               0
# HeaderID                            EH:000000:000000:000000
# Size                                4366944
# Center_1                            607.5200
# Center_2                            651.5500
# Comment                             Xenocs_Cell_Window - 20251028_20perc_iodine_1.23mg
# DDummy                              0.6
# Date                                2025-10-31T01:19:26
# Delta                               0
# Dummy                               -1.5
# ExposureTime                        360
# Gamma                               0
# Intensity1                          8.56094e-10
# PSize_1                             7.5e-05
# PSize_2                             7.5e-05
# Pressure                            0.0328093
# SampleDistance                      0.450002
# SampleEnvKind                       large
# SampleEnvPN                         ElectroChemical cell
# SampleEnvSN                         1141
# Thickness                           0
# Wavelength                          1.541891e-10
# Wavelength                          1.54189e-10
# aux                                 0
# aux_dial                            0.002375
# beamx                               588.434
# beamx_dial                          588.434
# beamz                               657.808
# beamz_dial                          657.808
# det0x                               0
# det0x_dial                          6.36945
# det0xvd                             0
# det0xvd_dial                        0
# det0y                               450.002
# det0y_dial                          481.635
# det0z                               0
# det0z_dial                          1.23302
# det0zvd                             0
# det0zvd_dial                        0
# mag                                 1.818
# mag_dial                            1.818
# om                                  0.2499
# om_dial                             -0.610199
# phi                                 -0.0120535
# phi_dial                            0
# ry                                  0.599993
# ry_dial                             0.599993
# s1bot                               0.8
# s1bot_dial                          -1.66094
# s1hl                                0.8
# s1hl_dial                           -0.608437
# s1hr                                0.8
# s1hr_dial                           0.970938
# s1top                               0.8
# s1top_dial                          -0.461562
# s2bot                               0.45
# s2bot_dial                          1.36109
# s2hl                                0.45
# s2hl_dial                           -0.83375
# s2hr                                0.45
# s2hr_dial                           -0.118594
# s2top                               0.45
# s2top_dial                          1.44734
# w2theta                             32
# w2theta_dial                        32
# waxsch                              19.2605
# waxsch_dial                         -32.7355
# waxsh                               137.085
# waxsh_dial                          -43.5338
# waxsth                              26.0607
# waxsth_dial                         -19.4086
# waxsz                               67.0407
# waxsz_dial                          -23.7954
# wind                                65.9854
# wind_dial                           66.0041
# wpsi                                124
# wpsi_dial                           124
# wstod                               115
# wstod_dial                          115
# x                                   0
# x_dial                              1.00969
# z                                   0
# z_dial                              13.3172
# CountCutoff                         15302352
# DetectorModel                       Dectris EIGER2 Si 1M, S/N E-02-0362
# ThresholdSetting                    4023.88989258
# Saturation                          0
# FlatField                           Corrected
# BackgroundReductionExtra            0.02
# BackgroundCorrectionConstant        0.0026712
# Detector                            0
# Monitor                             0
# Pil_Roi0                            0
# SumForIntensity1                    3.08194e+08
# TransmittedFlux                     856094
# det                                 0
# mon                                 0
# pilai0                              3.08194e+08
# pilai1                              773783
# pilct0                              5.33629e+08
# pilct1                              773783
# pilroi0                             0
# pilroi1                             0
# sec                                 1
# title                               20251028_20perc_iodine_1.23mg_0_00536.edf
# usaxs0                              0
# Operation                           Azimuthal average I(q)
# Error_model                         ErrorModel.poisson
# Geometrical_correction              True
# Transmission_correction             True
# Thickness_correction                False
# Binning mode                        Uniform
# Binning factor                      1.0
# Psi                                 0.0
# Omega                               0.2499
# MaskInvalidPixels                   True
# DetectorEdge                        3
# MaskFiles                           ['20251028_20perc_iodine_1.23mg_0_00012_mask.edf']
################################################################################
    q(A⁻¹)                Intensity(a.u.)            Sigma_I(a.u.)            
       0.000340                 372844.04                120.488108           
       0.001019                359752.263                 72.476631           
       0.001698                349968.652                50.5470529           
       0.002377                330768.724                43.9530008           
       0.003056                308057.796                35.8491173           
       0.003735                253365.531                 28.672396           
       0.004415                204779.555                25.7770742           
       0.005094                153083.571                19.3012471           
       0.005773                101132.561                14.5242373           
       0.006452                58906.4502                10.6208316           
       0.007131                32363.6639                7.62630828           
       0.007810                16231.4748                5.35981016           
       0.008490                 8133.3658                3.36308707           
       0.009169                3926.82498                2.30948099           
       0.009848                1205.38444                1.23712043           
       0.010527                467.648685               0.770565054           
       0.011206                117.117099               0.368038382           
       0.011885                53.9132753               0.232005823           
       0.012564                25.2352957               0.162962243           
       0.013244                17.2532221               0.125973117           
       0.013923                12.3190117               0.108163409           
       0.014602                9.34221474               0.087357919           
       0.015281                7.54008546              0.0798903576           
       0.015960                6.24495834              0.0721849952           
       0.016639                4.92295043               0.060521476           
       0.017319                4.13643856              0.0546138566           
       0.017998                3.41537309              0.0474766423           
       0.018677                2.92787939              0.0455284286           
       0.019356                2.59851981              0.0423807063           
       0.020035                2.07844684              0.0355605028           
       0.020714                1.91365411              0.0344827893           
       0.021394                1.63518056              0.0301594472           
       0.022073                1.45268382              0.0295757271           
       0.022752                1.25144301              0.0262596506           
       0.023431                1.08247775              0.0237066501           
       0.024110                1.00812134              0.0238519458           
       0.024789               0.882582809              0.0207264699           
       0.025469               0.820948346              0.0205995434           
       0.026148               0.724038449              0.0181767163           
       0.026827               0.667891465              0.0177370921           
       0.027506               0.628802133              0.0174584026           
       0.028185               0.575109565              0.0159224213           
       0.028864               0.501388145              0.0147834962           
       0.029544               0.495787687              0.0142555427           
       0.030223               0.426337147              0.0134089825           
       0.030902               0.421688986              0.0134577233           
       0.031581               0.390580727              0.0123121216           
       0.032260               0.365595738              0.0121147836           
       0.032939               0.308382804              0.0107284102           
       0.033619               0.302612379              0.0107837522           
       0.034298               0.262059111             0.00976587969           
       0.034977               0.258048103             0.00950040875           
       0.035656               0.244214016             0.00948684473           
       0.036335               0.225507369             0.00884163311           
       0.037014               0.201435904             0.00838135193           
       0.037693               0.189953691             0.00782958296           
       0.038373                0.17295634             0.00754439013           
       0.039052               0.176649873              0.0076569609           
       0.039731               0.163513119             0.00719507372           
       0.040410               0.148195666             0.00680385662           
       0.041089               0.153475338             0.00681553486           
       0.041768               0.147715239             0.00672134777           
       0.042448               0.136755857             0.00641702336           
       0.043127               0.138378591              0.0063025297           
       0.043806               0.129939778             0.00615286935           
       0.044485               0.123811669             0.00588264504           
       0.045164               0.118573657             0.00587032648           
       0.045843               0.111451947             0.00545865322           
       0.046523                0.11041532             0.00545196976           
       0.047202               0.102907022             0.00530011756           
       0.047881              0.0981516353             0.00507638907           
       0.048560              0.0960797668             0.00506830403           
       0.049239              0.0971430561             0.00489334047           
       0.049918              0.0873785431             0.00473162189           
       0.050598               0.089953729             0.00472881205           
       0.051277              0.0856906922              0.0046007539           
       0.051956              0.0812424274             0.00445161718           
       0.052635              0.0821218173             0.00438066258           
       0.053314              0.0818643704             0.00450166723           
       0.053993              0.0835780137             0.00442378573           
       0.054673               0.076099686             0.00412720442           
       0.055352              0.0766062614             0.00420174253           
       0.056031              0.0750163784             0.00407054895           
       0.056710              0.0739016376             0.00413919628           
       0.057389              0.0680384294             0.00382986326           
       0.058068              0.0683651851             0.00387862294           
       0.058748              0.0717356715             0.00402264383           
       0.059427              0.0686226594             0.00386778047           
       0.060106              0.0661428135             0.00383319123           
       0.060785              0.0643059424             0.00366634477           
       0.061464              0.0674561973             0.00384558676           
       0.062143              0.0607246035             0.00361160142           
       0.062822              0.0620996827              0.0036094055           
       0.063502              0.0556207715             0.00340983118           
       0.064181              0.0632404699             0.00359750561           
       0.064860                0.05186631             0.00330758866           
       0.065539              0.0517132225             0.00327040839           
       0.066218              0.0529971769              0.0032398696           
       0.066897              0.0471376471             0.00307910744           
       0.067577              0.0492308439             0.00317696168           
       0.068256              0.0468458474             0.00317517896           
       0.068935              0.0487377507             0.00318629299           
       0.069614              0.0456754155             0.00311527335           
       0.070293              0.0443907999             0.00309947197           
       0.070972              0.0465521166             0.00315078961           
       0.071652              0.0434813741             0.00305068369           
       0.072331              0.0441878224             0.00302055602           
       0.073010              0.0447624746             0.00310959742           
       0.073689              0.0389776329             0.00288577033           
       0.074368              0.0400115184             0.00291847508           
       0.075047              0.0438011306             0.00302073673           
       0.075727              0.0448305337             0.00303715156           
       0.076406              0.0407250705             0.00295250269           
       0.077085              0.0392052605             0.00284274809           
       0.077764              0.0393669966             0.00283862416           
       0.078443              0.0381411988             0.00281137977           
       0.079122              0.0370199115             0.00274313857           
       0.079802              0.0346801498             0.00268319579           
       0.080481              0.0360770403             0.00264438705           
       0.081160              0.0398099706             0.00283483015           
       0.081839              0.0400862475             0.00279910815           
       0.082518              0.0340944195             0.00258362354           
       0.083197              0.0343537572             0.00255313466           
       0.083876              0.0348952559             0.00253042046           
       0.084556              0.0306881027             0.00243897769           
       0.085235              0.0365725221             0.00261112343           
       0.085914              0.0306510764             0.00241363332           
       0.086593              0.0323135608             0.00246227556           
       0.087272              0.0333863008             0.00246743505           
       0.087951              0.0323114674             0.00248222431           
       0.088631              0.0327359161             0.00241337524           
       0.089310              0.0310096092             0.00239869789           
       0.089989               0.032444148             0.00242486971           
       0.090668              0.0353801676             0.00256016367           
       0.091347              0.0297964051             0.00236262333           
       0.092026               0.029402497             0.00224330885           
       0.092706              0.0272434375             0.00223775333           
       0.093385              0.0276052476             0.00221797265           
       0.094064               0.031784811             0.00240766222           
       0.094743               0.028170655             0.00223210698           
       0.095422              0.0312439755             0.00232450035           
       0.096101              0.0290431906             0.00228729508           
       0.096781              0.0301432256             0.00229684432           
       0.097460              0.0222767017             0.00192066049           
       0.098139              0.0286497677             0.00216137983           
       0.098818              0.0275579757             0.00209369166           
       0.099497              0.0315324221             0.00224418415           
       0.100176              0.0289908297             0.00209536507           
       0.100856              0.0291288923             0.00209900261           
       0.101535              0.0282132018             0.00206176316           
       0.102214              0.0297580891             0.00211747259           
       0.102893              0.0321684744             0.00217647579           
       0.103572              0.0265133869              0.0019467383           
       0.104251              0.0273914162              0.0019860201           
       0.104931              0.0267261706             0.00194389507           
       0.105610              0.0259861709             0.00192497111           
       0.106289              0.0253937679              0.0018712356           
       0.106968              0.0251689415             0.00186846236           
       0.107647              0.0258729434             0.00189555057           
       0.108326               0.024092004              0.0018046782           
       0.109005              0.0239475938              0.0017879409           
       0.109685              0.0264993802             0.00185969223           
       0.110364              0.0243570066             0.00180318408           
       0.111043              0.0242959964             0.00179378378           
       0.111722              0.0234238839             0.00173976747           
       0.112401              0.0213012213             0.00166368091           
       0.113080              0.0209600739             0.00163139322           
       0.113760              0.0228690451             0.00173252793           
       0.114439               0.024868122             0.00178088112           
       0.115118              0.0238905054             0.00173236344           
       0.115797              0.0253721566             0.00180181358           
       0.116476              0.0239724865             0.00172519601           
       0.117155              0.0197191843             0.00157730282           
       0.117835              0.0253494591             0.00175280787           
       0.118514               0.021150046              0.0016213532           
       0.119193              0.0213606927             0.00162941899           
       0.119872              0.0219622979              0.0016315422           
       0.120551              0.0208276808             0.00157825555           
       0.121230              0.0238887556             0.00167325084           
       0.121910              0.0263771842             0.00177523434           
       0.122589              0.0229651942             0.00165815004           
       0.123268              0.0231044608             0.00163094898           
       0.123947              0.0201723317              0.0015338052           
       0.124626              0.0208087823             0.00153876645           
       0.125305              0.0226244862             0.00161237012           
       0.125985               0.022393243             0.00159166195           
       0.126664              0.0215293803              0.0015457934           
       0.127343              0.0220166884             0.00158130909           
       0.128022              0.0229101449             0.00160070319           
       0.128701              0.0216230913             0.00154699014           
       0.129380              0.0211256087             0.00150993964           
       0.130059              0.0227582009             0.00157083782           
       0.130739              0.0245899913             0.00164431479           
       0.131418              0.0210652168             0.00151764824           
       0.132097              0.0210505807             0.00149766414           
       0.132776              0.0230166328             0.00155897138           
       0.133455              0.0204545048             0.00148106048           
       0.134134              0.0192890757              0.0014336686           
       0.134814              0.0210513787             0.00148229715           
       0.135493              0.0215457181               0.001505669           
       0.136172              0.0206960656             0.00146454241           
       0.136851              0.0220145182             0.00151925665           
       0.137530              0.0206661501             0.00143702287           
       0.138209              0.0222234981             0.00150768025           
       0.138889              0.0196811978             0.00142507909           
       0.139568              0.0224235278             0.00152046853           
       0.140247              0.0182615472             0.00137032866           
       0.140926              0.0181145862             0.00132577991           
       0.141605              0.0209950531             0.00146356313           
       0.142284               0.019299916             0.00137998329           
       0.142964              0.0193508787             0.00138708917           
       0.143643              0.0195970386             0.00139412041           
       0.144322              0.0210722608             0.00141539108           
       0.145001              0.0178720975             0.00133024853           
       0.145680              0.0202292771             0.00138177386           
       0.146359              0.0203911954             0.00139236749           
       0.147039               0.019936612              0.0013880946           
       0.147718              0.0189354733             0.00133047062           
       0.148397               0.020694584             0.00141251253           
       0.149076               0.015693698             0.00119190233           
       0.149755              0.0180545247              0.0012981521           
       0.150434              0.0155632237             0.00120575633           
       0.151114              0.0214447629             0.00140754278           
       0.151793              0.0159524343             0.00121399943           
       0.152472              0.0190047765             0.00130165651           
       0.153151              0.0197430715             0.00133952524           
       0.153830              0.0220539183             0.00140543464           
       0.154509              0.0181539156             0.00126980528           
       0.155188              0.0186626156             0.00128699742           
       0.155868              0.0187434711             0.00128060414           
       0.156547              0.0188191464              0.0012914293           
       0.157226              0.0169274112             0.00119488696           
       0.157905              0.0181776046             0.00124862645           
       0.158584              0.0170977844             0.00120877205           
       0.159263              0.0180756077             0.00124742942           
       0.159943              0.0163114343             0.00118587629           
       0.160622              0.0173351193              0.0011989292           
       0.161301              0.0171165867             0.00120728277           
       0.161980              0.0197490714             0.00127475577           
       0.162659              0.0156574355             0.00114762798           
       0.163338              0.0173183032             0.00119712422           
       0.164018               0.016216798             0.00115234806           
       0.164697              0.0187307753             0.00125435362           
       0.165376              0.0173402287             0.00118052593           
       0.166055              0.0183840379             0.00122355459           
       0.166734              0.0171926257             0.00117794278           
       0.167413              0.0185820695             0.00122547398           
       0.168093              0.0196951775             0.00127357881           
       0.168772              0.0176959191             0.00117190421           
       0.169451              0.0189411344               0.001234742           
       0.170130               0.017918937             0.00118519574           
       0.170809              0.0174191845             0.00118249701           
       0.171488                0.01566917             0.00111130153           
       0.172168              0.0158957655             0.00110855518           
       0.172847              0.0164207381             0.00114151247           
       0.173526              0.0178604264             0.00116779161           
       0.174205              0.0175399474             0.00116259685           
       0.174884              0.0169082436             0.00113552088           
       0.175563              0.0164466442             0.00112469522           
       0.176243              0.0163845339             0.00113380386           
       0.176922              0.0178482716             0.00115252723           
       0.177601              0.0158832052             0.00109918034           
       0.178280              0.0151626637             0.00106197057           
       0.178959              0.0179639931             0.00116521312           
       0.179638              0.0169002268             0.00112693211           
       0.180317              0.0165635862             0.00110752432           
       0.180997              0.0159279533             0.00109196058           
       0.181676               0.016971258              0.0011151204           
       0.182355              0.0160101244             0.00108958881           
       0.183034               0.015453316             0.00105329373           
       0.183713               0.017257516             0.00112663929           
       0.184392              0.0181934149             0.00115643564           
       0.185072              0.0145354462             0.00102188172           
       0.185751              0.0162957905             0.00108500234           
       0.186430              0.0177695259             0.00112506691           
       0.187109              0.0169120385             0.00110980918           
       0.187788              0.0165448212             0.00109498798           
       0.188467              0.0168617475             0.00109234408           
       0.189147              0.0174370061             0.00112207032           
       0.189826              0.0173651497              0.0010999545           
       0.190505              0.0148660622             0.00103448525           
       0.191184              0.0158999464             0.00105443409           
       0.191863              0.0155484529             0.00104491066           
       0.192542              0.0152644836             0.00104508819           
       0.193222              0.0172570703             0.00108630577           
       0.193901              0.0171636002             0.00109788078           
       0.194580              0.0171464742             0.00107813782           
       0.195259              0.0168669286             0.00108159392           
       0.195938              0.0159132692             0.00105308026           
       0.196617              0.0167720058             0.00106602997           
       0.197297              0.0151368948             0.00101686893           
       0.197976               0.015251357             0.00100502791           
       0.198655              0.0149108586             0.00100460007           
       0.199334              0.0160262987             0.00103231347           
       0.200013              0.0161445097             0.00103553919           
       0.200692              0.0153960664             0.00101733373           
       0.201371              0.0144047094            0.000972953218           
       0.202051              0.0164064278              0.0010415861           
       0.202730              0.0154166159            0.000999592974           
       0.203409              0.0160335503             0.00102624043           
       0.204088              0.0181023411             0.00108923355           
       0.204767              0.0155614247             0.00100459197           
       0.205446              0.0162633441             0.00102900569           
       0.206126              0.0162776595              0.0010154721           
       0.206805              0.0148406991            0.000987390148           
       0.207484              0.0162077998             0.00101331636           
       0.208163               0.015514424            0.000997361857           
       0.208842              0.0155602696            0.000996127722           
       0.209521              0.0156795483            0.000991628263           
       0.210201              0.0169973823             0.00104398122           
       0.210880              0.0160073409            0.000993240364           
       0.211559              0.0139084551            0.000939524859           
       0.212238              0.0145130798            0.000954845414           
       0.212917              0.0165023498             0.00101440078           
       0.213596              0.0145454494            0.000957989212           
       0.214276              0.0151784363            0.000958224121           
       0.214955               0.014498466            0.000956208974           
       0.215634               0.015154288            0.000970589946           
       0.216313              0.0142138257            0.000938016765           
       0.216992              0.0170431683             0.00102688426           
       0.217671              0.0161693393            0.000993437938           
       0.218351              0.0146127844            0.000953647602           
       0.219030              0.0150340073            0.000952026223           
       0.219709              0.0151056198            0.000960243589           
       0.220388              0.0167134808             0.00100875874           
       0.221067              0.0149305616             0.00095419273           
       0.221746              0.0156801938             0.00097685174           
       0.222426              0.0166211908            0.000990705415           
       0.223105              0.0149170378            0.000951330527           
       0.223784               0.015613344            0.000963626535           
       0.224463               0.014057102            0.000921623536           
       0.225142              0.0135473894             0.00089044459           
       0.225821              0.0149162105            0.000938110911           
       0.226500              0.0144272388            0.000928472835           
       0.227180              0.0140040374             0.00090066086           
       0.227859               0.014180684            0.000910389425           
       0.228538              0.0144564773            0.000909969535           
       0.229217              0.0146812986            0.000924276642           
       0.229896              0.0143905538            0.000914638263           
       0.230575               0.015833142            0.000944094449           
       0.231255              0.0159663597            0.000962251948           
       0.231934              0.0142671053            0.000903392565           
       0.232613              0.0145508207            0.000915696735           
       0.233292              0.0148180321            0.000915138227           
       0.233971              0.0149189039            0.000917819258           
       0.234650              0.0149334346            0.000929067138           
       0.235330              0.0155307149            0.000939190984           
       0.236009              0.0154415924            0.000934473719           
       0.236688              0.0130912225            0.000857342097           
       0.237367              0.0140369654            0.000889059812           
       0.238046              0.0140691551            0.000896346994           
       0.238725              0.0135750355            0.000866882435           
       0.239405              0.0163747133            0.000957990718           
       0.240084              0.0153236513            0.000920833942           
       0.240763              0.0147025417            0.000910615656           
       0.241442              0.0141485976            0.000880709479           
       0.242121              0.0148034995            0.000902562263           
       0.242800              0.0141182366            0.000885597515           
       0.243480              0.0149718076            0.000907705598           
       0.244159               0.014767055             0.00090191359           
       0.244838              0.0151689091            0.000899061806           
       0.245517              0.0138206068            0.000870519634           
       0.246196              0.0150244882            0.000908080224           
       0.246875              0.0138113467            0.000858510914           
       0.247554              0.0162755479            0.000941428124           
       0.248234              0.0144148794            0.000872547681           
       0.248913              0.0156662893            0.000919837567           
       0.249592              0.0148258199            0.000886320639           
       0.250271              0.0146998544            0.000879984693           
       0.250950               0.014076964            0.000866413026           
       0.251629              0.0131496893            0.000830273551           
       0.252309              0.0135256264            0.000843767294           
       0.252988               0.013766012             0.00083656939           
       0.253667              0.0148676558            0.000879556951           
       0.254346              0.0135109732            0.000838294564           
       0.255025              0.0149427139            0.000879661711           
       0.255704              0.0119771935            0.000783943578           
       0.256384              0.0125620041            0.000800076801           
       0.257063              0.0130206789            0.000819196529           
       0.257742              0.0137500416            0.000835994986           
       0.258421              0.0140037642            0.000842048872           
       0.259100              0.0146614201            0.000863096998           
       0.259779              0.0123571824            0.000791704308           
       0.260459              0.0139797374            0.000843732566           
       0.261138              0.0135126863            0.000813307905           
       0.261817               0.013879396            0.000840908463           
       0.262496              0.0134136163            0.000818570664           
       0.263175              0.0119633904            0.000774715391           
       0.263854              0.0133470244            0.000814488342           
       0.264534              0.0131634656             0.00080195984           
       0.265213              0.0129884485             0.00080916436           
       0.265892              0.0126391281            0.000787982616           
       0.266571              0.0128749513            0.000793491227           
       0.267250              0.0129067731            0.000795809565           
       0.267929              0.0132362733            0.000805077396           
       0.268609               0.012243324            0.000778530888           
       0.269288              0.0131811383            0.000794378426           
       0.269967              0.0125387331            0.000783126632           
       0.270646              0.0120376265            0.000764001407           
       0.271325              0.0126673311            0.000785038631           
       0.272004              0.0121689339            0.000761769903           
       0.272683              0.0121444878            0.000761944665           
       0.273363              0.0116806477            0.000752018242           
       0.274042              0.0131238144            0.000792419304           
       0.274721               0.010706725            0.000715312428           
       0.275400              0.0120774793            0.000754693412           
       0.276079              0.0120075039            0.000756776825           
       0.276758              0.0122821807            0.000775042519           
       0.277438               0.011373167            0.000737438648           
       0.278117              0.0124114161            0.000784371812           
       0.278796              0.0128800247            0.000790931553           
       0.279475              0.0115809764            0.000762375336           
       0.280154              0.0112350711            0.000740102352           
       0.280833              0.0114580189            0.000751954759           
       0.281513              0.0132738313            0.000822045197           
       0.282192               0.011909727            0.000765376835           
       0.282871              0.0115090781            0.000757650448           
       0.283550             0.00953436946             0.00069329131           
       0.284229              0.0103548917            0.000733119564           
       0.284908              0.0107072751            0.000753352675           
       0.285588               0.011576546            0.000774163554           
       0.286267              0.0114309294             0.00078159671           
       0.286946              0.0113352298            0.000773256622           
       0.287625              0.0117835291            0.000801823039           
       0.288304              0.0107078744            0.000754119858           
       0.288983              0.0112551484            0.000782941969           
       0.289663              0.0111995041            0.000785575276           
       0.290342              0.0110088075            0.000774712495           
       0.291021               0.010629424            0.000765347666           
       0.291700              0.0111585312            0.000773920924           
       0.292379              0.0106186102             0.00077225088           
       0.293058              0.0102021382            0.000754095934           
       0.293738             0.00898256881            0.000701647404           
       0.294417              0.0100409397            0.000750454922           
       0.295096              0.0102418373            0.000749593129           
       0.295775              0.0110843658             0.00079172521           
       0.296454              0.0102456918              0.0007513386           
       0.297133             0.00979378131            0.000738057261           
       0.297812              0.0105092745            0.000768376338           
       0.298492              0.0101223795            0.000755556958           
       0.299171             0.00911321946            0.000715549027           
       0.299850             0.00991874739            0.000741406012           
       0.300529             0.00738510318            0.000646950008           
       0.301208              0.0101389618            0.000759879449           
       0.301887             0.00961602065            0.000739144347           
       0.302567              0.0102976098             0.00076106056           
       0.303246              0.0101979159            0.000762312293           
       0.303925             0.00931115295            0.000737767777           
       0.304604             0.00841639183            0.000686278726           
       0.305283             0.00888813406            0.000715709306           
       0.305962              0.0089465116            0.000713717976           
       0.306642             0.00928062557            0.000736795649           
       0.307321             0.00925761836            0.000733531988           
       0.308000              0.0106260613            0.000776563595           
       0.308679             0.00873980241            0.000719525511           
       0.309358             0.00797283149              0.0006779331           
       0.310037             0.00894099608            0.000719515336           
       0.310717             0.00898680395             0.00072066212           
       0.311396             0.00928491714            0.000737430359           
       0.312075             0.00947638629            0.000754442428           
       0.312754             0.00936340366            0.000734928721           
       0.313433             0.00918409046            0.000734187835           
       0.314112             0.00764567095            0.000669726076           
       0.314792             0.00861119734            0.000715776222           
       0.315471             0.00803078533            0.000682684857           
       0.316150              0.0100033098            0.000768978125           
       0.316829             0.00762132821            0.000675640887           
       0.317508             0.00821500608            0.000693591364           
       0.318187             0.00832439879            0.000707404414           
       0.318866             0.00780050832            0.000675557931           
       0.319546             0.00967582023            0.000763671673           
       0.320225             0.00835329195            0.000709577942           
       0.320904             0.00929841104            0.000737068918           
       0.321583             0.00754632331            0.000678636275           
       0.322262             0.00695686419            0.000641717075           
       0.322941             0.00895409964             0.00073735475           
       0.323621             0.00740317518            0.000666370892           
       0.324300             0.00766752058            0.000678695135           
       0.324979             0.00738706478            0.000667371505           
       0.325658             0.00748137383            0.000672836515           
       0.326337             0.00846110483            0.000716471489           
       0.327016             0.00722176262            0.000657719949           
       0.327696             0.00836748204            0.000715847088           
       0.328375             0.00942485624            0.000753320781           
       0.329054             0.00887747399             0.00073508305           
       0.329733             0.00795808217            0.000698520334           
       0.330412             0.00847798993            0.000715069443           
       0.331091             0.00718804081            0.000670369594           
       0.331771             0.00732938403            0.000659190725           
       0.332450             0.00693438361            0.000653630621           
       0.333129              0.0067109647            0.000641355523           
       0.333808             0.00771046042            0.000688367166           
       0.334487             0.00792245421            0.000701074422           
       0.335166             0.00660066301            0.000630557996           
       0.335846              0.0063501553             0.00062934544           
       0.336525             0.00817699534            0.000707106242           
       0.337204             0.00784983919            0.000694632739           
       0.337883             0.00657896174            0.000636764501           
       0.338562             0.00734934886             0.00067674955           
       0.339241              0.0062419679            0.000624852263           
       0.339921             0.00706200985            0.000653485423           
       0.340600             0.00601030049            0.000614313361           
       0.341279             0.00599930666            0.000607179022           
       0.341958             0.00681334021            0.000656191487           
       0.342637              0.0072904432            0.000669188426           
       0.343316             0.00640936265            0.000629266261           
       0.343995             0.00521841233            0.000577098351           
       0.344675             0.00594827871            0.000604812414           
       0.345354             0.00640657153            0.000631819728           
       0.346033             0.00655971102            0.000637659902           
       0.346712             0.00677025148            0.000651945815           
       0.347391             0.00711816146            0.000672626213           
       0.348070             0.00517877188            0.000565576594           
       0.348750             0.00591491521             0.00061317258           
       0.349429             0.00673283817            0.000645749958           
       0.350108             0.00615851037            0.000625025891           
       0.350787             0.00668410152            0.000640088656           
       0.351466             0.00698200387            0.000666248255           
       0.352145             0.00668675199            0.000652550144           
       0.352825             0.00618466477             0.00062473055           
       0.353504             0.00597478756            0.000613888329           
       0.354183             0.00540229005            0.000577011531           
       0.354862             0.00613586488            0.000629230571           
       0.355541             0.00720886081            0.000673100544           
       0.356220             0.00472883787            0.000546189564           
       0.356900             0.00521571461              0.0005790669           
       0.357579             0.00568989164            0.000597400574           
       0.358258             0.00535780406            0.000587727262           
       0.358937             0.00613121388            0.000616897528           
       0.359616             0.00535907436            0.000584799984           
       0.360295             0.00613373752            0.000626161989           
       0.360975              0.0059445319            0.000613792506           
       0.361654             0.00594339754            0.000616898043           
       0.362333             0.00544382511            0.000587400302           
       0.363012              0.0047477112            0.000555618064           
       0.363691             0.00578910332            0.000601431229           
       0.364370             0.00423275932            0.000520650906           
       0.365050             0.00506895897            0.000566714161           
       0.365729             0.00535612505            0.000588100327           
       0.366408             0.00648914496             0.00064875446           
       0.367087             0.00596141477             0.00061184198           
       0.367766             0.00439293834             0.00053616453           
       0.368445             0.00530028048            0.000578482157           
       0.369124             0.00487505731            0.000559150559           
       0.369804             0.00518174452            0.000575547837           
       0.370483             0.00510020096            0.000573499627           
       0.371162              0.0055512607            0.000601791352           
       0.371841             0.00484323188            0.000552304795           
       0.372520             0.00413814657            0.000520754806           
       0.373199             0.00452276179             0.00053791331           
       0.373879             0.00459047459            0.000548199381           
       0.374558             0.00431395578             0.00052367703           
       0.375237             0.00502722265            0.000566240703           
       0.375916             0.00524165861            0.000589267699           
       0.376595             0.00445665964            0.000532734565           
       0.377274              0.0043554053            0.000535078022           
       0.377954             0.00445126578            0.000532436837           
       0.378633             0.00471433135            0.000554868776           
       0.379312             0.00469281016            0.000553461066           
       0.379991             0.00471737211            0.000552035476           
       0.380670             0.00395608687            0.000514468541           
       0.381349             0.00442386873            0.000536223798           
       0.382029             0.00408327681            0.000522550064           
       0.382708             0.00447852835            0.000535306143           
       0.383387             0.00551156636             0.00060730146           
       0.384066             0.00473362832            0.000557648652           
       0.384745             0.00470587367            0.000558197143           
       0.385424             0.00560028367            0.000611005385           
       0.386104              0.0041773134             0.00052187014           
       0.386783             0.00342429462            0.000482717526           
       0.387462             0.00458422856            0.000544628145           
       0.388141             0.00462054156            0.000555513984           
       0.388820             0.00369635278            0.000493269747           
       0.389499             0.00361640589              0.0004906529           
       0.390178             0.00417229782            0.000529114247           
       0.390858             0.00350632855              0.0004811269           
       0.391537             0.00413642471            0.000527907847           
       0.392216             0.00460099985            0.000549786075           
       0.392895             0.00437061325            0.000537649745           
       0.393574             0.00363223147            0.000488919282           
       0.394253             0.00412657837            0.000523473676           
       0.394933             0.00490060915            0.000576978295           
       0.395612             0.00416504194            0.000516466486           
       0.396291             0.00428245721            0.000534357411           
       0.396970             0.00498286599            0.000571294396           
       0.397649             0.00416152494            0.000523698929           
       0.398328             0.00463900727            0.000550496802           
       0.399008             0.00415647827            0.000519948297           
       0.399687             0.00413298966            0.000520493419           
       0.400366             0.00351383324            0.000478089697           
       0.401045             0.00440516057            0.000534290905           
       0.401724             0.00377165028            0.000495207183           
       0.402403             0.00482630288            0.000564547272           
       0.403083             0.00461425042            0.000544046037           
       0.403762              0.0043411209            0.000530300852           
       0.404441             0.00460006711            0.000549364676           
       0.405120             0.00352671196            0.000479443174           
       0.405799             0.00420493677             0.00052124399           
       0.406478             0.00401008472            0.000509036597           
       0.407158             0.00334237393            0.000463856787           
       0.407837             0.00353333921            0.000481133386           
       0.408516             0.00416457591            0.000517801825           
       0.409195             0.00471926805             0.00055746087           
       0.409874             0.00372184566            0.000501946041           
       0.410553              0.0025681017            0.000421434308           
       0.411233             0.00342219278            0.000483971554           
       0.411912             0.00213131038             0.00038734802           
       0.412591             0.00352492315            0.000501438449           
       0.413270             0.00320289314            0.000475713931           
       0.413949             0.00329401364             0.00048770253           
       0.414628             0.00377522107            0.000521174374           
       0.415307             0.00334941892            0.000496364608           
       0.415987              0.0027908551            0.000449356536           
       0.416666             0.00331783739            0.000487000172           
       0.417345             0.00292263483            0.000464709283           
       0.418024             0.00284791556            0.000458742194           
       0.418703             0.00466665216            0.000586150672           
       0.419382             0.00375702597            0.000523353593           
       0.420062             0.00231683576            0.000412131521           
       0.420741             0.00242606405            0.000423977505           
       0.421420             0.00273647035            0.000451992265           
       0.422099             0.00280745759            0.000457829233           
       0.422778             0.00224606723            0.000411721728           
       0.423457             0.00318804833            0.000493520236           
       0.424137             0.00292598095            0.000465095786           
       0.424816             0.00367697826            0.000532273792           
       0.425495             0.00229698924            0.000420298645           
       0.426174             0.00235423272            0.000425652556           
       0.426853             0.00203024267            0.000392878682           
       0.427532             0.00184792431            0.000377992322           
       0.428212             0.00289572103            0.000476295736           
       0.428891             0.00286581636            0.000472752229           
       0.429570             0.00265494711            0.000455338305           
       0.430249             0.00268262764            0.000455329446           
       0.430928             0.00193965867            0.000395642306           
       0.431607             0.00287647185             0.00047352517           
       0.432287             0.00236928823             0.00043290353           
       0.432966             0.00201123753            0.000402362245           
       0.433645             0.00193160591            0.000394728145           
       0.434324             0.00294238528            0.000484242368           
       0.435003             0.00255462656            0.000451978577           
       0.435682             0.00259516484            0.000459286839           
       0.436361             0.00250700348             0.00045081397           
       0.437041             0.00242943887            0.000443193025           
       0.437720             0.00278249732            0.000476592325           
       0.438399             0.00132998485            0.000331217593           
       0.439078             0.00316615124            0.000525860372           
       0.439757             0.00225887533             0.00044143526           
       0.440436             0.00320482322             0.00053765264           
       0.441116             0.00236427843            0.000469346074           
       0.441795             0.00257307397            0.000490222157           
       0.442474             0.00248247255            0.000482856792           
       0.443153             0.00263389118            0.000508968113           
       0.443832             0.00193874807            0.000437405028           
       0.444511             0.00242006828            0.000486491904           
       0.445191             0.00163488922               0.000409584           
       0.445870             0.00224476979            0.000479950649           
       0.446549              0.0021857627            0.000478594693           
       0.447228             0.00185392059            0.000438279291           
       0.447907              0.0017968141            0.000436653748           
       0.448586             0.00189772414            0.000459544967           
       0.449266             0.00218127966            0.000488150706           
       0.449945             0.00238945337            0.000508829745           
       0.450624             0.00294290853            0.000573659466           
       0.451303             0.00220248572            0.000502708015           
       0.451982             0.00261228143            0.000544096762           
       0.452661             0.00343261016            0.000635323471           
       0.453341             0.00252531436             0.00054683925           
       0.454020             0.00230037302            0.000522711919           
       0.454699              0.0028297417            0.000585039488           
       0.455378             0.00234163413             0.00053248123           
       0.456057             0.00256205621             0.00056688498           
       0.456736             0.00216976322            0.000520056352           
       0.457416             0.00215072978            0.000517785029           
       0.458095            0.000966085982            0.000352050149           
       0.458774             0.00311033851            0.000640033047           
       0.459453              0.0015438756             0.00045319966           
       0.460132             0.00157944988            0.000448491832           
       0.460811             0.00146572438            0.000448163169           
       0.461490              0.0016806802            0.000475021162           
       0.462170             0.00148275765            0.000453138021           
       0.462849             0.00122089545            0.000413849423           
       0.463528             0.00163792828            0.000478236019           
       0.464207             0.00154327677            0.000472898346           
       0.464886             0.00167315737            0.000488561621           
       0.465565              0.0015521535            0.000475732754           
       0.466245             0.00128665667            0.000434482845           
       0.466924             0.00198634774            0.000552596952           
       0.467603             0.00130025022            0.000437606198           
       0.468282            0.000753057682            0.000340927776           
       0.468961             0.00170722785            0.000516699073           
       0.469640             0.00109611037            0.000415669519           
       0.470320             0.00125364832            0.000444845257           
       0.470999             0.00063935939            0.000320679109           
       0.471678            0.000818701477            0.000366366252           
       0.472357              0.0013220385            0.000466858707           
       0.473036            0.000180913712            0.000173792828           
       0.473715             0.00204164516            0.000588396988           
       0.474395            2.01658428e-05             5.9285803e-05           
       0.475074             0.00158344934            0.000525360303           
       0.475753             0.00156120197            0.000517155369           
       0.476432            0.000234625766            0.000207782634           
       0.477111             0.00111893058            0.000448269399           
       0.477790             0.00113318165            0.000453525319           
       0.478470             0.00096543489            0.000424149416           
       0.479149            0.000992743341            0.000434555065           
       0.479828            0.000430687785            0.000285551229           
       0.480507            0.000256354468            0.000222080566           
       0.481186            0.000678148973             0.00036934648           
       0.481865            0.000654897625            0.000358464833           
       0.482545            0.000673037928            0.000367664112           
       0.483224            0.000668431941            0.000368907529           
       0.483903            0.000907009988            0.000436498264           
       0.484582            8.48553749e-05            0.000135681861           
       0.485261            9.19899259e-05            0.000137691557           
       0.485940            0.000323764253            0.000268736813           
       0.486619            0.000334194167            0.000270027696           
       0.487299            0.000576325871            0.000360256442           
       0.487978             0.00033474277            0.000271760196           
       0.488657           -8.16577197e-05                         0           
       0.489336            0.000139541682             0.00017949885           
       0.490015           -9.29559307e-05                         0           
       0.490694           -0.000318910817                         0           
       0.491374           -7.80653753e-05                         0           
       0.492053           -0.000318949464                         0           
       0.492732           -7.70159675e-05                         0           
       0.493411           -0.000318988289                         0           
       0.494090           -0.000319007956                         0           
       0.494769            0.000214558386            0.000239698873           
       0.495449            0.000219283963            0.000240186999           
       0.496128           -4.74823562e-05                         0           
       0.496807           -5.60834821e-05                         0           
       0.497486           -5.40555184e-05                         0           
       0.498165           -0.000319125267                         0           
       0.498844           -0.000319144831                         0           
       0.499524           -0.000319164488                         0           
       0.500203           -3.20201739e-05                         0           
       0.500882           -0.000319204031                         0           
       0.501561           -0.000319223668                         0           
       0.502240           -2.63877454e-05                         0           
       0.502919            0.000311895809             0.00031403656           
       0.503599            0.000275860065            0.000288193402           
       0.504278           -0.000319303438                         0           
       0.504957            -0.00031932337                         0           
       0.505636            1.96687714e-06            2.52778608e-05           
       0.506315            6.21883021e-06            4.51333132e-05           
       0.506994            0.000698133076            0.000486277858           
       0.507673           -0.000319402808                         0           
       0.508353            2.27367756e-05            8.67842049e-05           
       0.509032           -0.000319443016                         0           
       0.509711           -0.000319463085                         0           
       0.510390           -0.000319483469                         0           
       0.511069           -0.000319503786                         0           
       0.511748             0.00040939134             0.00038757796           
       0.512428           -0.000319544401                         0           
       0.513107            5.56406158e-05            0.000145367298           
       0.513786           -0.000319584595                         0           
       0.514465           -0.000319605067                         0           
       0.515144           -0.000319625525                         0           
       0.515823            7.44353065e-05            0.000172309869           
       0.516503           -0.000319666258                         0           
       0.517182           -0.000319686718                         0           
       0.517861             0.00134590974            0.000757142731           
       0.518540           -0.000319727653                         0           
       0.519219            -0.00031974806                         0           
       0.519898           -0.000319768672                         0           
       0.520578           -0.000319789409                         0           
       0.521257             0.00017384031            0.000292660988           
       0.521936           -0.000319830396                         0           
       0.522615            0.000161844268            0.000278977863           
       0.523294              -0.000319872                         0           
       0.523973           -0.000319892553                         0           
       0.524653           -0.000319912957                         0           
       0.525332           -0.000319933659                         0           
       0.526011           -0.000319954733                         0           
       0.526690           -0.000319975766                         0           
       0.527369           -0.000319996626                         0           
       0.528048           -0.000320017635                         0           
       0.528728           -0.000320038619                         0           
       0.529407             0.00295712814             0.00126619645           
       0.530086           -0.000320080285                         0           
       0.530765           -0.000320101093                         0           
       0.531444           -0.000320122126                         0           
       0.532123           -0.000320143531                         0           
       0.532802           -0.000320164761                         0           
       0.533482            0.000253344519            0.000383945915           
       0.534161           -0.000320207111                         0           
       0.534840            0.000260607873             0.00039134087           
       0.535519            -0.00032024952                         0           
       0.536198             0.00026704557            0.000397145881           
       0.536877            0.000316269043            0.000450326073           
       0.537557           -0.000320312829                         0           
       0.538236           -0.000320334266                         0           
       0.538915           -0.000320355695                         0           
       0.539594           -0.000320377095                         0           
       0.540273            0.000290567549            0.000423852687           
       0.540952           -0.000320420322                         0           
       0.541632            0.000370107251            0.000505138288           
       0.542311            0.000309949038            0.000444735467           
       0.542990           -0.000320484246                         0           
       0.543669           -0.000320505957                         0           
       0.544348           -0.000320527643                         0           
       0.545027           -0.000320549282                         0           
       0.545707           -0.000320570987                         0           
       0.546386           -0.000320592752                         0           
       0.547065           -0.000320614256                         0           
       0.547744           -0.000320635858                         0           
       0.548423           -0.000320657697                         0           
       0.549102            -0.00032067956                         0           
       0.549782           -0.000320701311                         0           
       0.550461           -0.000320723321                         0           
       0.551140           -0.000320745464                         0           
       0.551819           -0.000320767345                         0           
       0.552498           -0.000320789413                         0           
       0.553177            0.000489922747            0.000643711273           
       0.553856           -0.000320832869                         0           
       0.554536           -0.000320854708                         0           
       0.555215           -0.000320876879                         0           
       0.555894           -0.000320898998                         0           
       0.556573           -0.000320921249                         0           
       0.557252           -0.000320943481                         0           
       0.557931            0.000635130195            0.000781362234           
       0.558611           -0.000320988261                         0           
       0.559290           -0.000321010334                         0           
       0.559969           -0.000321031864                         0           
       0.560648           -0.000321053965                         0           
       0.561327            0.000874061509             0.00101489708           
       0.562006           -0.000321099046                         0           
       0.562686           -0.000321121547                         0           
       0.563365           -0.000321144131                         0           
       0.564044           -0.000321166601                         0           
       0.564723           -0.000321189022                         0           
       0.565402           -0.000321211024                         0           
       0.566081           -0.000321233173                         0           
       0.566761           -0.000321255561                         0           
       0.567440           -0.000321278403                         0           
       0.568119           -0.000321301065                         0           
       0.568798           -0.000321324045                         0           
       0.569477           -0.000321346878                         0           
       0.570156           -0.000321369821                         0           
       0.570836           -0.000321392679                         0           
       0.571515           -0.000321415053                         0           
       0.572194           -0.000321438075                         0           
       0.572873           -0.000321460571                         0           
       0.573552           -0.000321482935                         0           
       0.574231           -0.000321505752                         0           
       0.574911           -0.000321529144                         0           
       0.575590           -0.000321552086                         0           
       0.576269           -0.000321574958                         0           
       0.576948           -0.000321598269                         0           
       0.577627            -0.00032162087                         0           
       0.578306           -0.000321643789                         0           
       0.578985           -0.000321666904                         0           
       0.579665           -0.000321689886                         0           
       0.580344           -0.000321713216                         0           
       0.581023            -0.00032173652                         0           
       0.581702           -0.000321759609                         0           
       0.582381           -0.000321782488                         0           
       0.583060            -0.00032180605                         0           
       0.583740           -0.000321829242                         0           
       0.584419            -0.00032185251                         0           
       0.585098           -0.000321875751                         0           
       0.585777           -0.000321899173                         0           
       0.586456           -0.000321922976                         0           
       0.587135           -0.000321946146                         0           
       0.587815           -0.000321969067                         0           
       0.588494           -0.000321992701                         0           
       0.589173           -0.000322016878                         0           
       0.589852            -0.00032203977                         0           
       0.590531           -0.000322063525                         0           
       0.591210           -0.000322086732                         0           
       0.591890           -0.000322110388                         0           
       0.592569           -0.000322133252                         0           
       0.593248           -0.000322158249                         0           
       0.593927           -0.000322182016                         0           
       0.594606           -0.000322206271                         0           
       0.595285           -0.000322229081                         0           
       0.595965           -0.000322250367                         0           
       0.596644            -0.00032227227                         0           
