################################################################################
# EDF_DataBlockID                     0.Image.Psd
# EDF_BinarySize                      4366944
# EDF_HeaderSize                      2560
# ByteOrder                           LowByteFirst
# DataType                            FloatValue
# Dim_1                               1028
# Dim_2                               1062
# Image                               0
# HeaderID                            EH:000000:000000:000000
# Size                                4366944
# Center_1                            607.5200
# Center_2                            651.5500
# Comment                             Xenocs_Cell_Window - 20251028_20perc_iodine_1.23mg
# DDummy                              0.6
# Date                                2025-10-28T20:20:48
# Delta                               0
# Dummy                               -1.5
# ExposureTime                        360
# Gamma                               0
# Intensity1                          8.51735e-10
# PSize_1                             7.5e-05
# PSize_2                             7.5e-05
# Pressure                            0.0346355
# SampleDistance                      0.450002
# SampleEnvKind                       large
# SampleEnvPN                         ElectroChemical cell
# SampleEnvSN                         1141
# Thickness                           0
# Wavelength                          1.541891e-10
# Wavelength                          1.54189e-10
# aux                                 0
# aux_dial                            0.002375
# beamx                               588.434
# beamx_dial                          588.434
# beamz                               657.808
# beamz_dial                          657.808
# det0x                               0
# det0x_dial                          6.36945
# det0xvd                             0
# det0xvd_dial                        0
# det0y                               450.002
# det0y_dial                          481.635
# det0z                               0
# det0z_dial                          1.23302
# det0zvd                             0
# det0zvd_dial                        0
# mag                                 1.818
# mag_dial                            1.818
# om                                  0.2499
# om_dial                             -0.610199
# phi                                 -0.0120535
# phi_dial                            0
# ry                                  0.599993
# ry_dial                             0.599993
# s1bot                               0.8
# s1bot_dial                          -1.66094
# s1hl                                0.8
# s1hl_dial                           -0.608437
# s1hr                                0.8
# s1hr_dial                           0.970938
# s1top                               0.8
# s1top_dial                          -0.461562
# s2bot                               0.45
# s2bot_dial                          1.36109
# s2hl                                0.45
# s2hl_dial                           -0.83375
# s2hr                                0.45
# s2hr_dial                           -0.118594
# s2top                               0.45
# s2top_dial                          1.44734
# w2theta                             32
# w2theta_dial                        32
# waxsch                              19.2605
# waxsch_dial                         -32.7355
# waxsh                               137.085
# waxsh_dial                          -43.5338
# waxsth                              26.0607
# waxsth_dial                         -19.4086
# waxsz                               67.0407
# waxsz_dial                          -23.7954
# wind                                65.9854
# wind_dial                           66.0041
# wpsi                                124
# wpsi_dial                           124
# wstod                               115
# wstod_dial                          115
# x                                   0
# x_dial                              1.00969
# z                                   0
# z_dial                              13.3172
# CountCutoff                         15302352
# DetectorModel                       Dectris EIGER2 Si 1M, S/N E-02-0362
# ThresholdSetting                    4023.88989258
# Saturation                          0
# FlatField                           Corrected
# BackgroundReductionExtra            0.02
# BackgroundCorrectionConstant        0.0026712
# Detector                            0
# Monitor                             0
# Pil_Roi0                            0
# SumForIntensity1                    3.06625e+08
# TransmittedFlux                     851735
# det                                 0
# mon                                 0
# pilai0                              3.06625e+08
# pilai1                              789907
# pilct0                              5.31021e+08
# pilct1                              789907
# pilroi0                             0
# pilroi1                             0
# sec                                 1
# title                               20251028_20perc_iodine_1.23mg_0_00054.edf
# usaxs0                              0
# Operation                           Azimuthal average I(q)
# Error_model                         ErrorModel.poisson
# Geometrical_correction              True
# Transmission_correction             True
# Thickness_correction                False
# Binning mode                        Uniform
# Binning factor                      1.0
# Psi                                 0.0
# Omega                               0.2499
# MaskInvalidPixels                   True
# DetectorEdge                        3
# MaskFiles                           ['20251028_20perc_iodine_1.23mg_0_00012_mask.edf']
################################################################################
    q(A⁻¹)                Intensity(a.u.)            Sigma_I(a.u.)            
       0.000340                368318.663                120.060715           
       0.001019                358458.993                72.5311311           
       0.001698                349947.595                50.6747079           
       0.002377                330823.311                44.0689643           
       0.003056                307981.246                35.9362686           
       0.003735                253589.948                28.7583998           
       0.004415                205326.364                25.8774311           
       0.005094                153372.158                19.3688048           
       0.005773                 101360.92                14.5777865           
       0.006452                59129.6215                10.6681258           
       0.007131                32347.0757                7.64383858           
       0.007810                16137.5267                 5.3579343           
       0.008490                7996.35667                3.34316273           
       0.009169                3838.46589                2.28918526           
       0.009848                1176.06976                1.22510753           
       0.010527                455.284331               0.762253245           
       0.011206                115.516725               0.366449281           
       0.011885                54.3590046               0.233558273           
       0.012564                25.5020947               0.164240101           
       0.013244                17.1663936               0.125976861           
       0.013923                12.4557458               0.109039984           
       0.014602                9.55638889               0.088579402           
       0.015281                7.71354314              0.0810105661           
       0.015960                6.30861368              0.0727373719           
       0.016639                5.16417388              0.0621449279           
       0.017319                4.18940933              0.0551028973           
       0.017998                3.57231586              0.0486793002           
       0.018677                3.02113749              0.0463660175           
       0.019356                2.58200578              0.0423537881           
       0.020035                2.21537119              0.0368069782           
       0.020714                1.89105907              0.0343662143           
       0.021394                1.65487935               0.030418106           
       0.022073                1.48411274              0.0299703494           
       0.022752                1.32101432              0.0270486534           
       0.023431                1.15007353              0.0244980764           
       0.024110                1.06197166              0.0245432659           
       0.024789               0.942640696              0.0214748026           
       0.025469               0.829914795              0.0207646641           
       0.026148               0.742504183              0.0184540862           
       0.026827                0.68763799              0.0180433796           
       0.027506               0.671104896              0.0180821965           
       0.028185               0.566960242              0.0158496106           
       0.028864               0.516111802              0.0150373219           
       0.029544               0.500699436              0.0143625951           
       0.030223               0.425601268               0.013431644           
       0.030902               0.389683176              0.0129699939           
       0.031581               0.382725495              0.0122188313           
       0.032260               0.350091933              0.0118854226           
       0.032939                0.33405756              0.0111946218           
       0.033619               0.316088373              0.0110494153           
       0.034298               0.282487926              0.0101652991           
       0.034977               0.251273825             0.00939883578           
       0.035656               0.235986077             0.00934949534           
       0.036335               0.225999636             0.00887389877           
       0.037014               0.208451563             0.00854784609           
       0.037693               0.207747155                0.00820901           
       0.038373               0.188748925             0.00790144676           
       0.039052               0.184656616              0.0078485726           
       0.039731               0.175395106             0.00747095572           
       0.040410               0.167776349             0.00725790453           
       0.041089               0.153674074             0.00683737543           
       0.041768               0.137737011             0.00650695081           
       0.042448               0.150742729             0.00675440845           
       0.043127               0.135701297             0.00625721283           
       0.043806               0.121746155             0.00597094043           
       0.044485               0.115783407             0.00570326429           
       0.045164               0.118731861             0.00588925374           
       0.045843               0.107716544             0.00538011253           
       0.046523               0.104636934             0.00532095706           
       0.047202               0.108712496             0.00546149086           
       0.047881               0.109012069             0.00536354467           
       0.048560              0.0948518992             0.00504868395           
       0.049239               0.103804741             0.00507126876           
       0.049918              0.0945409784             0.00493430691           
       0.050598              0.0944849783             0.00485883701           
       0.051277               0.080946356             0.00448300588           
       0.051956              0.0839917182             0.00453788073           
       0.052635              0.0863263911             0.00450288442           
       0.053314              0.0890068112             0.00470593611           
       0.053993              0.0795538934             0.00432700363           
       0.054673              0.0822499288             0.00430170667           
       0.055352              0.0930772212             0.00464330794           
       0.056031              0.0809431675             0.00423909854           
       0.056710              0.0805348909             0.00433201057           
       0.057389              0.0746843154             0.00402280805           
       0.058068              0.0744551633             0.00405803656           
       0.058748              0.0805304691             0.00427299703           
       0.059427              0.0727271763              0.0039919481           
       0.060106              0.0778515409             0.00416928171           
       0.060785              0.0670675165             0.00375381047           
       0.061464               0.057673557             0.00356490971           
       0.062143              0.0591063459             0.00357225955           
       0.062822              0.0706940475             0.00386092077           
       0.063502               0.053893766             0.00336505463           
       0.064181              0.0557506052             0.00338639184           
       0.064860               0.057275461             0.00348466951           
       0.065539              0.0550327099             0.00338236223           
       0.066218              0.0552187787              0.0033155306           
       0.066897              0.0573870406             0.00340609132           
       0.067577              0.0562274223             0.00340389303           
       0.068256              0.0566707361             0.00350122939           
       0.068935              0.0502795691             0.00324457053           
       0.069614              0.0485343546             0.00321949693           
       0.070293              0.0452335888             0.00313675234           
       0.070972              0.0523341929             0.00334927597           
       0.071652              0.0426878778             0.00303044435           
       0.072331              0.0429637709             0.00298603759           
       0.073010              0.0501804239             0.00330082703           
       0.073689               0.044961086             0.00310728372           
       0.074368              0.0462342193             0.00314523947           
       0.075047               0.042963578             0.00299936222           
       0.075727              0.0435316675             0.00300047935           
       0.076406              0.0443786433             0.00308997432           
       0.077085              0.0402418867             0.00288744587           
       0.077764              0.0403688049             0.00288186199           
       0.078443              0.0400697499             0.00288894412           
       0.079122              0.0413399634             0.00290618718           
       0.079802               0.036335123             0.00275349111           
       0.080481              0.0423153555             0.00287122382           
       0.081160              0.0367947899             0.00273232753           
       0.081839              0.0379467864             0.00273034771           
       0.082518              0.0360339565             0.00266288271           
       0.083197              0.0374016156             0.00267079319           
       0.083876              0.0416576553             0.00277182232           
       0.084556              0.0341076594             0.00257784765           
       0.085235              0.0358107993             0.00259039166           
       0.085914              0.0357798734             0.00261442572           
       0.086593              0.0377014855             0.00266644087           
       0.087272              0.0372158151             0.00261176336           
       0.087951              0.0320688664             0.00247920802           
       0.088631              0.0304062428             0.00233185994           
       0.089310              0.0359387554             0.00258891268           
       0.089989              0.0359225719             0.00255806993           
       0.090668              0.0316580781              0.0024279433           
       0.091347              0.0292267062             0.00234590796           
       0.092026              0.0364243355             0.00250323291           
       0.092706              0.0310830367             0.00239635668           
       0.093385              0.0302945434             0.00232943742           
       0.094064              0.0326887169              0.0024478971           
       0.094743               0.032936557             0.00241971441           
       0.095422              0.0270926512             0.00217010479           
       0.096101              0.0297064696             0.00231917774           
       0.096781              0.0294193347             0.00227489629           
       0.097460              0.0307636041             0.00226283165           
       0.098139              0.0315400846             0.00227358109           
       0.098818               0.028963987             0.00215192296           
       0.099497               0.029129653             0.00216249923           
       0.100176              0.0300917392              0.0021402352           
       0.100856              0.0291208652             0.00210407691           
       0.101535              0.0257787371             0.00197584051           
       0.102214              0.0289760709             0.00209480453           
       0.102893              0.0282025752             0.00204310869           
       0.103572              0.0292170474             0.00204880965           
       0.104251              0.0309927429               0.002117946           
       0.104931              0.0271604591             0.00196463322           
       0.105610              0.0284496189             0.00201929503           
       0.106289              0.0275322704             0.00195341442           
       0.106968               0.029056238             0.00201270465           
       0.107647              0.0287817776             0.00200437853           
       0.108326              0.0265456324             0.00189918961           
       0.109005              0.0274278177             0.00191834328           
       0.109685              0.0283654067             0.00192897325           
       0.110364              0.0261907177             0.00187460723           
       0.111043              0.0255697675             0.00184490753           
       0.111722              0.0252878901             0.00181228515           
       0.112401              0.0241799873             0.00177706901           
       0.113080              0.0242715053               0.001760026           
       0.113760               0.024152219             0.00178502058           
       0.114439              0.0251468078             0.00179540879           
       0.115118              0.0235366054             0.00172387882           
       0.115797              0.0225342698             0.00170239913           
       0.116476              0.0243610874             0.00174356731           
       0.117155              0.0263941587             0.00182950246           
       0.117835              0.0246105541             0.00173148663           
       0.118514              0.0249838154              0.0017666879           
       0.119193              0.0238623167             0.00172659265           
       0.119872              0.0250852586             0.00174814395           
       0.120551              0.0213814499             0.00160318605           
       0.121230              0.0235409285             0.00166526963           
       0.121910              0.0246673617              0.0017211206           
       0.122589              0.0268217391              0.0017965558           
       0.123268              0.0202459629             0.00153062977           
       0.123947              0.0252024161             0.00171878567           
       0.124626              0.0251870267             0.00169725192           
       0.125305              0.0230563664             0.00163184645           
       0.125985              0.0248914283             0.00168238631           
       0.126664              0.0210386215             0.00153197898           
       0.127343               0.022483821             0.00160208041           
       0.128022              0.0215908311             0.00155790171           
       0.128701              0.0215737964             0.00154917479           
       0.129380              0.0218948296             0.00154111212           
       0.130059               0.022202262             0.00155549807           
       0.130739              0.0220652152             0.00156159475           
       0.131418              0.0198744031             0.00147789535           
       0.132097              0.0204184362             0.00147877503           
       0.132776              0.0236336717             0.00158376714           
       0.133455              0.0214127583             0.00151922849           
       0.134134              0.0211747803             0.00150595155           
       0.134814              0.0190978444             0.00141545366           
       0.135493              0.0196468579             0.00144146484           
       0.136172              0.0186125021             0.00139241572           
       0.136851               0.019049335             0.00141685349           
       0.137530              0.0201451074             0.00142241775           
       0.138209              0.0223908534             0.00151721398           
       0.138889              0.0228888938             0.00154075678           
       0.139568              0.0212377399             0.00148350186           
       0.140247               0.020225336             0.00144581361           
       0.140926              0.0225812439              0.0014840196           
       0.141605               0.021321572             0.00147866931           
       0.142284              0.0182153839              0.0013440758           
       0.142964               0.018441212             0.00135755441           
       0.143643              0.0180107495             0.00133992174           
       0.144322               0.019530013             0.00136609416           
       0.145001              0.0205560991              0.0014302892           
       0.145680              0.0193683142             0.00135550519           
       0.146359               0.017617778             0.00129752752           
       0.147039              0.0174466726             0.00130184168           
       0.147718              0.0187240726             0.00132640406           
       0.148397              0.0182772989             0.00133084797           
       0.149076              0.0186719734             0.00130341169           
       0.149755              0.0186385304             0.00132235135           
       0.150434              0.0192566259             0.00134464719           
       0.151114              0.0171218268             0.00126091122           
       0.151793               0.019613608             0.00134956009           
       0.152472              0.0168705259             0.00122952623           
       0.153151              0.0199600719             0.00135030872           
       0.153830              0.0202824408             0.00135125204           
       0.154509              0.0197479693              0.0013277664           
       0.155188              0.0191064434             0.00130553893           
       0.155868              0.0173468075             0.00123511715           
       0.156547              0.0172162125             0.00123836299           
       0.157226              0.0183124513             0.00124598631           
       0.157905              0.0198228947             0.00130724269           
       0.158584              0.0182942572             0.00125354624           
       0.159263              0.0184465154             0.00126338343           
       0.159943              0.0177913665             0.00124167073           
       0.160622              0.0177444824             0.00121610274           
       0.161301              0.0157418741             0.00116074579           
       0.161980              0.0170513216             0.00118752059           
       0.162659              0.0157112451             0.00115253624           
       0.163338              0.0182312785             0.00123141259           
       0.164018              0.0191859218             0.00125661123           
       0.164697               0.018742202             0.00125794281           
       0.165376              0.0172693354             0.00118112105           
       0.166055              0.0176647821             0.00120244583           
       0.166734              0.0168689899             0.00116978516           
       0.167413              0.0185236717             0.00122667375           
       0.168093              0.0167956799             0.00117910682           
       0.168772              0.0159784821             0.00111643076           
       0.169451               0.016248356             0.00114653263           
       0.170130              0.0181813395             0.00119689314           
       0.170809              0.0171674728             0.00117692233           
       0.171488              0.0189293919             0.00122457595           
       0.172168              0.0179301736              0.0011803677           
       0.172847              0.0173868085              0.0011776134           
       0.173526               0.019469864             0.00122238884           
       0.174205              0.0198695389             0.00124055886           
       0.174884              0.0164800957             0.00112391695           
       0.175563              0.0173651896             0.00115862914           
       0.176243              0.0163924701              0.0011369767           
       0.176922              0.0163539305             0.00110604467           
       0.177601              0.0154995749              0.0010885998           
       0.178280              0.0151527962             0.00106433808           
       0.178959               0.018882166             0.00119767314           
       0.179638              0.0165860437               0.001119261           
       0.180317               0.014568561             0.00104134083           
       0.180997              0.0175041638             0.00114764121           
       0.181676              0.0158148089             0.00107920811           
       0.182355              0.0147498396             0.00104849752           
       0.183034              0.0164233064             0.00108862282           
       0.183713              0.0158750036             0.00108333094           
       0.184392              0.0165946482             0.00110727848           
       0.185072               0.017074828             0.00111038374           
       0.185751              0.0167567154             0.00110305175           
       0.186430              0.0157600946             0.00106225387           
       0.187109              0.0166387612             0.00110361936           
       0.187788              0.0170226623             0.00111352644           
       0.188467              0.0154498613             0.00104828396           
       0.189147              0.0179628529             0.00114177426           
       0.189826              0.0155811138             0.00104458355           
       0.190505               0.016987876             0.00110867524           
       0.191184              0.0169034556             0.00108997826           
       0.191863               0.017164766             0.00110068486           
       0.192542              0.0157822133             0.00106537944           
       0.193222              0.0174116402             0.00109394849           
       0.193901              0.0137942937            0.000986754696           
       0.194580               0.016588628             0.00106316477           
       0.195259              0.0170288845             0.00108955163           
       0.195938              0.0162165581             0.00106578497           
       0.196617              0.0135009967            0.000958888935           
       0.197297              0.0162963898             0.00105779318           
       0.197976              0.0165131228             0.00104844817           
       0.198655              0.0161979506             0.00104973673           
       0.199334              0.0170037241             0.00106604487           
       0.200013              0.0143663313            0.000979344589           
       0.200692              0.0160861442              0.0010425407           
       0.201371              0.0168417187             0.00105473023           
       0.202051               0.017165043             0.00106811764           
       0.202730              0.0150008187            0.000988540871           
       0.203409              0.0159740681             0.00102695287           
       0.204088              0.0155431241             0.00101188527           
       0.204767              0.0132356424            0.000928850923           
       0.205446              0.0171051344             0.00105799734           
       0.206126              0.0147778751            0.000970032956           
       0.206805              0.0155918442             0.00101465601           
       0.207484              0.0146421412            0.000965592308           
       0.208163              0.0155203087             0.00100010036           
       0.208842              0.0148714573            0.000976318934           
       0.209521              0.0157444808            0.000996218894           
       0.210201              0.0157496547             0.00100750142           
       0.210880              0.0147995595             0.00095747543           
       0.211559              0.0160829641              0.0010128855           
       0.212238              0.0155998362            0.000992480023           
       0.212917              0.0153404537            0.000980537625           
       0.213596              0.0133187021             0.00091904437           
       0.214276              0.0148045755            0.000948768033           
       0.214955              0.0150837432            0.000977810809           
       0.215634              0.0146176519            0.000955686183           
       0.216313               0.015797905            0.000991432923           
       0.216992              0.0154004075             0.00097863539           
       0.217671              0.0153169174              0.0009693682           
       0.218351              0.0176403996             0.00105047113           
       0.219030              0.0148156435            0.000947502298           
       0.219709              0.0156334159            0.000979371724           
       0.220388              0.0166222343              0.0010085723           
       0.221067              0.0162199887            0.000997084089           
       0.221746              0.0158937783            0.000985995646           
       0.222426              0.0148521364            0.000938893675           
       0.223105              0.0144318424              0.0009381224           
       0.223784              0.0157085535            0.000969030316           
       0.224463              0.0155928064            0.000973142145           
       0.225142              0.0146674426            0.000928891034           
       0.225821              0.0149247419            0.000940777299           
       0.226500              0.0155372043             0.00096598973           
       0.227180              0.0150960062            0.000937506249           
       0.227859              0.0161755439            0.000974802289           
       0.228538              0.0149860767            0.000928855311           
       0.229217              0.0155860289            0.000954763835           
       0.229896               0.015094355            0.000939131421           
       0.230575               0.015465403            0.000935450887           
       0.231255              0.0156419728            0.000954860852           
       0.231934              0.0139390815            0.000895228989           
       0.232613              0.0166480367            0.000981969304           
       0.233292              0.0152206937            0.000929859074           
       0.233971              0.0139276411            0.000889070033           
       0.234650              0.0145443013            0.000919225698           
       0.235330              0.0129299046            0.000859140775           
       0.236009              0.0151419668            0.000927728021           
       0.236688              0.0146970192            0.000910724788           
       0.237367              0.0153033435            0.000930670628           
       0.238046              0.0153020063            0.000937183912           
       0.238725              0.0157003955            0.000934659644           
       0.239405              0.0128557342             0.00085100355           
       0.240084              0.0161812206            0.000948668124           
       0.240763              0.0146814822            0.000912288782           
       0.241442              0.0137716525            0.000871118987           
       0.242121              0.0140332172            0.000881012514           
       0.242800               0.016364603            0.000955888811           
       0.243480              0.0134338641            0.000862019022           
       0.244159              0.0149561307            0.000909988892           
       0.244838              0.0127458858            0.000826239331           
       0.245517              0.0141645734            0.000883538023           
       0.246196              0.0152255149            0.000916471256           
       0.246875               0.014335755            0.000876892934           
       0.247554              0.0145511832            0.000892435818           
       0.248234              0.0151296186            0.000896202458           
       0.248913               0.012755703            0.000832125347           
       0.249592              0.0151211098            0.000897391217           
       0.250271              0.0128576598            0.000825102774           
       0.250950              0.0145675068             0.00088363227           
       0.251629              0.0131620304            0.000832785936           
       0.252309              0.0139403343            0.000858794133           
       0.252988              0.0141864661            0.000851419301           
       0.253667              0.0135917163            0.000843117969           
       0.254346              0.0146394704             0.00087483167           
       0.255025              0.0140705654            0.000855786048           
       0.255704              0.0130852251            0.000821497701           
       0.256384              0.0124874984            0.000799739255           
       0.257063              0.0140754317            0.000853907112           
       0.257742              0.0132594767             0.00082304454           
       0.258421              0.0133174002            0.000823252595           
       0.259100              0.0144904425            0.000860242492           
       0.259779              0.0130224337            0.000814812791           
       0.260459              0.0131270411            0.000819685414           
       0.261138              0.0145276628            0.000845455009           
       0.261817              0.0125179967            0.000800643781           
       0.262496              0.0132462933            0.000815528044           
       0.263175              0.0115185602            0.000762118709           
       0.263854              0.0135603417            0.000823069375           
       0.264534              0.0111243976            0.000739118768           
       0.265213              0.0127000058            0.000802173934           
       0.265892              0.0122632634            0.000778161226           
       0.266571              0.0121575462            0.000773037882           
       0.267250              0.0134799521            0.000815366701           
       0.267929              0.0127113612            0.000790968666           
       0.268609              0.0117205618             0.00076367552           
       0.269288               0.011755425            0.000752105269           
       0.269967              0.0112830685            0.000744778715           
       0.270646              0.0110252387            0.000733037523           
       0.271325              0.0119953551            0.000765884893           
       0.272004              0.0123754278            0.000770169178           
       0.272683              0.0120320649            0.000760347973           
       0.273363              0.0107831815            0.000724397344           
       0.274042              0.0114590668            0.000742348974           
       0.274721               0.010668891            0.000715872312           
       0.275400              0.0124567808              0.0007684114           
       0.276079              0.0116363644             0.00074689335           
       0.276758              0.0113834186            0.000748053431           
       0.277438              0.0119097301            0.000756562178           
       0.278117              0.0105688753            0.000725661658           
       0.278796              0.0116250994            0.000753333657           
       0.279475              0.0120754344            0.000780469815           
       0.280154              0.0123127857            0.000776766544           
       0.280833              0.0117203161            0.000762456527           
       0.281513              0.0123807252            0.000795937693           
       0.282192              0.0126461637            0.000790701005           
       0.282871              0.0112851959            0.000752162445           
       0.283550              0.0115699959            0.000765675677           
       0.284229              0.0108727135            0.000753146532           
       0.284908              0.0113237709            0.000776717108           
       0.285588              0.0110420094            0.000758011434           
       0.286267              0.0111066252             0.00077239862           
       0.286946              0.0112210775            0.000771319381           
       0.287625              0.0106928922            0.000765767473           
       0.288304              0.0118395769            0.000794996678           
       0.288983              0.0103997615            0.000754525863           
       0.289663              0.0100263466            0.000745192109           
       0.290342              0.0116631121            0.000799440463           
       0.291021              0.0115674403            0.000800444104           
       0.291700             0.00835970307            0.000671578799           
       0.292379              0.0100028354            0.000751440528           
       0.293058             0.00965278066            0.000735386573           
       0.293738              0.0099158295            0.000739080343           
       0.294417             0.00987047568            0.000745958989           
       0.295096               0.009761743            0.000733683624           
       0.295775              0.0097939694            0.000746116939           
       0.296454             0.00892625621            0.000703085611           
       0.297133             0.00879073039            0.000701028729           
       0.297812             0.00989019621            0.000747306135           
       0.298492             0.00974792113            0.000743344933           
       0.299171             0.00995387369             0.00074973541           
       0.299850             0.00874726159            0.000698027006           
       0.300529             0.00906778327            0.000718706353           
       0.301208             0.00997450121            0.000755617536           
       0.301887              0.0106278152              0.0007790441           
       0.302567             0.00927927001              0.0007242965           
       0.303246             0.00865210293            0.000703957643           
       0.303925             0.00982994579            0.000759979703           
       0.304604             0.00918100176            0.000718606396           
       0.305283             0.00939850665            0.000737852022           
       0.305962             0.00814099038            0.000682569488           
       0.306642             0.00854023269            0.000708600996           
       0.307321             0.00879747538            0.000716897276           
       0.308000              0.0103385819              0.0007679445           
       0.308679             0.00872282764            0.000720663481           
       0.309358              0.0095699872            0.000744637158           
       0.310037              0.0078162494            0.000674457808           
       0.310717             0.00959883486            0.000746701117           
       0.311396              0.0100321247            0.000768487728           
       0.312075             0.00949417972            0.000757080274           
       0.312754             0.00842628955            0.000698964334           
       0.313433             0.00836009568            0.000702268537           
       0.314112             0.00892781776            0.000725555344           
       0.314792             0.00750393472            0.000669882294           
       0.315471             0.00836746076            0.000698628958           
       0.316150             0.00959039588            0.000754864278           
       0.316829             0.00738149605            0.000666624493           
       0.317508             0.00862606418            0.000712548704           
       0.318187             0.00799631524            0.000695095953           
       0.318866             0.00871395252            0.000715842071           
       0.319546             0.00850287592            0.000717718576           
       0.320225             0.00731185633            0.000665569758           
       0.320904             0.00981435298            0.000759177003           
       0.321583             0.00753043424            0.000679653967           
       0.322262              0.0070586701            0.000648047373           
       0.322941             0.00838654711            0.000715427445           
       0.323621             0.00793333949            0.000691581718           
       0.324300             0.00740159965             0.00066852636           
       0.324979             0.00833203205            0.000710584371           
       0.325658             0.00751764685            0.000676189331           
       0.326337             0.00674032514             0.00064111255           
       0.327016             0.00706998327            0.000652434747           
       0.327696             0.00719211433            0.000665364521           
       0.328375             0.00771748256            0.000683421896           
       0.329054             0.00688371406            0.000648950535           
       0.329733             0.00658479937            0.000637022243           
       0.330412             0.00658700268            0.000631908462           
       0.331091              0.0070837029            0.000667187175           
       0.331771             0.00718442359            0.000654307342           
       0.332450             0.00785434418            0.000697415992           
       0.333129             0.00638876195            0.000627369202           
       0.333808             0.00757787986            0.000684167325           
       0.334487             0.00901266486            0.000749668641           
       0.335166             0.00657738353            0.000631053704           
       0.335846              0.0069431973            0.000659758736           
       0.336525             0.00704497686            0.000658015405           
       0.337204             0.00782950921            0.000695505579           
       0.337883             0.00711092936            0.000663700012           
       0.338562             0.00631550809            0.000628950073           
       0.339241             0.00659226285            0.000643787172           
       0.339921             0.00739963671            0.000670633778           
       0.340600             0.00680521663            0.000655347015           
       0.341279              0.0058523266            0.000601227704           
       0.341958             0.00622954923            0.000629053155           
       0.342637             0.00689711176            0.000652549659           
       0.343316             0.00668968285            0.000644522775           
       0.343995             0.00620637702             0.00063096925           
       0.344675             0.00671981114            0.000644483874           
       0.345354             0.00543945613            0.000583668911           
       0.346033             0.00789577855            0.000701378928           
       0.346712             0.00585947452            0.000608060673           
       0.347391             0.00619790945            0.000629246725           
       0.348070             0.00625431368             0.00062312668           
       0.348750             0.00683951693             0.00066104292           
       0.349429             0.00609074081            0.000615756263           
       0.350108             0.00648870969            0.000643202644           
       0.350787             0.00662535417            0.000638898165           
       0.351466             0.00593995144            0.000616092567           
       0.352145             0.00524494457            0.000579408969           
       0.352825              0.0063267882            0.000633482745           
       0.353504             0.00620583916            0.000627244526           
       0.354183              0.0060659017            0.000612987625           
       0.354862             0.00531301952            0.000587017578           
       0.355541             0.00535406501            0.000581563205           
       0.356220             0.00607357482             0.00062057869           
       0.356900             0.00568504333             0.00060610407           
       0.357579             0.00636601554            0.000633513632           
       0.358258             0.00563195962             0.00060411646           
       0.358937              0.0059692044            0.000610248192           
       0.359616             0.00493762265            0.000562768639           
       0.360295             0.00437194402            0.000529992694           
       0.360975             0.00419074865            0.000516674511           
       0.361654             0.00560217782            0.000600458404           
       0.362333             0.00617790555            0.000627351868           
       0.363012             0.00437133699            0.000534502615           
       0.363691             0.00476479556            0.000547029742           
       0.364370             0.00463786495            0.000546389532           
       0.365050             0.00577871383            0.000606636798           
       0.365729             0.00544180111            0.000594300204           
       0.366408             0.00547655392            0.000597514958           
       0.367087             0.00523994838             0.00057509102           
       0.367766             0.00520252319            0.000584973265           
       0.368445             0.00539051287            0.000584876356           
       0.369124             0.00373450263             0.00049064092           
       0.369804             0.00424256935            0.000522115255           
       0.370483             0.00537182992            0.000590077563           
       0.371162             0.00604489449            0.000629582972           
       0.371841             0.00530819379            0.000579686315           
       0.372520             0.00461864272            0.000551564132           
       0.373199             0.00482672696            0.000557115549           
       0.373879             0.00519938731            0.000584917091           
       0.374558             0.00511720434            0.000571808411           
       0.375237             0.00436527629            0.000528994762           
       0.375916             0.00386932829            0.000507580043           
       0.376595             0.00479462344            0.000553977178           
       0.377274             0.00463282941            0.000553266608           
       0.377954             0.00410445768            0.000512581234           
       0.378633             0.00505938622            0.000576285418           
       0.379312             0.00446262199            0.000541095737           
       0.379991             0.00468274709            0.000551411414           
       0.380670             0.00478450548            0.000567221811           
       0.381349             0.00457750187            0.000546849366           
       0.382029             0.00477378616            0.000566452443           
       0.382708             0.00488302657              0.0005603864           
       0.383387             0.00432536288            0.000539369717           
       0.384066             0.00475565881             0.00056037326           
       0.384745             0.00506684625            0.000580690633           
       0.385424             0.00389849876             0.00051108979           
       0.386104               0.004398981            0.000536906227           
       0.386783             0.00377906116            0.000508402813           
       0.387462             0.00365201998            0.000487351158           
       0.388141             0.00330370443            0.000470931378           
       0.388820              0.0048358186            0.000565641485           
       0.389499             0.00376030905            0.000501598277           
       0.390178             0.00379709889            0.000506053274           
       0.390858             0.00353138105            0.000484076618           
       0.391537             0.00380216069            0.000507421973           
       0.392216             0.00415856585            0.000524020041           
       0.392895             0.00465082433            0.000556034454           
       0.393574              0.0041780685            0.000525710516           
       0.394253             0.00368389619            0.000495863304           
       0.394933             0.00466054516            0.000564106733           
       0.395612             0.00431023546            0.000526734097           
       0.396291              0.0042377648            0.000532920253           
       0.396970             0.00322863767            0.000461039881           
       0.397649             0.00462573009            0.000553546436           
       0.398328             0.00473986759            0.000557871093           
       0.399008             0.00384906716            0.000501630145           
       0.399687              0.0039534988            0.000510366746           
       0.400366             0.00374183575            0.000494617697           
       0.401045             0.00353064887            0.000479548629           
       0.401724             0.00418607732            0.000523038105           
       0.402403             0.00419705761            0.000527805573           
       0.403083             0.00367669196            0.000486880268           
       0.403762              0.0037021748            0.000490973807           
       0.404441             0.00377535355            0.000498960241           
       0.405120             0.00308769383            0.000449756801           
       0.405799             0.00331813584            0.000464212559           
       0.406478             0.00337973944             0.00046851373           
       0.407158             0.00296799733            0.000438224476           
       0.407837             0.00381918904             0.00050149532           
       0.408516              0.0041163924            0.000516113298           
       0.409195             0.00349942322            0.000481264446           
       0.409874              0.0034057624            0.000481386056           
       0.410553              0.0037810568            0.000512671126           
       0.411233             0.00405391573            0.000528096682           
       0.411912             0.00399637249            0.000531764634           
       0.412591             0.00333263829            0.000488815957           
       0.413270             0.00265746604            0.000434427177           
       0.413949             0.00359865572            0.000511058884           
       0.414628             0.00430015662            0.000557650988           
       0.415307             0.00432718384            0.000565623215           
       0.415987             0.00251035233            0.000427265904           
       0.416666             0.00339667333            0.000494011361           
       0.417345             0.00287240114             0.00046187568           
       0.418024             0.00265339887            0.000443930397           
       0.418703              0.0026341694            0.000441506276           
       0.419382             0.00245274121            0.000423942988           
       0.420062             0.00262180125            0.000439538145           
       0.420741             0.00280513774            0.000457064255           
       0.421420             0.00326352608            0.000494866042           
       0.422099              0.0020022798            0.000387630356           
       0.422778              0.0025659693            0.000441190974           
       0.423457             0.00297470318             0.00047793938           
       0.424137             0.00310003121            0.000479952403           
       0.424816             0.00238841595            0.000430083729           
       0.425495             0.00215245547            0.000407900349           
       0.426174             0.00393100781            0.000551430753           
       0.426853             0.00235628371            0.000424332953           
       0.427532             0.00224733961            0.000417910922           
       0.428212             0.00164713491            0.000360140032           
       0.428891             0.00156018493            0.000349708288           
       0.429570              0.0036002654            0.000531596347           
       0.430249             0.00222202096            0.000415458927           
       0.430928             0.00170406288            0.000371784565           
       0.431607              0.0027223588            0.000461842788           
       0.432287             0.00221357501            0.000419505617           
       0.432966             0.00323994925             0.00051199194           
       0.433645             0.00260031748            0.000459156248           
       0.434324             0.00311350294            0.000499397237           
       0.435003             0.00353202799            0.000532812846           
       0.435682             0.00213273761            0.000417425254           
       0.436361             0.00300433628             0.00049476919           
       0.437041             0.00331705138            0.000519187835           
       0.437720             0.00296471118            0.000493207125           
       0.438399             0.00192068742            0.000399049596           
       0.439078             0.00240166494            0.000459165559           
       0.439757             0.00210789678             0.00042751764           
       0.440436             0.00231346214            0.000457972521           
       0.441116             0.00229460955            0.000463560857           
       0.441795             0.00240694468            0.000475344349           
       0.442474             0.00231625098            0.000467603125           
       0.443153             0.00313846535            0.000557004635           
       0.443832             0.00323689187            0.000566624903           
       0.444511              0.0020391111            0.000447703749           
       0.445191             0.00215452133            0.000471392531           
       0.445870             0.00173996655            0.000423632829           
       0.446549             0.00147063468            0.000393574774           
       0.447228             0.00207820918            0.000465220127           
       0.447907              0.0015977637            0.000412810156           
       0.448586             0.00223188598            0.000499638567           
       0.449266             0.00220051489            0.000491551338           
       0.449945             0.00206840266            0.000474623497           
       0.450624             0.00195746652            0.000469052477           
       0.451303             0.00163611037            0.000434384217           
       0.451982             0.00160899577            0.000428106765           
       0.452661              0.0022773069            0.000518802331           
       0.453341             0.00229895423            0.000523089011           
       0.454020             0.00289106818            0.000587490594           
       0.454699             0.00185494406             0.00047488196           
       0.455378             0.00161954017              0.0004439654           
       0.456057             0.00232467546            0.000541365118           
       0.456736             0.00181250463            0.000476532226           
       0.457416             0.00129082471            0.000402159822           
       0.458095             0.00225544845            0.000539289017           
       0.458774             0.00205119028            0.000521086742           
       0.459453             0.00194387249            0.000509830475           
       0.460132             0.00121213986            0.000393900435           
       0.460811             0.00229349227            0.000562039873           
       0.461490            0.000486904639            0.000256330835           
       0.462170             0.00190105277            0.000514400026           
       0.462849             0.00179163592            0.000502616193           
       0.463528            0.000805556151            0.000336241435           
       0.464207             0.00186242082            0.000520826741           
       0.464886             0.00182644441            0.000511755668           
       0.465565             0.00113776476            0.000408348005           
       0.466245             0.00247082393            0.000603629804           
       0.466924             0.00153415074            0.000486881577           
       0.467603             0.00101556401             0.00038773243           
       0.468282            0.000916842809             0.00037714138           
       0.468961             0.00171051445            0.000518517945           
       0.469640                0.00125545            0.000445994215           
       0.470320            0.000947506836            0.000387722281           
       0.470999            0.000808805374             0.00036160018           
       0.471678             0.00148304296            0.000494353964           
       0.472357             0.00133441431            0.000470237475           
       0.473036             0.00084276515            0.000376060633           
       0.473715             0.00172008343            0.000541456466           
       0.474395            2.49052992e-05            6.60536589e-05           
       0.475074             0.00176559815            0.000556172588           
       0.475753            0.000535628941            0.000303691048           
       0.476432            0.000791192083            0.000382534704           
       0.477111             0.00130258562            0.000484896604           
       0.477790            0.000950425993            0.000416408324           
       0.478470             0.00133284369            0.000499638007           
       0.479149             0.00060976502            0.000341441306           
       0.479828             0.00135920411            0.000508573323           
       0.480507             0.00121756319            0.000485226314           
       0.481186            8.38548151e-05            0.000130209866           
       0.481865            0.000844445668            0.000408088338           
       0.482545            0.000281974349            0.000238585888           
       0.483224           -0.000118900602                         0           
       0.483903             0.00071862721            0.000389526308           
       0.484582             0.00011413922            0.000157764049           
       0.485261           -0.000113871152                         0           
       0.485940            0.000344448542            0.000277896687           
       0.486619            0.000532409253            0.000341696205           
       0.487299           -9.18642192e-05                         0           
       0.487978            0.000546492185            0.000348121384           
       0.488657            0.000876918555            0.000459176614           
       0.489336           -0.000320503891                         0           
       0.490015           -9.16088295e-05                         0           
       0.490694           -7.35237795e-05                         0           
       0.491374           -0.000320562257                         0           
       0.492053            -0.00032058178                         0           
       0.492732           -6.72732889e-05                         0           
       0.493411           -6.52220524e-05                         0           
       0.494090            0.000193656012            0.000224310979           
       0.494769           -0.000320659957                         0           
       0.495449           -0.000320679615                         0           
       0.496128            0.000214418316             0.00024051754           
       0.496807           -0.000320718835                         0           
       0.497486           -5.61356532e-05                         0           
       0.498165           -3.38332972e-05                         0           
       0.498844           -0.000320778147                         0           
       0.499524           -0.000320797904                         0           
       0.500203           -0.000320817975                         0           
       0.500882            -0.00032083765                         0           
       0.501561           -0.000320857388                         0           
       0.502240           -0.000320877388                         0           
       0.502919             -0.0003208973                         0           
       0.503599           -0.000320917293                         0           
       0.504278           -0.000320937566                         0           
       0.504957             -0.0003209576                         0           
       0.505636           -0.000320977506                         0           
       0.506315            -0.00032099774                         0           
       0.506994             1.4536439e-05            7.03481827e-05           
       0.507673            2.15952401e-05            8.67349448e-05           
       0.508353           -0.000321057694                         0           
       0.509032           -0.000321077858                         0           
       0.509711            -0.00032109803                         0           
       0.510390            4.03772533e-05            0.000120914618           
       0.511069           -0.000321138939                         0           
       0.511748            0.000423733965             0.00039531643           
       0.512428            6.62189027e-05             0.00015923812           
       0.513107            -0.00032119993                         0           
       0.513786           -0.000321220161                         0           
       0.514465            0.000431633462            0.000404023001           
       0.515144            0.000518782943            0.000467074142           
       0.515823            8.17268251e-05            0.000181013704           
       0.516503           -0.000321302243                         0           
       0.517182            0.000106367819            0.000212632417           
       0.517861            9.99506805e-05            0.000206857441           
       0.518540           -0.000321363952                         0           
       0.519219           -0.000321384463                         0           
       0.519898           -0.000321405181                         0           
       0.520578           -0.000321426024                         0           
       0.521257            0.000180862703            0.000299276474           
       0.521936            -0.00032146722                         0           
       0.522615            -0.00032148809                         0           
       0.523294           -0.000321509038                         0           
       0.523973           -0.000321529695                         0           
       0.524653           -0.000321550204                         0           
       0.525332           -0.000321571012                         0           
       0.526011            0.000199882568            0.000322064611           
       0.526690           -0.000321613335                         0           
       0.527369            0.000201092321            0.000327319209           
       0.528048            0.000182806529            0.000304764168           
       0.528728            0.000206190723            0.000330733431           
       0.529407           -0.000321697502                         0           
       0.530086            0.000215399287             0.00033731794           
       0.530765           -0.000321739303                         0           
       0.531444           -0.000321760443                         0           
       0.532123           -0.000321781958                         0           
       0.532802           -0.000321803297                         0           
       0.533482           -0.000321824563                         0           
       0.534161           -0.000321845863                         0           
       0.534840           -0.000321866981                         0           
       0.535519            -0.00032188849                         0           
       0.536198           -0.000321909776                         0           
       0.536877           -0.000321930769                         0           
       0.537557           -0.000321952123                         0           
       0.538236           -0.000321973669                         0           
       0.538915           -0.000321995208                         0           
       0.539594           -0.000322016717                         0           
       0.540273           -0.000322038563                         0           
       0.540952           -0.000322060165                         0           
       0.541632           -0.000322081373                         0           
       0.542311           -0.000322102775                         0           
       0.542990           -0.000322124417                         0           
       0.543669           -0.000322146239                         0           
       0.544348           -0.000322168036                         0           
       0.545027           -0.000322189786                         0           
       0.545707           -0.000322211601                         0           
       0.546386           -0.000322233478                         0           
       0.547065             0.00042193434            0.000560546459           
       0.547744            0.000435989324            0.000580680099           
       0.548423           -0.000322298756                         0           
       0.549102            -0.00032232073                         0           
       0.549782           -0.000322342593                         0           
       0.550461            0.000497325101            0.000641156873           
       0.551140            0.000452366938            0.000591587052           
       0.551819           -0.000322408965                         0           
       0.552498             0.00134951333             0.00105627608           
       0.553177            0.000522878385            0.000666708722           
       0.553856           -0.000322474824                         0           
       0.554536           -0.000322496774                         0           
       0.555215           -0.000322519059                         0           
       0.555894           -0.000322541292                         0           
       0.556573           -0.000322563656                         0           
       0.557252            0.000590862244            0.000732464952           
       0.557931           -0.000322608247                         0           
       0.558611           -0.000322631011                         0           
       0.559290           -0.000322653197                         0           
       0.559969           -0.000322674837                         0           
       0.560648           -0.000322697051                         0           
       0.561327            -0.00032271976                         0           
       0.562006            0.000583062223            0.000744784054           
       0.562686            0.000842405099             0.00101398817           
       0.563365            0.000696099206            0.000840750924           
       0.564044           -0.000322810264                         0           
       0.564723             -0.0003228328                         0           
       0.565402           -0.000322854915                         0           
       0.566081           -0.000322877177                         0           
       0.566761           -0.000322899679                         0           
       0.567440           -0.000322922638                         0           
       0.568119           -0.000322945416                         0           
       0.568798           -0.000322968514                         0           
       0.569477           -0.000322991463                         0           
       0.570156           -0.000323014524                         0           
       0.570836           -0.000323037499                         0           
       0.571515           -0.000323059987                         0           
       0.572194           -0.000323083128                         0           
       0.572873           -0.000323105739                         0           
       0.573552           -0.000323128217                         0           
       0.574231            -0.00032315115                         0           
       0.574911           -0.000323174662                         0           
       0.575590             0.00137486192             0.00153066906           
       0.576269           -0.000323220711                         0           
       0.576948             0.00154722965             0.00169719925           
       0.577627           -0.000323266857                         0           
       0.578306           -0.000323289894                         0           
       0.578985           -0.000323313127                         0           
       0.579665           -0.000323336227                         0           
       0.580344           -0.000323359676                         0           
       0.581023             -0.0003233831                         0           
       0.581702           -0.000323406307                         0           
       0.582381           -0.000323429303                         0           
       0.583060           -0.000323452986                         0           
       0.583740           -0.000323476296                         0           
       0.584419           -0.000323499684                         0           
       0.585098           -0.000323523043                         0           
       0.585777           -0.000323546585                         0           
       0.586456            -0.00032357051                         0           
       0.587135           -0.000323593799                         0           
       0.587815           -0.000323616836                         0           
       0.588494           -0.000323640592                         0           
       0.589173           -0.000323664892                         0           
       0.589852           -0.000323687902                         0           
       0.590531           -0.000323711779                         0           
       0.591210           -0.000323735104                         0           
       0.591890           -0.000323758881                         0           
       0.592569           -0.000323781862                         0           
       0.593248           -0.000323806987                         0           
       0.593927           -0.000323830875                         0           
       0.594606           -0.000323855255                         0           
       0.595285           -0.000323878182                         0           
       0.595965           -0.000323899576                         0           
       0.596644           -0.000323921592                         0           
