################################################################################
# EDF_DataBlockID                     0.Image.Psd
# EDF_BinarySize                      2105344
# EDF_HeaderSize                      2560
# ByteOrder                           LowByteFirst
# DataType                            FloatValue
# Dim_1                               512
# Dim_2                               1028
# Image                               0
# HeaderID                            EH:000000:000000:000000
# Size                                2105344
# Center_1                            304.9000
# Center_2                            588.7000
# Comment                             Xenocs_Cell_Window - 20251028_20perc_iodine_1.23mg
# DDummy                              0.6
# Date                                2025-11-02T14:24:42
# Delta                               21.910000
# Dummy                               -1.5
# ExposureTime                        360
# Gamma                               15.360000
# Intensity1                          8.73963e-10
# PSize_1                             7.5e-05
# PSize_2                             7.5e-05
# Pressure                            0.0324821
# SampleDistance                      0.115750
# SampleEnvKind                       large
# SampleEnvPN                         ElectroChemical cell
# SampleEnvSN                         1141
# Thickness                           0
# Wavelength                          1.541891e-10
# Wavelength                          1.54189e-10
# aux                                 0
# aux_dial                            0.002375
# beamx                               588.434
# beamx_dial                          588.434
# beamz                               657.808
# beamz_dial                          657.808
# det0x                               0
# det0x_dial                          6.36945
# det0xvd                             0
# det0xvd_dial                        0
# det0y                               450.002
# det0y_dial                          481.635
# det0z                               0
# det0z_dial                          1.23302
# det0zvd                             0
# det0zvd_dial                        0
# mag                                 1.818
# mag_dial                            1.818
# om                                  0.2499
# om_dial                             -0.610199
# phi                                 -0.0120535
# phi_dial                            0
# ry                                  0.599993
# ry_dial                             0.599993
# s1bot                               0.8
# s1bot_dial                          -1.66094
# s1hl                                0.8
# s1hl_dial                           -0.608437
# s1hr                                0.8
# s1hr_dial                           0.970938
# s1top                               0.8
# s1top_dial                          -0.461562
# s2bot                               0.45
# s2bot_dial                          1.36109
# s2hl                                0.45
# s2hl_dial                           -0.83375
# s2hr                                0.45
# s2hr_dial                           -0.118594
# s2top                               0.45
# s2top_dial                          1.44734
# w2theta                             32
# w2theta_dial                        32
# waxsch                              19.2605
# waxsch_dial                         -32.7355
# waxsh                               137.085
# waxsh_dial                          -43.5338
# waxsth                              26.0607
# waxsth_dial                         -19.4086
# waxsz                               67.0407
# waxsz_dial                          -23.7954
# wind                                65.9854
# wind_dial                           66.0041
# wpsi                                124
# wpsi_dial                           124
# wstod                               115
# wstod_dial                          115
# x                                   0
# x_dial                              1.00969
# z                                   0
# z_dial                              13.3172
# CountCutoff                         6807993
# DetectorModel                       Dectris EIGER2 Si 500K, S/N E-01-0554
# ThresholdSetting                    4023.88989258
# Saturation                          0
# FlatField                           Corrected
# BackgroundReductionExtra            0.02
# BackgroundCorrectionConstant        0.0026712
# Detector                            0
# Monitor                             0
# Pil_Roi0                            0
# SumForIntensity1                    3.14627e+08
# TransmittedFlux                     873963
# det                                 0
# mon                                 0
# pilai0                              3.14627e+08
# pilai1                              792270
# pilct0                              5.44357e+08
# pilct1                              792270
# pilroi0                             0
# pilroi1                             0
# sec                                 1
# title                               20251028_20perc_iodine_1.23mg_1_01091.edf
# usaxs0                              0
# Operation                           Azimuthal average I(q)
# Error_model                         ErrorModel.poisson
# Geometrical_correction              True
# Transmission_correction             True
# Thickness_correction                False
# Binning mode                        Uniform
# Binning factor                      1.0
# Psi                                 0.0
# Omega                               0.2499
# MaskInvalidPixels                   True
# DetectorEdge                        3
# MaskFiles                           ['WAXS_corrected.edf']
################################################################################
    q(A⁻¹)                Intensity(a.u.)            Sigma_I(a.u.)            
       0.693100              0.0080897854             0.00593111091           
       0.695741              0.0053981271             0.00395363722           
       0.698381             0.00818666484             0.00596405482           
       0.701021           -2.31946077e-05                         0           
       0.703662              0.0110745119             0.00566033411           
       0.706302             0.00516577714             0.00299298649           
       0.708942             0.00555548999             0.00400607581           
       0.711583             0.00639239372             0.00372113589           
       0.714223             0.00570696332             0.00405925405           
       0.716864             0.00366340539             0.00212792818           
       0.719504              0.0057630597             0.00288010877           
       0.722144             0.00489740304             0.00245873697           
       0.724785             0.00312449182              0.0015665716           
       0.727425             0.00428410373             0.00248159319           
       0.730065             0.00501039288             0.00189835621           
       0.732706             0.00599327714             0.00174350317           
       0.735346             0.00769260736             0.00257484717           
       0.737987             0.00860036316             0.00192384527           
       0.740627             0.00568044993             0.00233286494           
       0.743267             0.00854222289             0.00191613382           
       0.745908             0.00404324547             0.00143025728           
       0.748548              0.0064850664             0.00166963199           
       0.751189             0.00467902168             0.00191098643           
       0.753829             0.00328236147             0.00147129033           
       0.756469             0.00469425018             0.00141880151           
       0.759110             0.00664489199              0.0017789061           
       0.761750              0.0066888322             0.00157813763           
       0.764390             0.00971802195             0.00199096731           
       0.767031              0.0075747952             0.00152215823           
       0.769671               0.007157484             0.00184573431           
       0.772312              0.0065818894             0.00134745923           
       0.774952             0.00503410037             0.00159133273           
       0.777592             0.00826571771             0.00148524307           
       0.780233             0.00500564731             0.00139447632           
       0.782873             0.00961406411             0.00184831998           
       0.785513             0.00689135925              0.0016729381           
       0.788154              0.0070746704             0.00141796138           
       0.790794             0.00647085404             0.00162125428           
       0.793435             0.00590266913              0.0013910565           
       0.796075             0.00547713963             0.00129081386           
       0.798715             0.00677653823             0.00169669353           
       0.801356             0.00774175205             0.00156082783           
       0.803996             0.00616638545              0.0014201801           
       0.806637             0.00619782524             0.00113307843           
       0.809277             0.00876175897             0.00145820067           
       0.811917             0.00996931166             0.00145409197           
       0.814558             0.00889895882             0.00142783738           
       0.817198             0.00704492861             0.00120695891           
       0.819838              0.0048429564              0.0010127953           
       0.822479             0.00938702331             0.00165576785           
       0.825119             0.00612113912             0.00113800808           
       0.827760             0.00675182076             0.00121068876           
       0.830400             0.00728697893             0.00118378005           
       0.833040             0.00652628275             0.00117371827           
       0.835681              0.0070596298             0.00138776834           
       0.838321             0.00653533157             0.00112071076           
       0.840961             0.00862190662             0.00140251455           
       0.843602             0.00741263329             0.00119256115           
       0.846242             0.00687284609             0.00114814814           
       0.848883             0.00682934223             0.00117123983           
       0.851523             0.00902262892             0.00132951859           
       0.854163             0.00731506828             0.00127308156           
       0.856804             0.00839713749             0.00122641825           
       0.859444             0.00788196637             0.00116420834           
       0.862085             0.00781444215             0.00120818779           
       0.864725             0.00665603293             0.00114113554           
       0.867365             0.00757951803             0.00112918785           
       0.870006             0.00744660952             0.00106655333           
       0.872646             0.00638441697             0.00103559432           
       0.875286             0.00713979835             0.00105359819           
       0.877927             0.00738408919             0.00103391977           
       0.880567             0.00639322455            0.000996704975           
       0.883208             0.00791495925             0.00109855081           
       0.885848              0.0079919223             0.00114615848           
       0.888488             0.00693406962             0.00100135346           
       0.891129             0.00836333667             0.00112918546           
       0.893769             0.00782326188             0.00104518499           
       0.896410             0.00627629918            0.000872831098           
       0.899050             0.00821658618             0.00109827079           
       0.901690             0.00903880794             0.00125476689           
       0.904331              0.0082348033             0.00106179285           
       0.906971             0.00588618818            0.000955002797           
       0.909611              0.0075661273            0.000985640429           
       0.912252             0.00724802747            0.000996432233           
       0.914892             0.00846686868             0.00117688687           
       0.917533             0.00584111811            0.000924721079           
       0.920173             0.00705079293            0.000942622284           
       0.922813             0.00883376479             0.00110720353           
       0.925454             0.00618901811            0.000834518274           
       0.928094             0.00870581497             0.00105665175           
       0.930734             0.00788639584             0.00108274228           
       0.933375             0.00710830432             0.00101783716           
       0.936015             0.00696037647            0.000914744471           
       0.938656             0.00777304578             0.00103701041           
       0.941296             0.00806994146              0.0009575972           
       0.943936             0.00818858267            0.000945950241           
       0.946577              0.0069946333            0.000868491705           
       0.949217              0.0078417346            0.000845636727           
       0.951858             0.00629699706            0.000793246933           
       0.954498             0.00776305836             0.00101946532           
       0.957138             0.00779245891            0.000967630993           
       0.959779             0.00887924907             0.00101823262           
       0.962419             0.00771611032             0.00094288704           
       0.965059             0.00789769054             0.00100327091           
       0.967700             0.00651934025            0.000933585498           
       0.970340             0.00720423396            0.000868442119           
       0.972981             0.00839689662            0.000854221491           
       0.975621             0.00877990982            0.000929238954           
       0.978261             0.00824993273            0.000855877428           
       0.980902              0.0092361474             0.00108349371           
       0.983542              0.0071690035            0.000845338968           
       0.986182             0.00721370621            0.000832532181           
       0.988823             0.00789031564            0.000845452081           
       0.991463             0.00855435338            0.000939198419           
       0.994104             0.00685180963            0.000819974851           
       0.996744             0.00941193516            0.000980243834           
       0.999384             0.00792680555            0.000804532796           
       1.002025             0.00692679336            0.000839414312           
       1.004665             0.00858651516            0.000854094894           
       1.007306             0.00857006012            0.000848908577           
       1.009946             0.00812447854            0.000842960712           
       1.012586             0.00820248213            0.000824925881           
       1.015227             0.00831638379            0.000892360633           
       1.017867             0.00734766258            0.000806124985           
       1.020507             0.00823538364            0.000826666346           
       1.023148             0.00745079628            0.000848441951           
       1.025788             0.00810240807            0.000811259572           
       1.028429             0.00918389634            0.000904874765           
       1.031069             0.00934394243             0.00085890955           
       1.033709              0.0074851699            0.000817179488           
       1.036350             0.00820862066            0.000768589002           
       1.038990             0.00798753234            0.000772100275           
       1.041630             0.00666089996            0.000735397864           
       1.044271             0.00738666536            0.000728319852           
       1.046911             0.00795654326            0.000795100512           
       1.049552             0.00825710501            0.000850985637           
       1.052192             0.00936721662            0.000827646111           
       1.054832             0.00907346183             0.00082197528           
       1.057473             0.00877602163            0.000796902159           
       1.060113             0.00881079449            0.000778734504           
       1.062754             0.00790150912            0.000752930946           
       1.065394             0.00906119364            0.000852460012           
       1.068034             0.00956525686            0.000796903208           
       1.070675             0.00969185803            0.000836751003           
       1.073315             0.00958472267             0.00084404061           
       1.075955             0.00800699557            0.000728293871           
       1.078596             0.00793980724            0.000770777528           
       1.081236             0.00856633447            0.000766637328           
       1.083877             0.00957277983            0.000803152485           
       1.086517             0.00820441063            0.000797289409           
       1.089157             0.00874661029            0.000854175652           
       1.091798              0.0093494174            0.000774245598           
       1.094438             0.00934523284            0.000771573945           
       1.097078             0.00802343181            0.000685691391           
       1.099719             0.00829685366            0.000754211664           
       1.102359             0.00769409505            0.000680187477           
       1.105000             0.00893714077            0.000819722124           
       1.107640             0.00915547451            0.000793303816           
       1.110280             0.00868117131            0.000704830761           
       1.112921              0.0087692136            0.000760970321           
       1.115561             0.00920177666             0.00074086163           
       1.118202             0.00837255809            0.000707358169           
       1.120842               0.008319097            0.000741060686           
       1.123482             0.00875720452            0.000757002716           
       1.126123             0.00757006431            0.000675085769           
       1.128763             0.00946317529            0.000759967657           
       1.131403             0.00929621259            0.000725805097           
       1.134044              0.0100932806            0.000778214945           
       1.136684             0.00879819457            0.000774654442           
       1.139325             0.00914331408            0.000727472285           
       1.141965             0.00890271352            0.000722582525           
       1.144605             0.00931892025            0.000704905821           
       1.147246             0.00837361624             0.00068384231           
       1.149886             0.00848837868            0.000686068294           
       1.152527             0.00946088733            0.000734836877           
       1.155167             0.00856596865            0.000665063808           
       1.157807             0.00938073566            0.000746208999           
       1.160448             0.00895542702            0.000711981676           
       1.163088             0.00946601193            0.000698217243           
       1.165728              0.0102083761            0.000744452403           
       1.168369             0.00795432402            0.000663214618           
       1.171009             0.00925087805            0.000694108447           
       1.173650             0.00883191798            0.000696003848           
       1.176290             0.00806188444            0.000649825396           
       1.178930              0.0087019407            0.000661687419           
       1.181571             0.00910075609            0.000690099148           
       1.184211               0.008737194            0.000678571858           
       1.186851             0.00876001998            0.000664295969           
       1.189492             0.00816124813            0.000636877289           
       1.192132              0.0101074955            0.000700807782           
       1.194773             0.00872855651            0.000654096406           
       1.197413             0.00919308159            0.000643177426           
       1.200053             0.00890958314            0.000649270738           
       1.202694              0.0106550326            0.000675194526           
       1.205334             0.00964337692             0.00069224327           
       1.207975             0.00957660067             0.00065847399           
       1.210615              0.0101792284            0.000748915418           
       1.213255             0.00968283732            0.000654080327           
       1.215896              0.0106244087             0.00069755859           
       1.218536             0.00941693315            0.000631468469           
       1.221176              0.0101575514            0.000713022031           
       1.223817             0.00960214842             0.00065076968           
       1.226457              0.0115232441            0.000727265414           
       1.229098              0.0102735429            0.000686664372           
       1.231738             0.00972060492            0.000671217451           
       1.234378             0.00931100941            0.000617278615           
       1.237019             0.00920717032            0.000632542839           
       1.239659              0.0109772466            0.000684658254           
       1.242299              0.0109219529            0.000674254986           
       1.244940             0.00952805229            0.000612482509           
       1.247580              0.0102554976            0.000654866011           
       1.250221              0.0100262269            0.000643509243           
       1.252861             0.00927365614            0.000589183615           
       1.255501               0.010509565            0.000681037333           
       1.258142             0.00957283012            0.000610771041           
       1.260782              0.0103296656            0.000648183714           
       1.263423              0.0103582175            0.000623691416           
       1.266063              0.0111177735            0.000662289525           
       1.268703              0.0106082812            0.000641567937           
       1.271344              0.0109350329            0.000673449177           
       1.273984              0.0109583372            0.000651111758           
       1.276624              0.0101114555            0.000613696357           
       1.279265              0.0108093826            0.000645059924           
       1.281905              0.0100043128            0.000623327732           
       1.284546              0.0103015774            0.000611388531           
       1.287186             0.00991154535            0.000588372126           
       1.289826              0.0114821254            0.000667420309           
       1.292467              0.0106869042            0.000629711495           
       1.295107              0.0094818046            0.000587253328           
       1.297747                0.01022822            0.000583652381           
       1.300388              0.0102366765            0.000636517742           
       1.303028              0.0120896503            0.000660368926           
       1.305669              0.0104630212            0.000628967304           
       1.308309              0.0103428967            0.000619188142           
       1.310949              0.0112045869            0.000643817521           
       1.313590              0.0109185099            0.000615678928           
       1.316230              0.0110054378            0.000659625141           
       1.318871              0.0103989617             0.00062796946           
       1.321511              0.0108538111            0.000629664717           
       1.324151               0.010176605            0.000591629396           
       1.326792              0.0110727514             0.00062094449           
       1.329432              0.0120262601            0.000642561502           
       1.332072              0.0115120591            0.000619305421           
       1.334713              0.0107332779            0.000617185938           
       1.337353              0.0121584256            0.000629964601           
       1.339994              0.0117996054            0.000651257047           
       1.342634              0.0111854534            0.000608044907           
       1.345274              0.0121586733            0.000656074063           
       1.347915              0.0115123012            0.000620767759           
       1.350555              0.0106056734            0.000606258069           
       1.353195              0.0119449192            0.000646558505           
       1.355836              0.0111203805            0.000614116386           
       1.358476              0.0107977423            0.000587684816           
       1.361117              0.0107998422            0.000588548707           
       1.363757              0.0116641197            0.000630321679           
       1.366397              0.0109288469            0.000591668161           
       1.369038               0.010132272            0.000575370286           
       1.371678              0.0107772799            0.000588169974           
       1.374319              0.0112218236            0.000595009835           
       1.376959              0.0120593992            0.000610612447           
       1.379599              0.0118304281            0.000648149415           
       1.382240              0.0111061124            0.000590220688           
       1.384880              0.0113983925            0.000633350814           
       1.387520              0.0104403105            0.000575678201           
       1.390161              0.0113759074            0.000570728912           
       1.392801              0.0111098838            0.000587650249           
       1.395442              0.0112723883            0.000600016874           
       1.398082              0.0113043926            0.000562686744           
       1.400722              0.0118805261            0.000604234359           
       1.403363              0.0101460934            0.000587772475           
       1.406003               0.010666257            0.000564000334           
       1.408644               0.010396827            0.000583317138           
       1.411284              0.0113542384            0.000577221663           
       1.413924              0.0104416586             0.00055148706           
       1.416565               0.011721457            0.000582012165           
       1.419205              0.0104311222            0.000572740013           
       1.421845              0.0105025201            0.000574359337           
       1.424486              0.0104661398            0.000551134308           
       1.427126              0.0115824817            0.000602281742           
       1.429767              0.0117059533            0.000569686328           
       1.432407              0.0118649683             0.00060022575           
       1.435047              0.0103042603            0.000525329868           
       1.437688              0.0108209454            0.000546388668           
       1.440328              0.0115438341            0.000575976674           
       1.442968              0.0107994759             0.00056957957           
       1.445609              0.0102321003             0.00053682807           
       1.448249              0.0106297595            0.000561013983           
       1.450890              0.0104072993            0.000551489279           
       1.453530              0.0110569597             0.00059470433           
       1.456170              0.0116209161            0.000591710745           
       1.458811              0.0114204302            0.000560904473           
       1.461451              0.0107002728            0.000544355814           
       1.464092              0.0116744129             0.00057231228           
       1.466732              0.0113950237             0.00056056377           
       1.469372              0.0119638014             0.00056094123           
       1.472013              0.0118922392            0.000603174233           
       1.474653              0.0105682772            0.000559836622           
       1.477293              0.0107179541            0.000575669874           
       1.479934              0.0112568709            0.000562950054           
       1.482574              0.0108394523            0.000534374255           
       1.485215              0.0115067068             0.00056083074           
       1.487855              0.0101295822             0.00053314293           
       1.490495               0.010316961            0.000536069824           
       1.493136              0.0105229233            0.000533973461           
       1.495776               0.010971111            0.000542743676           
       1.498416              0.0113141329            0.000569195551           
       1.501057               0.012125403            0.000576262954           
       1.503697               0.010828831            0.000532415911           
       1.506338              0.0122153686            0.000575808362           
       1.508978              0.0109815003            0.000540584261           
       1.511618             0.00937608481            0.000531974653           
       1.514259              0.0116472569            0.000572431087           
       1.516899              0.0105130991            0.000529526727           
       1.519540              0.0109096602            0.000548119903           
       1.522180              0.0109443998            0.000553814512           
       1.524820              0.0103009523            0.000534273445           
       1.527461              0.0106629422            0.000546268318           
       1.530101             0.00979638986            0.000518364487           
       1.532741              0.0110668092            0.000547754187           
       1.535382              0.0115508197            0.000568613051           
       1.538022              0.0108924052            0.000520172783           
       1.540663              0.0100496082            0.000537397504           
       1.543303              0.0112438609            0.000527798743           
       1.545943             0.00988644946              0.0005238312           
       1.548584              0.0106378153            0.000553126061           
       1.551224              0.0107204862            0.000513400688           
       1.553864               0.010421112            0.000534875302           
       1.556505              0.0108763515            0.000527868682           
       1.559145              0.0106306875            0.000528266046           
       1.561786              0.0102782906            0.000519836554           
       1.564426              0.0102082941            0.000501949539           
       1.567066              0.0103011526            0.000528333433           
       1.569707              0.0108347202            0.000532110491           
       1.572347              0.0106318077              0.0005445514           
       1.574988               0.010279387             0.00050965863           
       1.577628             0.00961262364            0.000513923376           
       1.580268              0.0102014556            0.000512961199           
       1.582909             0.00973799523            0.000531224131           
       1.585549             0.00973225521            0.000515649611           
       1.588189              0.0103691454            0.000520637952           
       1.590830             0.00942538233             0.00049575648           
       1.593470             0.00962728655            0.000520877278           
       1.596111             0.00966780369            0.000509607022           
       1.598751             0.00935834483            0.000485824899           
       1.601391             0.00965790858            0.000504428197           
       1.604032             0.00940907837            0.000508296073           
       1.606672             0.00983171477            0.000504827598           
       1.609312             0.00939889682            0.000515250877           
       1.611953              0.0102865224            0.000527476461           
       1.614593               0.009714271            0.000502814563           
       1.617234             0.00954235733            0.000516473728           
       1.619874              0.0101492514            0.000530540362           
       1.622514             0.00914636623            0.000496775904           
       1.625155              0.0095251603            0.000509953316           
       1.627795             0.00921125676            0.000489192954           
       1.630436             0.00953006889            0.000494988474           
       1.633076             0.00904994842            0.000488685029           
       1.635716             0.00901930305            0.000480266285           
       1.638357              0.0094687001            0.000493382814           
       1.640997             0.00944329242            0.000507645916           
       1.643637              0.0094328001            0.000493722181           
       1.646278             0.00943649064            0.000509334589           
       1.648918             0.00885883159            0.000494845074           
       1.651559             0.00943057308            0.000514526592           
       1.654199             0.00959974798            0.000504890888           
       1.656839             0.00935708922            0.000498642824           
       1.659480             0.00857938882            0.000495401345           
       1.662120             0.00920657222            0.000483340219           
       1.664761             0.00964290964            0.000513825489           
       1.667401             0.00900959732            0.000474706193           
       1.670041             0.00953745903             0.00049586172           
       1.672682             0.00865979698            0.000470553916           
       1.675322              0.0103217137            0.000510422371           
       1.677962             0.00846474918            0.000457133867           
       1.680603             0.00824918188            0.000452664222           
       1.683243             0.00860666163             0.00048239514           
       1.685884             0.00912141158            0.000500278581           
       1.688524             0.00879245022            0.000481680064           
       1.691164             0.00757081307             0.00044706795           
       1.693805             0.00971752582            0.000512064901           
       1.696445             0.00863962919            0.000485631276           
       1.699085             0.00924808416            0.000485605051           
       1.701726             0.00899604321             0.00046137717           
       1.704366             0.00832573176            0.000467589532           
       1.707007             0.00833046783            0.000457296467           
       1.709647             0.00836485936            0.000463414384           
       1.712287             0.00845584838            0.000469983521           
       1.714928             0.00837403069            0.000471475153           
       1.717568             0.00952070909            0.000473564257           
       1.720209             0.00873697369             0.00047517114           
       1.722849             0.00836850498             0.00046265256           
       1.725489             0.00855295969            0.000468116299           
       1.728130             0.00766830382            0.000471046702           
       1.730770             0.00853115129            0.000471866189           
       1.733410             0.00902816519              0.0004777865           
       1.736051             0.00943685005            0.000491881024           
       1.738691             0.00804033636            0.000444825302           
       1.741332              0.0075602555             0.00044395356           
       1.743972             0.00976623722            0.000521068027           
       1.746612              0.0078389233            0.000448276059           
       1.749253             0.00797041034            0.000460946695           
       1.751893             0.00941031449            0.000497179116           
       1.754533             0.00903810962            0.000486792459           
       1.757174             0.00886853783            0.000477688673           
       1.759814             0.00837213723            0.000457092016           
       1.762455             0.00802058001             0.00045560721           
       1.765095             0.00873613595            0.000454870285           
       1.767735             0.00815678593            0.000453088329           
       1.770376             0.00928204854            0.000484605873           
       1.773016             0.00958282804             0.00048909677           
       1.775657             0.00912124581            0.000470306228           
       1.778297             0.00797604969            0.000436005259           
       1.780937             0.00886635393            0.000485208525           
       1.783578             0.00961656215            0.000492684093           
       1.786218             0.00854326299            0.000484627989           
       1.788858             0.00830345294            0.000453773629           
       1.791499             0.00849110406            0.000453718874           
       1.794139             0.00795460845            0.000435588379           
       1.796780             0.00836018994            0.000444402197           
       1.799420             0.00908180896            0.000460619804           
       1.802060             0.00968635966            0.000479546311           
       1.804701             0.00869489617             0.00043600683           
       1.807341             0.00842429035            0.000450962661           
       1.809981             0.00823904255            0.000447463732           
       1.812622             0.00876929095            0.000453327182           
       1.815262             0.00867028786            0.000460336145           
       1.817903             0.00911844513            0.000465088582           
       1.820543             0.00895138906            0.000467988955           
       1.823183             0.00824218854            0.000448820661           
       1.825824             0.00813474826            0.000425981217           
       1.828464              0.0081429809            0.000444328503           
       1.831105             0.00798822967            0.000427918743           
       1.833745             0.00889273134            0.000461138285           
       1.836385              0.0087663438             0.00047091592           
       1.839026             0.00839433894            0.000459359889           
       1.841666             0.00779927669            0.000441208905           
       1.844306             0.00907154453            0.000462853038           
       1.846947             0.00815976949            0.000442824629           
       1.849587             0.00796417838            0.000483089656           
       1.852228             0.00826304902            0.000444953758           
       1.854868             0.00852010515            0.000477282921           
       1.857508             0.00850480094            0.000472177133           
       1.860149             0.00716652537            0.000441313165           
       1.862789             0.00919634139             0.00048253796           
       1.865429              0.0084611641            0.000483143174           
       1.868070              0.0075380368            0.000449948296           
       1.870710             0.00834146581            0.000462407609           
       1.873351             0.00849613986             0.00047244425           
       1.875991             0.00873761769            0.000486930324           
       1.878631              0.0078323525            0.000452186959           
       1.881272             0.00778674849            0.000447847657           
       1.883912             0.00836698634            0.000483132369           
       1.886553             0.00906228489            0.000497184632           
       1.889193             0.00888874221            0.000491559731           
       1.891833              0.0072965397            0.000462527358           
       1.894474             0.00844059348            0.000493135888           
       1.897114               0.007765289            0.000457709896           
       1.899754              0.0081303595             0.00047030511           
       1.902395             0.00781651856            0.000452122817           
       1.905035             0.00818067082            0.000489901637           
       1.907676             0.00791773609            0.000454252847           
       1.910316             0.00727300129            0.000446925164           
       1.912956             0.00797950599            0.000457830562           
       1.915597             0.00759176164            0.000449064283           
       1.918237             0.00880865608            0.000499562779           
       1.920878             0.00836633008            0.000484865458           
       1.923518             0.00761925029            0.000462907373           
       1.926158             0.00782960537            0.000463164661           
       1.928799             0.00824491041            0.000469788141           
       1.931439             0.00781973054            0.000469514757           
       1.934079             0.00785281446            0.000490491895           
       1.936720             0.00781392704            0.000453328354           
       1.939360             0.00729949231            0.000467446802           
       1.942001             0.00819522602            0.000453965742           
       1.944641              0.0084358166            0.000469653584           
       1.947281             0.00770253171            0.000444640637           
       1.949922               0.007764705            0.000461124308           
       1.952562             0.00701789356            0.000452129822           
       1.955202             0.00826818937            0.000490157058           
       1.957843             0.00854866218            0.000485476279           
       1.960483             0.00833262055            0.000501110173           
       1.963124             0.00829087805            0.000489598729           
       1.965764             0.00719098264            0.000429990373           
       1.968404             0.00788793839            0.000446091016           
       1.971045             0.00752579554            0.000444250125           
       1.973685              0.0084058702            0.000492478495           
       1.976326              0.0079057038            0.000471038037           
       1.978966             0.00745472844            0.000461419878           
       1.981606              0.0072620162            0.000464914751           
       1.984247             0.00730943238            0.000463363525           
       1.986887             0.00784187577            0.000474194207           
       1.989527             0.00811491132            0.000477183813           
       1.992168             0.00757079894            0.000478231579           
       1.994808             0.00844743592            0.000502995625           
       1.997449             0.00725939271            0.000456709604           
       2.000089             0.00824431116            0.000484776913           
       2.002729             0.00812972625            0.000481684861           
       2.005370             0.00739163567            0.000454356888           
       2.008010             0.00786390133            0.000489100351           
       2.010650                0.00712828            0.000469137258           
       2.013291             0.00798526475            0.000476400419           
       2.015931             0.00806037848            0.000475252389           
       2.018572             0.00796805391            0.000505407766           
       2.021212             0.00768236695            0.000487348357           
       2.023852             0.00743719242            0.000453832397           
       2.026493             0.00833354227            0.000501866516           
       2.029133             0.00823225806            0.000488769382           
       2.031774             0.00783609885            0.000500458079           
       2.034414             0.00787544983            0.000461645744           
       2.037054              0.0078016986            0.000471125358           
       2.039695             0.00644419247            0.000424945919           
       2.042335             0.00724887644            0.000468373225           
       2.044975              0.0073530023            0.000466004449           
       2.047616             0.00758124711            0.000472006393           
       2.050256             0.00777486683            0.000482519291           
       2.052897             0.00722591051            0.000473748725           
       2.055537             0.00710415859            0.000453986422           
       2.058177             0.00775976732            0.000464636352           
       2.060818              0.0065465733            0.000447076658           
       2.063458              0.0068506093            0.000476594138           
       2.066098             0.00740367584            0.000467383886           
       2.068739             0.00793838193            0.000491490096           
       2.071379             0.00753486714             0.00049132395           
       2.074020             0.00714035703            0.000467894133           
       2.076660             0.00732246628            0.000477653569           
       2.079300             0.00742110329            0.000492641948           
       2.081941             0.00828454762            0.000476588915           
       2.084581             0.00634267857            0.000440157537           
       2.087222             0.00732354093            0.000456133051           
       2.089862              0.0060825711            0.000452755056           
       2.092502             0.00754971014            0.000488954796           
       2.095143             0.00756506226            0.000505432064           
       2.097783             0.00717817185            0.000476666169           
       2.100423             0.00728638541            0.000462760925           
       2.103064             0.00742805466            0.000484822214           
       2.105704             0.00906343036            0.000532886538           
       2.108345             0.00804059296             0.00048220867           
       2.110985             0.00749547199            0.000497268726           
       2.113625             0.00772461481            0.000509217686           
       2.116266             0.00746133216             0.00050756488           
       2.118906             0.00719126535            0.000464382493           
       2.121546             0.00792557999            0.000478207638           
       2.124187             0.00806072137             0.00050623186           
       2.126827             0.00728456885            0.000486614053           
       2.129468             0.00731231146            0.000488785125           
       2.132108             0.00811469356            0.000500962911           
       2.134748             0.00735527838            0.000475095398           
       2.137389             0.00730911247            0.000494084595           
       2.140029             0.00755956597            0.000449849357           
       2.142670             0.00782859088            0.000489243469           
       2.145310             0.00622240668            0.000424538569           
       2.147950             0.00703020759            0.000464464371           
       2.150591             0.00755904953            0.000476749877           
       2.153231             0.00753829691            0.000490065775           
       2.155871             0.00736793874            0.000468055962           
       2.158512             0.00672208461            0.000466487172           
       2.161152             0.00756366425            0.000479320802           
       2.163793             0.00761687092            0.000478838311           
       2.166433             0.00762080649            0.000491843518           
       2.169073             0.00860511464            0.000511006812           
       2.171714             0.00819456832            0.000494940104           
       2.174354             0.00724585461            0.000486309006           
       2.176995              0.0072896904            0.000485725367           
       2.179635             0.00767896638            0.000526799765           
       2.182275             0.00651088421            0.000457993342           
       2.184916              0.0073440807             0.00046981473           
       2.187556             0.00768574265             0.00047580171           
       2.190196             0.00691456909            0.000471602752           
       2.192837             0.00684859609            0.000466793907           
       2.195477             0.00775912364            0.000473693401           
       2.198118             0.00717992023            0.000467346277           
       2.200758             0.00791301825            0.000503351918           
       2.203398             0.00771881113            0.000500317089           
       2.206039             0.00778942909            0.000475668854           
       2.208679             0.00867591692            0.000513689887           
       2.211319             0.00778272585            0.000489334838           
       2.213960             0.00752643859            0.000487657845           
       2.216600             0.00669393866            0.000475754003           
       2.219241             0.00688840735            0.000461249723           
       2.221881             0.00828501859            0.000506892039           
       2.224521              0.0069950202            0.000471468464           
       2.227162             0.00784256906            0.000489219226           
       2.229802             0.00753965199            0.000494694045           
       2.232443             0.00736091759            0.000481085565           
       2.235083             0.00764072833            0.000504601951           
       2.237723             0.00718026615            0.000469420991           
       2.240364             0.00670927639            0.000464942855           
       2.243004             0.00666499025            0.000459706693           
       2.245644             0.00621913558            0.000448509358           
       2.248285             0.00770846629            0.000489330126           
       2.250925             0.00702263033            0.000469892003           
       2.253566             0.00689920496            0.000497916454           
       2.256206              0.0071804209            0.000497806045           
       2.258846              0.0061931399            0.000439792158           
       2.261487             0.00700242087            0.000490836634           
       2.264127             0.00810080715            0.000509867224           
       2.266767             0.00666362852            0.000474752956           
       2.269408              0.0077924421            0.000515494332           
       2.272048             0.00717840675            0.000491814137           
       2.274689             0.00660756912            0.000478071516           
       2.277329             0.00640207307            0.000443080233           
       2.279969             0.00713034963            0.000497736828           
       2.282610             0.00828143015            0.000521491179           
       2.285250             0.00655849518            0.000444191248           
       2.287891             0.00751055671             0.00050963578           
       2.290531             0.00721357653            0.000506172284           
       2.293171             0.00657206431            0.000470623074           
       2.295812              0.0063145834            0.000459457591           
       2.298452             0.00830850386            0.000551132252           
       2.301092             0.00697623125            0.000469221604           
       2.303733             0.00719995375            0.000495919987           
       2.306373             0.00632304216            0.000472058681           
       2.309014             0.00639652501            0.000465531604           
       2.311654             0.00697749163             0.00050738659           
       2.314294             0.00636931894            0.000446620477           
       2.316935             0.00752077977            0.000487319878           
       2.319575             0.00736378351            0.000505240963           
       2.322215             0.00730676676            0.000524503928           
       2.324856             0.00662937267            0.000459330292           
       2.327496               0.006975153            0.000500987947           
       2.330137             0.00712671696            0.000484588553           
       2.332777             0.00739607765            0.000509017483           
       2.335417             0.00744810668            0.000495556966           
       2.338058             0.00702951861            0.000495811692           
       2.340698             0.00753211005            0.000509197139           
       2.343339             0.00766200614            0.000524870654           
       2.345979             0.00715432147              0.0004798361           
       2.348619             0.00815747958            0.000531102624           
       2.351260             0.00679128453             0.00048176884           
       2.353900             0.00666782067            0.000475857327           
       2.356540             0.00812980981            0.000524696381           
       2.359181             0.00657014865            0.000465075863           
       2.361821             0.00700307635            0.000463816056           
       2.364462             0.00679452035            0.000477815772           
       2.367102             0.00674723055            0.000489320365           
       2.369742             0.00732481839            0.000536635685           
       2.372383              0.0071387043            0.000479709244           
       2.375023             0.00684211826            0.000493691815           
       2.377663             0.00732943885            0.000488563022           
       2.380304              0.0077157075            0.000509629713           
       2.382944             0.00711686345            0.000466188689           
       2.385585             0.00840951026            0.000540468822           
       2.388225             0.00718429717             0.00049720089           
       2.390865             0.00632650292            0.000461782388           
       2.393506              0.0066450679            0.000464337192           
       2.396146             0.00703028044            0.000516409525           
       2.398787              0.0084572494            0.000521980646           
       2.401427             0.00725496779            0.000466647164           
       2.404067             0.00678635329            0.000461391785           
       2.406708             0.00737879672            0.000475340724           
       2.409348             0.00678447699            0.000483460742           
       2.411988             0.00753978411            0.000499356277           
       2.414629             0.00724824036            0.000504854932           
       2.417269             0.00661850854            0.000488058085           
       2.419910             0.00724139446            0.000511692604           
       2.422550             0.00665517811            0.000469322156           
       2.425190             0.00666332357            0.000495017216           
       2.427831             0.00650206483              0.0004862418           
       2.430471             0.00667001878            0.000469184029           
       2.433112             0.00706486527            0.000470201806           
       2.435752             0.00627331078            0.000468915468           
       2.438392             0.00704480324            0.000479622844           
       2.441033             0.00785258501             0.00053665509           
       2.443673             0.00667757926            0.000495258803           
       2.446313             0.00690705854            0.000504140969           
       2.448954             0.00769656614            0.000506704358           
       2.451594             0.00678682001            0.000511613693           
       2.454235             0.00784557481            0.000516110164           
       2.456875             0.00764240372            0.000532997887           
       2.459515              0.0067607183            0.000514288237           
       2.462156             0.00770869906            0.000518485694           
       2.464796             0.00735016446            0.000499752742           
       2.467436             0.00792146048            0.000536511646           
       2.470077             0.00793057937            0.000508808268           
       2.472717             0.00779842529            0.000506736711           
       2.475358             0.00765468152            0.000507279654           
       2.477998             0.00691984628            0.000474185317           
       2.480638             0.00671148621            0.000475289783           
       2.483279             0.00717196403             0.00051351214           
       2.485919             0.00698755659            0.000488482598           
       2.488560             0.00773373295             0.00051246691           
       2.491200             0.00746428307             0.00051843113           
       2.493840             0.00672910224            0.000520852802           
       2.496481             0.00607462666            0.000486780735           
       2.499121             0.00714590282            0.000513526742           
       2.501761             0.00613388406            0.000482079531           
       2.504402             0.00651445218            0.000489551107           
       2.507042             0.00638521676            0.000481080454           
       2.509683             0.00678194179            0.000488222886           
       2.512323             0.00771240826            0.000546799557           
       2.514963             0.00629974391            0.000488085268           
       2.517604             0.00761106283            0.000556684824           
       2.520244             0.00773361394            0.000526077946           
       2.522884             0.00684925475            0.000502166043           
       2.525525              0.0110718292             0.00064570914           
       2.528165             0.00792431154            0.000537755736           
       2.530806             0.00751572942            0.000532837141           
       2.533446             0.00741096723            0.000517816974           
       2.536086             0.00700035159            0.000498762923           
       2.538727              0.0075985169            0.000498511091           
       2.541367             0.00734692199            0.000495017094           
       2.544008             0.00689104349            0.000495116796           
       2.546648             0.00744134227            0.000523331596           
       2.549288             0.00823894765            0.000561884888           
       2.551929             0.00678929787             0.00050193262           
       2.554569             0.00681129691            0.000484352879           
       2.557209             0.00704643477            0.000497166615           
       2.559850             0.00701851658            0.000497774084           
       2.562490             0.00672679278            0.000503670697           
       2.565131             0.00839279573            0.000583323988           
       2.567771             0.00795666998            0.000547604302           
       2.570411             0.00637670481            0.000484925164           
       2.573052             0.00718602456            0.000521262034           
       2.575692             0.00751005862            0.000529658011           
       2.578332             0.00738532038            0.000527412925           
       2.580973             0.00740232749             0.00052299591           
       2.583613             0.00704000528            0.000497891342           
       2.586254             0.00717558052            0.000501964053           
       2.588894             0.00776860736            0.000542378195           
       2.591534             0.00763719768            0.000556694246           
       2.594175              0.0063952451            0.000499809639           
       2.596815             0.00774699696            0.000553344899           
       2.599456             0.00686114834            0.000493822924           
       2.602096             0.00779935596            0.000530511521           
       2.604736             0.00749726048            0.000532469361           
       2.607377             0.00590722899            0.000460189427           
       2.610017             0.00688565765            0.000488146483           
       2.612657              0.0067675389            0.000514744716           
       2.615298             0.00700994904            0.000511474193           
       2.617938             0.00699991542            0.000546754958           
       2.620579             0.00732033041            0.000536757755           
       2.623219             0.00639761704            0.000501074831           
       2.625859              0.0060039068            0.000471956543           
       2.628500             0.00684302352            0.000500556446           
       2.631140             0.00701320482            0.000514550508           
       2.633780             0.00720033306            0.000520916768           
       2.636421             0.00758865519            0.000547930377           
       2.639061             0.00696347156            0.000494109465           
       2.641702             0.00755561062            0.000526604571           
       2.644342             0.00721725591            0.000516871372           
       2.646982             0.00743362911            0.000516719971           
       2.649623                0.00767706            0.000550296706           
       2.652263             0.00768207617            0.000544952447           
       2.654904             0.00708940329            0.000524035657           
       2.657544             0.00627138672            0.000464238194           
       2.660184             0.00762418383            0.000541702627           
       2.662825             0.00745360548            0.000548034533           
       2.665465             0.00685308156             0.00050823915           
       2.668105             0.00736795388            0.000555462854           
       2.670746             0.00741811148            0.000514872834           
       2.673386             0.00754339707            0.000535079811           
       2.676027             0.00876331252            0.000567469567           
       2.678667              0.0106950333            0.000611699412           
       2.681307              0.0124253683            0.000647827421           
       2.683948              0.0143559757            0.000715456587           
       2.686588               0.011975742            0.000642622007           
       2.689229             0.00962850359            0.000563052455           
       2.691869             0.00996448444            0.000605384092           
       2.694509             0.00963683459            0.000595674987           
       2.697150             0.00799036286            0.000533607143           
       2.699790             0.00880974842            0.000587393401           
       2.702430             0.00831814192            0.000545586672           
       2.705071             0.00789754665            0.000549323094           
       2.707711             0.00655637721            0.000485783542           
       2.710352             0.00766700261            0.000555065947           
       2.712992             0.00603053642            0.000501379452           
       2.715632             0.00656664633            0.000485417568           
       2.718273             0.00649977617            0.000500501968           
       2.720913             0.00692722522            0.000515227188           
       2.723553              0.0075029308            0.000539807309           
       2.726194              0.0069192003            0.000541881717           
       2.728834             0.00720971599            0.000553400229           
       2.731475             0.00744959749            0.000519167026           
       2.734115              0.0079849076            0.000554177941           
       2.736755             0.00735280698            0.000536167926           
       2.739396             0.00686549374            0.000515094109           
       2.742036             0.00677136147              0.0005353703           
       2.744677             0.00744552973            0.000544702309           
       2.747317             0.00674821458              0.0005148704           
       2.749957              0.0076847945            0.000553295033           
       2.752598              0.0078596037            0.000565625237           
       2.755238             0.00780566459            0.000573856716           
       2.757878             0.00883641833            0.000605233308           
       2.760519             0.00956940719            0.000623157307           
       2.763159             0.00969500808            0.000620965428           
       2.765800             0.00845760369            0.000552716961           
       2.768440             0.00764960971             0.00052952496           
       2.771080             0.00826186798            0.000554901601           
       2.773721             0.00795397169            0.000558508728           
       2.776361             0.00753496939            0.000551098539           
       2.779001             0.00758861176            0.000572746279           
       2.781642             0.00705936331            0.000548341969           
       2.784282             0.00702662227            0.000556064867           
       2.786923             0.00717222157            0.000566742962           
       2.789563             0.00614028719            0.000505048264           
       2.792203             0.00712072149            0.000519557661           
       2.794844             0.00672628997            0.000553431185           
       2.797484             0.00651386421            0.000513990298           
       2.800125             0.00645477966            0.000538004248           
       2.802765             0.00791087599            0.000585357161           
       2.805405              0.0070194277            0.000553257024           
       2.808046              0.0067208783            0.000550880574           
       2.810686             0.00624896012            0.000488100072           
       2.813326             0.00624068369            0.000506665406           
       2.815967             0.00722367476            0.000560609192           
       2.818607             0.00755147787            0.000546978498           
       2.821248             0.00712834369             0.00052040004           
       2.823888             0.00679245753            0.000527308084           
       2.826528             0.00627708617            0.000490916328           
       2.829169             0.00728131194            0.000553814144           
       2.831809             0.00683392323            0.000543828305           
       2.834449             0.00587011098            0.000507207764           
       2.837090             0.00719072514            0.000542194239           
       2.839730             0.00786388764            0.000564237044           
       2.842371             0.00738759254            0.000547672274           
       2.845011              0.0066016694             0.00052184822           
       2.847651             0.00575639571            0.000487894242           
       2.850292             0.00619864953            0.000511258285           
       2.852932             0.00695747578             0.00055345299           
       2.855573              0.0059230275            0.000495348805           
       2.858213             0.00712165209            0.000570386293           
       2.860853             0.00694675753            0.000524034636           
       2.863494             0.00634345969            0.000518469958           
       2.866134             0.00671697083            0.000554523478           
       2.868774             0.00657607601            0.000539236855           
       2.871415             0.00638065749            0.000539437948           
       2.874055             0.00663562607            0.000525836988           
       2.876696             0.00637698995            0.000529430599           
       2.879336             0.00777577055             0.00056346027           
       2.881976             0.00682269083            0.000544389365           
       2.884617             0.00774654652            0.000571557958           
       2.887257             0.00724043429            0.000555423678           
       2.889897              0.0074364761            0.000551307888           
       2.892538             0.00642189139            0.000561249437           
       2.895178             0.00624733831            0.000500112926           
       2.897819             0.00673182002            0.000529575242           
       2.900459              0.0068911014            0.000525380669           
       2.903099             0.00709840384            0.000527766374           
       2.905740             0.00610948739            0.000502292876           
       2.908380             0.00650539291            0.000524201389           
       2.911021             0.00790714398            0.000587320779           
       2.913661             0.00661709998            0.000537117447           
       2.916301             0.00694158458            0.000550653856           
       2.918942             0.00691384401            0.000525660451           
       2.921582             0.00744738987            0.000570819556           
       2.924222              0.0060367723            0.000497893855           
       2.926863             0.00709958798            0.000562416876           
       2.929503             0.00753900247            0.000586426715           
       2.932144             0.00689331167             0.00053828754           
       2.934784             0.00679416023            0.000525639565           
       2.937424             0.00719527725            0.000546487213           
       2.940065             0.00642457846            0.000492588103           
       2.942705             0.00645026226            0.000492952512           
       2.945346             0.00683451049            0.000538504167           
       2.947986             0.00658430166            0.000538943231           
       2.950626             0.00724610922            0.000562196914           
       2.953267             0.00768264241            0.000569530498           
       2.955907             0.00763784849            0.000589084734           
       2.958547              0.0060270693            0.000494015912           
       2.961188              0.0061742975            0.000521653558           
       2.963828             0.00742748591            0.000559667713           
       2.966469             0.00739710523            0.000547908084           
       2.969109             0.00698407575            0.000540279901           
       2.971749             0.00764011208            0.000561560358           
       2.974390             0.00742463825            0.000543998458           
       2.977030             0.00691824818            0.000536854915           
       2.979670             0.00771156773            0.000551322594           
       2.982311             0.00981860225            0.000644773988           
       2.984951             0.00704371621            0.000519402807           
       2.987592             0.00721823022            0.000536329054           
       2.990232             0.00698129177            0.000548545549           
       2.992872             0.00816966893            0.000558948605           
       2.995513             0.00842049644            0.000555166805           
       2.998153              0.0104777528            0.000629687102           
       3.000794              0.0121835645            0.000657693569           
       3.003434              0.0119839986            0.000653269714           
       3.006074              0.0490865877             0.00130359586           
       3.008715               0.124598495             0.00200487066           
       3.011355               0.183738475             0.00234775381           
       3.013995              0.0935875054              0.0016801244           
       3.016636              0.0604083188             0.00132180887           
       3.019276               0.131873061             0.00191974196           
       3.021917               0.501649131             0.00360027801           
       3.024557                1.67381201             0.00646575617           
       3.027197                 1.1245728             0.00516702948           
       3.029838               0.516464567             0.00355127592           
       3.032478               0.260274454             0.00252360443           
       3.035118              0.0694119392             0.00132071887           
       3.037759              0.0976382944             0.00156438157           
       3.040399                 0.1359839             0.00190439091           
       3.043040               0.540805146             0.00384435696           
       3.045680               0.391853546             0.00307885577           
       3.048320              0.0826383586             0.00144465938           
       3.050961               0.103011963             0.00164136129           
       3.053601               0.083334698             0.00142185152           
       3.056242              0.0543432266             0.00122077066           
       3.058882              0.0456659869             0.00120043132           
       3.061522              0.0354746079             0.00103805765           
       3.064163              0.0404279779             0.00109420867           
       3.066803               0.102595432             0.00183511256           
       3.069443               0.105778633             0.00194955595           
       3.072084               0.053523901             0.00135036302           
       3.074724              0.0432884627             0.00135621055           
       3.077365              0.0855722342             0.00197388141           
       3.080005              0.0171544595            0.000888785825           
       3.082645              0.0087234713            0.000665823295           
       3.085286              0.0112296851            0.000761396883           
       3.087926             0.00962325942            0.000699404238           
       3.090566              0.0114529445            0.000747594809           
       3.093207              0.0107588517            0.000754007967           
       3.095847             0.00897774848            0.000660179236           
       3.098488             0.00872886825            0.000721807897           
       3.101128              0.0109464244              0.0008135099           
       3.103768             0.00855771445            0.000705760163           
       3.106409             0.00842654411            0.000745339953           
       3.109049             0.00898454854            0.000738568644           
       3.111690             0.00803766319             0.00068657412           
       3.114330             0.00805695185            0.000702020648           
       3.116970             0.00889751667            0.000743396153           
       3.119611              0.0120218748            0.000919794396           
       3.122251              0.0199741985             0.00124018068           
       3.124891              0.0356590651             0.00167248358           
       3.127532              0.0223690453              0.0012958917           
       3.130172              0.0132054571             0.00101288922           
       3.132813             0.00841245315            0.000795879037           
       3.135453             0.00921153821            0.000825961173           
       3.138093             0.00554043947            0.000694078767           
       3.140734             0.00733927764            0.000736997351           
       3.143374             0.00662185676            0.000740333657           
       3.146014              0.0064944519            0.000789298515           
       3.148655             0.00670773691            0.000745676918           
       3.151295             0.00593901935            0.000747716943           
       3.153936             0.00702184223            0.000785360317           
       3.156576             0.00503106482            0.000655730739           
       3.159216              0.0058451453            0.000710329876           
       3.161857             0.00553988646             0.00068871853           
       3.164497             0.00792147271            0.000865322375           
       3.167138             0.00865446922            0.000934540451           
       3.169778              0.0064224731             0.00079178492           
       3.172418             0.00612456633            0.000765338661           
       3.175059                0.00608686            0.000676413265           
       3.177699             0.00690434761            0.000762865429           
       3.180339             0.00627522069             0.00077922317           
       3.182980             0.00692628198            0.000846399304           
       3.185620             0.00503351256             0.00073482771           
       3.188261             0.00845828577            0.000969556071           
       3.190901             0.00591885267            0.000745935573           
       3.193541             0.00477200703            0.000703778735           
       3.196182             0.00552799156              0.0007893994           
       3.198822             0.00652539048            0.000857949842           
       3.201463             0.00651103119            0.000842240355           
       3.204103             0.00657989981              0.0008415316           
       3.206743             0.00548781194             0.00076845711           
       3.209384             0.00577734333             0.00085187243           
       3.212024             0.00534612314             0.00076399759           
       3.214664             0.00622400218            0.000937394197           
       3.217305             0.00661359952            0.000918522961           
       3.219945             0.00621325116            0.000916336157           
       3.222586             0.00550680112            0.000821679541           
       3.225226             0.00558236709            0.000917758264           
       3.227866             0.00590956295             0.00086305448           
       3.230507             0.00678213309            0.000958426351           
       3.233147             0.00538106872             0.00086060258           
       3.235787             0.00619777701            0.000945194471           
       3.238428             0.00686140546             0.00107320359           
       3.241068             0.00628457404            0.000960391238           
       3.243709             0.00800030861             0.00111951715           
       3.246349             0.00506596611            0.000812100199           
       3.248989             0.00508135749            0.000960365063           
       3.251630             0.00487423281            0.000905760961           
       3.254270             0.00387455896            0.000721734346           
       3.256911             0.00543142428            0.000932378016           
       3.259551             0.00426444532            0.000889439572           
       3.262191             0.00674402745             0.00114251517           
       3.264832             0.00526178447              0.0010544424           
       3.267472             0.00556888426             0.00101763737           
       3.270112               0.005657863             0.00113356786           
       3.272753             0.00647454452             0.00110994307           
       3.275393             0.00495341497            0.000990596814           
       3.278034              0.0065127888             0.00113650803           
       3.280674             0.00489336701             0.00106900126           
       3.283314             0.00747594092             0.00118172621           
       3.285955             0.00578832665             0.00107287157           
       3.288595             0.00543818164               0.001156945           
       3.291235             0.00569834282             0.00121744583           
       3.293876             0.00533154192             0.00119453296           
       3.296516             0.00617276944              0.0012339374           
       3.299157             0.00890551986             0.00146349483           
       3.301797             0.00500905664             0.00125200246           
       3.304437             0.00397687297            0.000966511334           
       3.307078             0.00508500754             0.00120390074           
       3.309718             0.00724361864             0.00148312573           
       3.312359             0.00609129528             0.00136037349           
       3.314999             0.00529739982              0.0012490693           
       3.317639             0.00514217531             0.00117694935           
       3.320280             0.00426689113              0.0011398762           
       3.322920             0.00537209476             0.00130053636           
       3.325560             0.00468577271             0.00121544756           
       3.328201              0.0050893452             0.00114082338           
       3.330841             0.00606934294              0.0015162513           
       3.333482             0.00371006809             0.00112054316           
       3.336122              0.0067422977               0.001511267           
       3.338762             0.00449568275             0.00142552646           
       3.341403             0.00661263076             0.00165201302           
       3.344043             0.00301442198             0.00107087035           
       3.346683             0.00517484431             0.00143243387           
       3.349324             0.00703199321             0.00187740763           
       3.351964             0.00390620324             0.00147965966           
       3.354605             0.00364910135             0.00163557924           
       3.357245             0.00939725917             0.00236775623           
       3.359885             0.00344708129             0.00114775111           
       3.362526             0.00473839606             0.00168281305           
       3.365166             0.00585731905             0.00176469829           
       3.367807             0.00256471924              0.0014944519           
       3.370447             0.00299322836             0.00133923126           
       3.373087              0.0020473349             0.00118442442           
       3.375728             0.00169032221             0.00121461009           
       3.378368             0.00376306733             0.00268963303           
       3.381008             0.00208485745             0.00149258253           
       3.383649             0.00344898402             0.00154003369           
       3.386289             0.00479202841             0.00214844808           
       3.388930           -2.57503647e-05                         0           
       3.391570             0.00836139625             0.00317548728           
       3.394210           -2.57963529e-05                         0           
       3.396851             0.00714970479              0.0041567968           
       3.399491             0.00715977569             0.00416089291           
       3.402131              0.0141781206             0.00828404886           
       3.404772           -2.58709642e-05                         0           
       3.407412                       nan                       nan           
       3.410053             0.00906244677             0.00938015487           
       3.412693                       nan                       nan           
       3.415333             0.00880420912             0.00925437338           
