################################################################################
# EDF_DataBlockID                     0.Image.Psd
# EDF_BinarySize                      4366944
# EDF_HeaderSize                      2560
# ByteOrder                           LowByteFirst
# DataType                            FloatValue
# Dim_1                               1028
# Dim_2                               1062
# Image                               0
# HeaderID                            EH:000000:000000:000000
# Size                                4366944
# Center_1                            607.5200
# Center_2                            651.5500
# Comment                             Xenocs_Cell_Window - 20251028_20perc_iodine_1.23mg
# DDummy                              0.6
# Date                                2025-11-01T12:52:23
# Delta                               0
# Dummy                               -1.5
# ExposureTime                        360
# Gamma                               0
# Intensity1                          8.65423e-10
# PSize_1                             7.5e-05
# PSize_2                             7.5e-05
# Pressure                            0.0325584
# SampleDistance                      0.450002
# SampleEnvKind                       large
# SampleEnvPN                         ElectroChemical cell
# SampleEnvSN                         1141
# Thickness                           0
# Wavelength                          1.541891e-10
# Wavelength                          1.54189e-10
# aux                                 0
# aux_dial                            0.002375
# beamx                               588.434
# beamx_dial                          588.434
# beamz                               657.808
# beamz_dial                          657.808
# det0x                               0
# det0x_dial                          6.36945
# det0xvd                             0
# det0xvd_dial                        0
# det0y                               450.002
# det0y_dial                          481.635
# det0z                               0
# det0z_dial                          1.23302
# det0zvd                             0
# det0zvd_dial                        0
# mag                                 1.818
# mag_dial                            1.818
# om                                  0.2499
# om_dial                             -0.610199
# phi                                 -0.0120535
# phi_dial                            0
# ry                                  0.599993
# ry_dial                             0.599993
# s1bot                               0.8
# s1bot_dial                          -1.66094
# s1hl                                0.8
# s1hl_dial                           -0.608437
# s1hr                                0.8
# s1hr_dial                           0.970938
# s1top                               0.8
# s1top_dial                          -0.461562
# s2bot                               0.45
# s2bot_dial                          1.36109
# s2hl                                0.45
# s2hl_dial                           -0.83375
# s2hr                                0.45
# s2hr_dial                           -0.118594
# s2top                               0.45
# s2top_dial                          1.44734
# w2theta                             32
# w2theta_dial                        32
# waxsch                              19.2605
# waxsch_dial                         -32.7355
# waxsh                               137.085
# waxsh_dial                          -43.5338
# waxsth                              26.0607
# waxsth_dial                         -19.4086
# waxsz                               67.0407
# waxsz_dial                          -23.7954
# wind                                65.9854
# wind_dial                           66.0041
# wpsi                                124
# wpsi_dial                           124
# wstod                               115
# wstod_dial                          115
# x                                   0
# x_dial                              1.00969
# z                                   0
# z_dial                              13.3172
# CountCutoff                         15302352
# DetectorModel                       Dectris EIGER2 Si 1M, S/N E-02-0362
# ThresholdSetting                    4023.88989258
# Saturation                          0
# FlatField                           Corrected
# BackgroundReductionExtra            0.02
# BackgroundCorrectionConstant        0.0026712
# Detector                            0
# Monitor                             0
# Pil_Roi0                            0
# SumForIntensity1                    3.11552e+08
# TransmittedFlux                     865423
# det                                 0
# mon                                 0
# pilai0                              3.11552e+08
# pilai1                              786110
# pilct0                              5.38787e+08
# pilct1                              786110
# pilroi0                             0
# pilroi1                             0
# sec                                 1
# title                               20251028_20perc_iodine_1.23mg_0_00859.edf
# usaxs0                              0
# Operation                           Azimuthal average I(q)
# Error_model                         ErrorModel.poisson
# Geometrical_correction              True
# Transmission_correction             True
# Thickness_correction                False
# Binning mode                        Uniform
# Binning factor                      1.0
# Psi                                 0.0
# Omega                               0.2499
# MaskInvalidPixels                   True
# DetectorEdge                        3
# MaskFiles                           ['20251028_20perc_iodine_1.23mg_0_00012_mask.edf']
################################################################################
    q(A⁻¹)                Intensity(a.u.)            Sigma_I(a.u.)            
       0.000340                371786.352                119.666837           
       0.001019                359460.385                72.0556861           
       0.001698                349537.967                50.2429297           
       0.002377                330794.456                43.7171592           
       0.003056                308057.871                35.6553768           
       0.003735                253551.723                28.5279138           
       0.004415                204746.538                25.6356963           
       0.005094                152687.721                19.1720982           
       0.005773                100712.565                14.4157145           
       0.006452                58612.3564                10.5370296           
       0.007131                32250.1309                7.57177615           
       0.007810                16208.1917                5.32701855           
       0.008490                8133.55219                3.34494975           
       0.009169                3923.94761                2.29615779           
       0.009848                 1207.7315                 1.2316318           
       0.010527                465.016853               0.764240954           
       0.011206                117.367187               0.366439952           
       0.011885                53.8245938               0.230562099           
       0.012564                25.0183705               0.161383383           
       0.013244                16.8979201               0.123995495           
       0.013923                12.4647415               0.108213285           
       0.014602                9.37089504              0.0870190632           
       0.015281                7.31830163              0.0782812755           
       0.015960                 6.1114699               0.071023408           
       0.016639                4.88031291              0.0599331528           
       0.017319                4.03013263              0.0536161637           
       0.017998                3.41099862              0.0471898072           
       0.018677                2.79418601              0.0442364469           
       0.019356                2.49763016              0.0413252748           
       0.020035                2.15235409              0.0359916538           
       0.020714                 1.8561945              0.0337776101           
       0.021394                1.60819593              0.0297479134           
       0.022073                1.43491912              0.0292354714           
       0.022752                1.25802843              0.0261863606           
       0.023431                1.10926553              0.0238684914           
       0.024110               0.982323496              0.0234175354           
       0.024789               0.891161016              0.0207143928           
       0.025469               0.815464148              0.0204196655           
       0.026148               0.715339639              0.0179695528           
       0.026827               0.648102882              0.0173779267           
       0.027506               0.617073385              0.0172013455           
       0.028185               0.563032252              0.0156692049           
       0.028864               0.526803576              0.0150716566           
       0.029544                0.46281156              0.0136988621           
       0.030223               0.425408879              0.0133219875           
       0.030902               0.413727379              0.0132580333           
       0.031581               0.392669313              0.0122782786           
       0.032260               0.343723928              0.0116833259           
       0.032939               0.325394019              0.0109607832           
       0.033619               0.297440701              0.0106334273           
       0.034298               0.283718718               0.010106534           
       0.034977               0.267282835             0.00961665422           
       0.035656               0.234546455             0.00924692737           
       0.036335               0.217013472             0.00862664601           
       0.037014               0.212076239              0.0085533876           
       0.037693               0.195355031             0.00789720792           
       0.038373               0.182489964             0.00770764843           
       0.039052               0.170375599             0.00747911088           
       0.039731               0.161738967             0.00711725931           
       0.040410               0.151577756             0.00684386837           
       0.041089               0.154198843             0.00679465971           
       0.041768               0.138316457             0.00646885109           
       0.042448               0.140046039              0.0064586623           
       0.043127               0.126973349             0.00600458843           
       0.043806               0.125533167             0.00601495503           
       0.044485               0.126615292             0.00591672583           
       0.045164               0.116948942              0.0057984619           
       0.045843               0.110027772             0.00539435276           
       0.046523               0.114735907             0.00552757901           
       0.047202               0.111061429             0.00547634924           
       0.047881               0.110611372             0.00535984871           
       0.048560              0.0955195902             0.00502619605           
       0.049239                0.10214408             0.00499059886           
       0.049918              0.0960037581             0.00493285398           
       0.050598              0.0961402941             0.00486229943           
       0.051277              0.0928547302             0.00476333037           
       0.051956              0.0870571706              0.0045832669           
       0.052635              0.0836076045             0.00439622516           
       0.053314              0.0888593993             0.00466470434           
       0.053993              0.0910229437             0.00459166303           
       0.054673              0.0749910861             0.00407488991           
       0.055352              0.0676497592             0.00392714503           
       0.056031               0.081838282              0.0042286301           
       0.056710              0.0797160902              0.0042757125           
       0.057389              0.0699029919             0.00386100639           
       0.058068              0.0671733204             0.00382388641           
       0.058748              0.0776053881             0.00416137108           
       0.059427              0.0728347568             0.00396318085           
       0.060106              0.0660913125             0.00381099038           
       0.060785               0.065688198             0.00368551288           
       0.061464              0.0612770412             0.00364541595           
       0.062143              0.0594580393             0.00355442433           
       0.062822              0.0625074868             0.00360166665           
       0.063502              0.0562726171             0.00341121773           
       0.064181              0.0565021398             0.00338207235           
       0.064860              0.0539871617             0.00335629849           
       0.065539              0.0550371957             0.00335564373           
       0.066218              0.0475193081             0.00305128467           
       0.066897              0.0549808225             0.00330744796           
       0.067577              0.0531420211             0.00328290927           
       0.068256              0.0544862874             0.00340582851           
       0.068935              0.0521063929             0.00327676263           
       0.069614              0.0518896766             0.00330249294           
       0.070293              0.0512858536             0.00331349662           
       0.070972              0.0431143474             0.00301583174           
       0.071652              0.0445584883             0.00307154785           
       0.072331              0.0480065632             0.00313135577           
       0.073010              0.0425549297             0.00301556416           
       0.073689              0.0435859077              0.0030351041           
       0.074368              0.0448847827             0.00307439416           
       0.075047              0.0424995286             0.00295943484           
       0.075727              0.0419593002             0.00292240322           
       0.076406              0.0445257702             0.00307051774           
       0.077085              0.0398062975              0.0028489748           
       0.077764              0.0407447131             0.00287226096           
       0.078443              0.0402459793             0.00287230203           
       0.079122              0.0379921349             0.00276390695           
       0.079802              0.0356282659             0.00270492815           
       0.080481              0.0379756645             0.00269841519           
       0.081160              0.0380182178             0.00275532924           
       0.081839              0.0346727091             0.00258918078           
       0.082518              0.0389032038             0.00274490158           
       0.083197              0.0356530042             0.00258690914           
       0.083876              0.0330457276             0.00244914031           
       0.084556              0.0364317523             0.00264307416           
       0.085235              0.0361546537             0.00258213271           
       0.085914              0.0355762403             0.00258627655           
       0.086593              0.0336414384             0.00249878008           
       0.087272              0.0380692322             0.00262056627           
       0.087951              0.0296530946             0.00236507112           
       0.088631              0.0343483698             0.00245873757           
       0.089310              0.0358151131             0.00256393541           
       0.089989              0.0361625348              0.0025462214           
       0.090668              0.0306186189             0.00236879292           
       0.091347              0.0350421603             0.00254832315           
       0.092026              0.0267379147             0.00212768454           
       0.092706               0.035098076             0.00252620985           
       0.093385              0.0317157703             0.00236452824           
       0.094064              0.0303430428             0.00233970884           
       0.094743              0.0295741405             0.00227467371           
       0.095422              0.0288804875             0.00222277366           
       0.096101              0.0306692234             0.00233774928           
       0.096781              0.0322553339             0.00236311023           
       0.097460              0.0341027056             0.00236355703           
       0.098139              0.0271360612             0.00209213862           
       0.098818              0.0246364489             0.00196890441           
       0.099497              0.0298088832             0.00217019715           
       0.100176              0.0279272775             0.00204545622           
       0.100856               0.029778956             0.00211082504           
       0.101535              0.0315144007             0.00216727302           
       0.102214              0.0315037564              0.0021669204           
       0.102893              0.0274702806             0.00200039918           
       0.103572              0.0284920861             0.00200716744           
       0.104251              0.0250997651             0.00189085286           
       0.104931              0.0296614897             0.00203679556           
       0.105610              0.0260984182             0.00191869822           
       0.106289              0.0275138498             0.00193725633           
       0.106968              0.0286925323             0.00198418804           
       0.107647              0.0239422124             0.00181359833           
       0.108326              0.0211398204             0.00168135905           
       0.109005                0.02331507             0.00175463622           
       0.109685              0.0258495994              0.0018268237           
       0.110364              0.0271277196             0.00189269774           
       0.111043              0.0263322983             0.00185734948           
       0.111722              0.0286414301             0.00191339931           
       0.112401              0.0251531322             0.00179808545           
       0.113080              0.0256177659             0.00179382216           
       0.113760              0.0271315136             0.00187689402           
       0.114439              0.0211208735             0.00163235977           
       0.115118              0.0250198003             0.00176325356           
       0.115797              0.0233316525             0.00171850351           
       0.116476               0.026702607             0.00181094494           
       0.117155               0.023460049             0.00171112436           
       0.117835              0.0239515455             0.00169458457           
       0.118514              0.0231217186             0.00168608141           
       0.119193              0.0257640475             0.00177983057           
       0.119872              0.0262414837             0.00177378151           
       0.120551              0.0232319687              0.0016578544           
       0.121230              0.0236590451             0.00165618712           
       0.121910              0.0231872897             0.00165543822           
       0.122589              0.0222794369             0.00162437905           
       0.123268              0.0187969283              0.0014631283           
       0.123947              0.0228142055             0.00162233799           
       0.124626              0.0217299297             0.00156395786           
       0.125305              0.0192111239             0.00147774084           
       0.125985              0.0187953504             0.00145032075           
       0.126664              0.0218319487             0.00154820493           
       0.127343              0.0227927108             0.00160024055           
       0.128022              0.0233465312             0.00160714324           
       0.128701              0.0250471394             0.00165597673           
       0.129380              0.0232487139             0.00157543666           
       0.130059              0.0212706088             0.00151042393           
       0.130739              0.0204257295             0.00149053121           
       0.131418              0.0236545392             0.00159952824           
       0.132097              0.0231790339              0.0015630633           
       0.132776              0.0218013897              0.0015090577           
       0.133455              0.0231849768             0.00156829642           
       0.134134              0.0210660866             0.00149015521           
       0.134814               0.022268143             0.00151629434           
       0.135493              0.0215229947             0.00149674178           
       0.136172              0.0213838648             0.00148063383           
       0.136851              0.0201036141             0.00144397653           
       0.137530              0.0173830412             0.00131082067           
       0.138209              0.0212197413             0.00146527651           
       0.138889               0.020282857             0.00143887902           
       0.139568              0.0195460297             0.00141189128           
       0.140247              0.0180932181             0.00135662675           
       0.140926              0.0180920831             0.00131779551           
       0.141605              0.0216845071             0.00147936131           
       0.142284              0.0190905006             0.00136505857           
       0.142964              0.0187093969             0.00135653323           
       0.143643              0.0207645852             0.00142729322           
       0.144322              0.0199638403             0.00137021729           
       0.145001              0.0205190386             0.00141765333           
       0.145680              0.0175869848             0.00128141262           
       0.146359              0.0205355173             0.00138973458           
       0.147039              0.0226017037             0.00146997681           
       0.147718              0.0202657374             0.00136897312           
       0.148397              0.0149421646             0.00119376057           
       0.149076              0.0210690569             0.00137355824           
       0.149755              0.0202790911             0.00136836924           
       0.150434              0.0173444859             0.00126600959           
       0.151114              0.0221605568             0.00142310788           
       0.151793              0.0197911869             0.00134489207           
       0.152472              0.0175133609             0.00124278576           
       0.153151              0.0191944138             0.00131364337           
       0.153830              0.0189181178              0.0012946526           
       0.154509              0.0185599523             0.00127698828           
       0.155188              0.0171383173             0.00122665384           
       0.155868              0.0193344299              0.0012936062           
       0.156547              0.0196640132             0.00131296535           
       0.157226              0.0176910949             0.00121494164           
       0.157905              0.0199418739             0.00130074959           
       0.158584              0.0177627654             0.00122539553           
       0.159263              0.0206387852             0.00132573922           
       0.159943              0.0178253223             0.00123298705           
       0.160622              0.0171551177              0.0011862425           
       0.161301              0.0179436356             0.00122942531           
       0.161980              0.0184001763             0.00122380197           
       0.162659              0.0193942189             0.00127035022           
       0.163338              0.0165536632             0.00116407273           
       0.164018              0.0192860049             0.00124988129           
       0.164697              0.0180345956             0.00122417026           
       0.165376                0.01825167             0.00120460853           
       0.166055              0.0175414041             0.00118872552           
       0.166734              0.0179789205             0.00119806783           
       0.167413              0.0191864074              0.0012385125           
       0.168093              0.0172812717             0.00118653413           
       0.168772              0.0165823313              0.0011283007           
       0.169451              0.0157582398             0.00112014331           
       0.170130              0.0160331367             0.00111503813           
       0.170809              0.0175476931              0.0011804366           
       0.171488              0.0173547873              0.0011632286           
       0.172168              0.0168023883              0.0011335707           
       0.172847               0.015130814             0.00108983809           
       0.173526               0.015535853             0.00108326198           
       0.174205              0.0172013267             0.00114509754           
       0.174884              0.0199698019             0.00122738063           
       0.175563              0.0166409806             0.00112520634           
       0.176243              0.0191567575             0.00121935004           
       0.176922              0.0168300667             0.00111312142           
       0.177601              0.0173362062             0.00114215073           
       0.178280              0.0161628233              0.0010905105           
       0.178959              0.0171082417             0.00113097531           
       0.179638              0.0169891872             0.00112378776           
       0.180317              0.0151994431             0.00105520402           
       0.180997               0.017463344             0.00113720088           
       0.181676              0.0174346225             0.00112413256           
       0.182355              0.0168498616             0.00111175722           
       0.183034              0.0160237846             0.00106676244           
       0.183713              0.0162956479             0.00108887513           
       0.184392              0.0190820378              0.0011779402           
       0.185072              0.0177192558             0.00112216236           
       0.185751              0.0169074563             0.00109920478           
       0.186430                0.01892416             0.00115476935           
       0.187109              0.0175759633             0.00112526915           
       0.187788              0.0178860626             0.00113235394           
       0.188467              0.0165663969             0.00107688347           
       0.189147              0.0174752975             0.00111723083           
       0.189826              0.0191331011             0.00114835098           
       0.190505              0.0162100996             0.00107439921           
       0.191184              0.0162966705             0.00106173849           
       0.191863              0.0164323224             0.00106839427           
       0.192542              0.0143873569             0.00100913414           
       0.193222              0.0162031752             0.00104692393           
       0.193901              0.0166220556             0.00107458275           
       0.194580                0.01633402             0.00104659804           
       0.195259              0.0174496243             0.00109417248           
       0.195938              0.0188443368              0.0011397739           
       0.196617              0.0179188499             0.00109591908           
       0.197297              0.0187450544             0.00112547653           
       0.197976              0.0160853529             0.00102656319           
       0.198655               0.016614891              0.0010547199           
       0.199334                0.01645645              0.0010404221           
       0.200013              0.0167014721              0.0010475578           
       0.200692              0.0153077738             0.00100893012           
       0.201371              0.0182060107             0.00108791162           
       0.202051              0.0171452016              0.0010590244           
       0.202730              0.0160331669             0.00101387598           
       0.203409              0.0148798363            0.000983286001           
       0.204088              0.0153689716             0.00099821146           
       0.204767              0.0169913987             0.00104406154           
       0.205446              0.0154737283            0.000998290282           
       0.206126              0.0164827995             0.00101632828           
       0.206805              0.0150258228            0.000988159958           
       0.207484              0.0163544932             0.00101239054           
       0.208163              0.0166733829             0.00102835556           
       0.208842              0.0138770805            0.000935625463           
       0.209521              0.0153800904            0.000976805454           
       0.210201              0.0168756126             0.00103461305           
       0.210880              0.0157956069             0.00098131725           
       0.211559              0.0153846469            0.000982786327           
       0.212238              0.0174697912             0.00104194223           
       0.212917              0.0153965736            0.000974530045           
       0.213596              0.0154505675            0.000982009693           
       0.214276              0.0153004525            0.000956868442           
       0.214955              0.0157666274             0.00099176254           
       0.215634              0.0151307698            0.000964595077           
       0.216313              0.0151113004            0.000961950083           
       0.216992              0.0163292243             0.00099971364           
       0.217671              0.0144102149            0.000932773809           
       0.218351              0.0159465843            0.000990836003           
       0.219030              0.0148233167            0.000940222709           
       0.219709              0.0166939405              0.0010040101           
       0.220388              0.0159977064            0.000981587972           
       0.221067              0.0135474438            0.000904009972           
       0.221746              0.0145446376            0.000935730756           
       0.222426              0.0163263558            0.000976572765           
       0.223105              0.0146983343              0.0009392273           
       0.223784              0.0135680748            0.000893442095           
       0.224463              0.0164164729            0.000990585797           
       0.225142               0.016285155             0.00097100519           
       0.225821              0.0150752641            0.000938002313           
       0.226500              0.0152401411            0.000949114472           
       0.227180              0.0171491045            0.000991292665           
       0.227859              0.0144858101            0.000915158923           
       0.228538              0.0142950684            0.000899984943           
       0.229217              0.0169426993            0.000987546499           
       0.229896              0.0151996485            0.000934918803           
       0.230575               0.013543754            0.000868456221           
       0.231255              0.0148874091            0.000924148826           
       0.231934              0.0155117721            0.000936883945           
       0.232613              0.0157693649            0.000948116124           
       0.233292               0.014147467            0.000889359372           
       0.233971              0.0145404695            0.000901206744           
       0.234650              0.0145472816            0.000912020666           
       0.235330              0.0149471778            0.000916398356           
       0.236009              0.0137322022            0.000876471209           
       0.236688              0.0149072093            0.000909931567           
       0.237367              0.0164400513            0.000956957079           
       0.238046               0.014136809            0.000893643625           
       0.238725              0.0158856291            0.000932692394           
       0.239405              0.0146851583            0.000902319359           
       0.240084              0.0143995277            0.000887811616           
       0.240763              0.0153366114            0.000925017863           
       0.241442              0.0147609088            0.000894703284           
       0.242121              0.0156677922            0.000923518045           
       0.242800              0.0155458784            0.000924273081           
       0.243480              0.0139386497            0.000871093466           
       0.244159              0.0144369732            0.000886957008           
       0.244838              0.0161665328            0.000923139486           
       0.245517              0.0121562648            0.000812010417           
       0.246196              0.0144352912             0.00088528613           
       0.246875              0.0141934441            0.000865601922           
       0.247554              0.0130998883            0.000840039417           
       0.248234              0.0137282792            0.000846911877           
       0.248913              0.0122875669            0.000810228526           
       0.249592              0.0146165433            0.000875286743           
       0.250271              0.0133296432            0.000833440066           
       0.250950              0.0132875143            0.000837218576           
       0.251629              0.0126395723            0.000809610547           
       0.252309              0.0133204132            0.000832816562           
       0.252988              0.0142165933            0.000845555615           
       0.253667              0.0146565496            0.000868570543           
       0.254346              0.0136276947            0.000837357746           
       0.255025               0.014060992            0.000848702416           
       0.255704              0.0140329445            0.000843972289           
       0.256384              0.0129903248            0.000809205315           
       0.257063              0.0135981673            0.000832641376           
       0.257742              0.0134579575            0.000822598195           
       0.258421              0.0132549337             0.00081479845           
       0.259100              0.0122448171            0.000784502348           
       0.259779               0.015022233            0.000868194514           
       0.260459              0.0131312052             0.00081330625           
       0.261138              0.0141700757            0.000828355466           
       0.261817              0.0123783252            0.000789843218           
       0.262496              0.0145940628            0.000849215381           
       0.263175              0.0134167988            0.000815992204           
       0.263854              0.0128972458            0.000796320038           
       0.264534              0.0129164789            0.000790107308           
       0.265213              0.0142919139             0.00084420868           
       0.265892              0.0137196008            0.000816535981           
       0.266571              0.0113373603            0.000740579721           
       0.267250              0.0133598118            0.000805280156           
       0.267929              0.0135152404            0.000809120431           
       0.268609              0.0128011311            0.000791766019           
       0.269288              0.0124157796            0.000766804212           
       0.269967              0.0132685128            0.000801240326           
       0.270646              0.0114322628            0.000740519221           
       0.271325              0.0118706338            0.000755843587           
       0.272004              0.0124507339            0.000766375352           
       0.272683              0.0118396389            0.000748254899           
       0.273363              0.0128510711            0.000784532766           
       0.274042              0.0116995188            0.000744141484           
       0.274721               0.012102725            0.000756407002           
       0.275400               0.013760746            0.000801216544           
       0.276079              0.0124037756            0.000765006133           
       0.276758               0.012098105            0.000765055553           
       0.277438              0.0125868335            0.000771595951           
       0.278117              0.0102981464            0.000710619877           
       0.278796              0.0110553236            0.000728807432           
       0.279475              0.0107510331            0.000730580135           
       0.280154              0.0117218532             0.00075187998           
       0.280833              0.0113865834            0.000745555831           
       0.281513               0.012124265            0.000781397054           
       0.282192              0.0109832979             0.00073103354           
       0.282871              0.0134270806            0.000813927878           
       0.283550              0.0112504648            0.000749033962           
       0.284229              0.0123756397            0.000797135901           
       0.284908              0.0111021813            0.000762973618           
       0.285588              0.0125148009            0.000800574408           
       0.286267              0.0109272467            0.000760052927           
       0.286946              0.0108879254             0.00075375041           
       0.287625             0.00986154186            0.000729557898           
       0.288304             0.00949459846            0.000706274546           
       0.288983              0.0105419266            0.000753633967           
       0.289663              0.0123724674            0.000821226733           
       0.290342              0.0124442405            0.000819221101           
       0.291021               0.010747184            0.000765416372           
       0.291700             0.00971177405            0.000718106515           
       0.292379             0.00956957889            0.000729151035           
       0.293058             0.00882516986            0.000697572006           
       0.293738               0.011015832            0.000772811915           
       0.294417             0.00865448196            0.000692954117           
       0.295096              0.0109179158            0.000769755928           
       0.295775              0.0109240263            0.000781730268           
       0.296454               0.010463527            0.000755180237           
       0.297133              0.0109373268            0.000775741384           
       0.297812             0.00957301705            0.000729387876           
       0.298492             0.00921821306             0.00071712652           
       0.299171             0.00955993141            0.000728915825           
       0.299850             0.00981831725            0.000733656431           
       0.300529                0.01011049            0.000752878771           
       0.301208             0.00965167489            0.000737387561           
       0.301887              0.0104004469            0.000764546803           
       0.302567              0.0104092652            0.000761040111           
       0.303246             0.00970417941            0.000739610604           
       0.303925             0.00938587805            0.000736719078           
       0.304604             0.00858765684             0.00068947959           
       0.305283             0.00999140998            0.000754729396           
       0.305962             0.00980443805            0.000743117748           
       0.306642             0.00951410937            0.000741974546           
       0.307321             0.00880361285            0.000711453301           
       0.308000              0.0096604628            0.000736438263           
       0.308679             0.00917668008            0.000733305083           
       0.309358              0.0088071553            0.000708671363           
       0.310037             0.00854280166            0.000699509754           
       0.310717             0.00767992932            0.000662604198           
       0.311396              0.0101077355            0.000765253703           
       0.312075             0.00953431815            0.000752655183           
       0.312754             0.00924934098            0.000726491022           
       0.313433             0.00793255035            0.000678644036           
       0.314112             0.00850027184            0.000702347959           
       0.314792             0.00843818516            0.000704719894           
       0.315471             0.00892512592            0.000715805362           
       0.316150             0.00984731294            0.000758835268           
       0.316829             0.00866789796             0.00071664487           
       0.317508              0.0097444935            0.000751321605           
       0.318187             0.00751398671            0.000668456342           
       0.318866             0.00840314522            0.000697378557           
       0.319546             0.00915534773            0.000738833737           
       0.320225             0.00735802032            0.000662366375           
       0.320904             0.00789054194            0.000675310735           
       0.321583             0.00820158697            0.000703663175           
       0.322262             0.00681704786            0.000631802753           
       0.322941             0.00894222671            0.000732883374           
       0.323621              0.0087455247            0.000720354793           
       0.324300             0.00847566855            0.000709709721           
       0.324979             0.00915536311            0.000738951615           
       0.325658             0.00894858078            0.000731884359           
       0.326337             0.00741988666            0.000667314437           
       0.327016              0.0083258262            0.000702392055           
       0.327696             0.00731132433            0.000665529642           
       0.328375             0.00723611996            0.000656510943           
       0.329054             0.00908197889             0.00073948345           
       0.329733             0.00829138069            0.000709144569           
       0.330412              0.0054679362            0.000571162914           
       0.331091             0.00789006572            0.000698547369           
       0.331771             0.00824147249            0.000695226417           
       0.332450             0.00809727422            0.000702496866           
       0.333129             0.00683705444             0.00064385399           
       0.333808             0.00569634363            0.000588470358           
       0.334487             0.00704815936            0.000657686036           
       0.335166             0.00611487959             0.00060363126           
       0.335846             0.00665215268            0.000640655459           
       0.336525             0.00590867332             0.00059783219           
       0.337204             0.00703971781            0.000654257943           
       0.337883             0.00785395092            0.000691975575           
       0.338562             0.00743279782            0.000676902649           
       0.339241             0.00740680128            0.000676984052           
       0.339921             0.00559562393            0.000578552154           
       0.340600             0.00644307439            0.000632608396           
       0.341279             0.00680036569            0.000642952473           
       0.341958             0.00686278668            0.000655009071           
       0.342637             0.00727688022            0.000664952433           
       0.343316             0.00693780616            0.000651155353           
       0.343995             0.00688527925            0.000659307365           
       0.344675             0.00581486268            0.000594759357           
       0.345354             0.00645864661            0.000630953877           
       0.346033             0.00648705967            0.000630691839           
       0.346712             0.00639370989            0.000630132783           
       0.347391             0.00628966408            0.000628854404           
       0.348070             0.00652608969            0.000631467592           
       0.348750             0.00646407429            0.000637541036           
       0.349429             0.00726480022             0.00066715024           
       0.350108             0.00639364306            0.000633404104           
       0.350787             0.00708363937             0.00065538024           
       0.351466             0.00566203231             0.00059673117           
       0.352145             0.00622635835            0.000626281883           
       0.352825              0.0064805469            0.000636043767           
       0.353504             0.00591095035            0.000607300038           
       0.354183             0.00656035539            0.000632420205           
       0.354862              0.0050357616            0.000566958162           
       0.355541             0.00521925934            0.000569636186           
       0.356220             0.00492728491             0.00055451913           
       0.356900             0.00584942892            0.000609923091           
       0.357579             0.00625470451            0.000622964855           
       0.358258             0.00567649262            0.000601684704           
       0.358937             0.00514212177            0.000561897998           
       0.359616             0.00554183362            0.000591474072           
       0.360295             0.00594268328            0.000613002025           
       0.360975             0.00494880689             0.00055700554           
       0.361654             0.00542719305            0.000586313843           
       0.362333             0.00557698622            0.000591327912           
       0.363012             0.00487847435            0.000560173724           
       0.363691             0.00574044177            0.000595661448           
       0.364370             0.00500578081            0.000563141153           
       0.365050             0.00475833675            0.000546108297           
       0.365729             0.00447638648            0.000534732234           
       0.366408             0.00596549555            0.000618666203           
       0.367087             0.00521162365            0.000568980831           
       0.367766              0.0052555428            0.000583278307           
       0.368445             0.00498265042            0.000557849774           
       0.369124              0.0050112144            0.000563841325           
       0.369804             0.00524951417            0.000576168478           
       0.370483             0.00593565833            0.000615347516           
       0.371162             0.00510437201            0.000573941727           
       0.371841              0.0049675192            0.000556323583           
       0.372520             0.00474270961            0.000554485419           
       0.373199             0.00519294276            0.000573275935           
       0.373879             0.00498380168            0.000568115492           
       0.374558             0.00357524318            0.000474160076           
       0.375237             0.00504572001            0.000564215624           
       0.375916             0.00478419193            0.000559923991           
       0.376595             0.00440443955            0.000526742037           
       0.377274             0.00527144699            0.000585482956           
       0.377954             0.00472333132            0.000545502878           
       0.378633             0.00413888857            0.000517092944           
       0.379312             0.00438676129             0.00053221743           
       0.379991             0.00467621613             0.00054665172           
       0.380670             0.00424842565            0.000530257031           
       0.381349             0.00430619876            0.000526185062           
       0.382029             0.00391506492            0.000508908246           
       0.382708             0.00328678699            0.000456107122           
       0.383387             0.00423961419            0.000529756731           
       0.384066             0.00481358943            0.000559299733           
       0.384745             0.00452494874            0.000544403389           
       0.385424             0.00422916924            0.000528097447           
       0.386104             0.00431296822             0.00052741024           
       0.386783             0.00419145792            0.000531173708           
       0.387462             0.00486327681             0.00055792774           
       0.388141             0.00417975203            0.000525497101           
       0.388820             0.00430274144            0.000529318299           
       0.389499              0.0048179647            0.000563266734           
       0.390178             0.00418957675             0.00052734325           
       0.390858             0.00405558044            0.000514643337           
       0.391537             0.00361735419            0.000491006887           
       0.392216             0.00442986346            0.000536548896           
       0.392895             0.00432868768            0.000532173067           
       0.393574               0.003450543            0.000473958852           
       0.394253             0.00375785506            0.000496839735           
       0.394933              0.0043336296            0.000539643372           
       0.395612             0.00405356412            0.000506754354           
       0.396291             0.00397283333            0.000511896316           
       0.396970             0.00349887806            0.000476136279           
       0.397649              0.0039104553            0.000504911902           
       0.398328             0.00453623444            0.000541422787           
       0.399008             0.00366715868            0.000485745476           
       0.399687             0.00512351914            0.000576386467           
       0.400366             0.00425016162            0.000522959484           
       0.401045             0.00353278049            0.000475884705           
       0.401724             0.00399514825            0.000506913884           
       0.402403              0.0049018731             0.00056587508           
       0.403083             0.00443731983             0.00053063018           
       0.403762               0.002883754            0.000429879762           
       0.404441             0.00390217806            0.000503244108           
       0.405120             0.00446599703            0.000536608898           
       0.405799             0.00377076027            0.000490933081           
       0.406478             0.00408514127            0.000511001627           
       0.407158             0.00464717674             0.00054399825           
       0.407837             0.00395903836             0.00050654052           
       0.408516             0.00361518007            0.000479832502           
       0.409195             0.00351344471            0.000478398861           
       0.409874             0.00362022293            0.000492370496           
       0.410553             0.00390834087            0.000517090435           
       0.411233             0.00313121532            0.000460437384           
       0.411912             0.00413141235            0.000536381477           
       0.412591              0.0033427813            0.000485672258           
       0.413270             0.00408044519            0.000534041405           
       0.413949              0.0023195443            0.000407042876           
       0.414628               0.003596253             0.00050592191           
       0.415307             0.00360527328            0.000512190688           
       0.415987             0.00332874135            0.000488100165           
       0.416666             0.00419032149            0.000544341879           
       0.417345             0.00311913055            0.000477482387           
       0.418024             0.00340660397            0.000499013698           
       0.418703              0.0029677856            0.000464910466           
       0.419382                0.00279418            0.000448897113           
       0.420062             0.00330593893             0.00048964591           
       0.420741             0.00282769868            0.000455255035           
       0.421420             0.00241715412            0.000422507392           
       0.422099             0.00321776828            0.000487495724           
       0.422778             0.00283394848            0.000459975708           
       0.423457             0.00292590147             0.00047023925           
       0.424137             0.00238230038            0.000417399023           
       0.424816             0.00250180335            0.000436679341           
       0.425495             0.00242058615            0.000429126457           
       0.426174             0.00219456309            0.000408743722           
       0.426853             0.00298877684            0.000474108503           
       0.427532             0.00280561221            0.000463234845           
       0.428212             0.00216331309            0.000409453448           
       0.428891             0.00245917054            0.000435562257           
       0.429570             0.00192245131            0.000385372246           
       0.430249             0.00259258747            0.000445203693           
       0.430928             0.00223288206            0.000422201208           
       0.431607             0.00198560718            0.000391296697           
       0.432287             0.00156251021            0.000349655304           
       0.432966             0.00223298993            0.000421672649           
       0.433645             0.00246675553             0.00044365808           
       0.434324             0.00252390561            0.000446062875           
       0.435003             0.00134491749            0.000326173347           
       0.435682             0.00225779889            0.000426079524           
       0.436361             0.00265374747            0.000461313542           
       0.437041             0.00208361303            0.000408220651           
       0.437720             0.00243103382            0.000443069318           
       0.438399             0.00115383412            0.000306837368           
       0.439078             0.00261862281            0.000475650108           
       0.439757             0.00240450122            0.000452980911           
       0.440436             0.00244579322             0.00046714975           
       0.441116             0.00289092249            0.000516188843           
       0.441795             0.00226607184            0.000457562209           
       0.442474             0.00302514067            0.000530145909           
       0.443153             0.00241802526            0.000485029984           
       0.443832             0.00240874915            0.000484914732           
       0.444511             0.00238590694            0.000480435476           
       0.445191             0.00151749793            0.000392472636           
       0.445870             0.00180828026            0.000428440049           
       0.446549              0.0021581012            0.000472986546           
       0.447228             0.00255287047             0.00051152432           
       0.447907             0.00283652352            0.000545664026           
       0.448586             0.00209939488            0.000480734233           
       0.449266             0.00269435888            0.000539600667           
       0.449945             0.00203845828            0.000467434362           
       0.450624             0.00339693956             0.00061299397           
       0.451303              0.0018428093            0.000457347139           
       0.451982             0.00271804049            0.000552001974           
       0.452661               0.001895434            0.000469551791           
       0.453341             0.00283904808            0.000576679932           
       0.454020             0.00321205726             0.00061432957           
       0.454699             0.00159377267            0.000436688224           
       0.455378             0.00194783277             0.00048302224           
       0.456057             0.00315036625            0.000625212507           
       0.456736             0.00287659485            0.000595566269           
       0.457416             0.00152328778            0.000433405136           
       0.458095             0.00172180256            0.000467449638           
       0.458774             0.00137703668            0.000423562822           
       0.459453             0.00164852102            0.000465776077           
       0.460132             0.00233208344            0.000542026058           
       0.460811             0.00225276271            0.000552604277           
       0.461490             0.00166979748            0.000470921834           
       0.462170             0.00173547035            0.000487585212           
       0.462849            0.000653842294            0.000301221614           
       0.463528            0.000786470191            0.000329596419           
       0.464207             0.00155009809            0.000471380906           
       0.464886             0.00206138127            0.000539357381           
       0.465565             0.00126658501            0.000427424489           
       0.466245             0.00155791159            0.000475509513           
       0.466924            0.000281279994            0.000206822021           
       0.467603            0.000554516177            0.000284232423           
       0.468282            0.000604548003             0.00030381567           
       0.468961             0.00137011365            0.000460380314           
       0.469640             0.00216959111            0.000581642981           
       0.470320             0.00218982849            0.000584753277           
       0.470999             0.00111148145            0.000420528819           
       0.471678            0.000826020795            0.000366011453           
       0.472357             0.00130052531            0.000460542089           
       0.473036             0.00147983934             0.00049436749           
       0.473715             0.00034781267            0.000241545816           
       0.474395            0.000892406601            0.000392256741           
       0.475074              0.0014043235            0.000492079484           
       0.475753             0.00154920485            0.000512380303           
       0.476432             0.00113046415            0.000453624291           
       0.477111            0.000920374851            0.000404358339           
       0.477790            4.53403854e-05            9.02279072e-05           
       0.478470             0.00113956954            0.000458325799           
       0.479149             0.00118421704            0.000472050528           
       0.479828            0.000244666034            0.000214060289           
       0.480507            0.000811171839            0.000392909973           
       0.481186            0.000677321624             0.00036712621           
       0.481865             0.00162126347             0.00056096163           
       0.482545             0.00126954092            0.000502228475           
       0.483224            0.000888928942            0.000423125262           
       0.483903            9.18125475e-05            0.000138125548           
       0.484582            0.000321312396            0.000262598574           
       0.485261            8.48920355e-05            0.000131557969           
       0.485940            0.000559100371            0.000351240119           
       0.486619           -0.000315358487                         0           
       0.487299           -0.000315377499                         0           
       0.487978            0.000110196389            0.000155081658           
       0.488657           -0.000315415687                         0           
       0.489336           -0.000315434628                         0           
       0.490015            -0.00031545394                         0           
       0.490694           -8.37868204e-05                         0           
       0.491374           -7.75678081e-05                         0           
       0.492053           -0.000315511284                         0           
       0.492732           -0.000315530364                         0           
       0.493411           -6.58664906e-05                         0           
       0.494090           -0.000315569146                         0           
       0.494769           -0.000315588225                         0           
       0.495449           -5.97315254e-05                         0           
       0.496128            0.000213875606            0.000238305722           
       0.496807           -0.000315646172                         0           
       0.497486           -0.000315665543                         0           
       0.498165           -3.83231962e-05                         0           
       0.498844           -0.000315704546                         0           
       0.499524            -0.00031572399                         0           
       0.500203            0.000249313033            0.000266478767           
       0.500882           -1.72789767e-05                         0           
       0.501561           -0.000315782533                         0           
       0.502240           -0.000315802217                         0           
       0.502919           -1.30138793e-06                         0           
       0.503599            -0.00031584149                         0           
       0.504278           -0.000315861443                         0           
       0.504957            -0.00031588116                         0           
       0.505636           -0.000315900752                         0           
       0.506315           -0.000315920666                         0           
       0.506994           -0.000315940224                         0           
       0.507673            2.58907906e-05            9.42162412e-05           
       0.508353           -0.000315979672                         0           
       0.509032           -0.000315999517                         0           
       0.509711           -0.000316019369                         0           
       0.510390             4.1111607e-05            0.000121040492           
       0.511069             3.9682909e-05            0.000119282322           
       0.511748            4.37832534e-05            0.000126063764           
       0.512428            6.68275229e-05            0.000158698113           
       0.513107           -0.000316119657                         0           
       0.513786           -0.000316139569                         0           
       0.514465            -0.00031615982                         0           
       0.515144           -0.000316180057                         0           
       0.515823             7.3941647e-05            0.000170809386           
       0.516503           -0.000316220352                         0           
       0.517182            9.78021875e-05            0.000202272417           
       0.517861            0.000110462309            0.000215736366           
       0.518540           -0.000316281085                         0           
       0.519219           -0.000316301272                         0           
       0.519898           -0.000316321662                         0           
       0.520578           -0.000316342175                         0           
       0.521257           -0.000316362424                         0           
       0.521936            -0.00031638272                         0           
       0.522615            -0.00031640326                         0           
       0.523294           -0.000316423876                         0           
       0.523973           -0.000316444207                         0           
       0.524653           -0.000316464392                         0           
       0.525332            -0.00031648487                         0           
       0.526011           -0.000316505717                         0           
       0.526690           -0.000316526524                         0           
       0.527369           -0.000316547159                         0           
       0.528048           -0.000316567941                         0           
       0.528728           -0.000316588699                         0           
       0.529407            -0.00031660936                         0           
       0.530086           -0.000316629915                         0           
       0.530765           -0.000316650499                         0           
       0.531444           -0.000316671305                         0           
       0.532123            -0.00031669248                         0           
       0.532802            0.000223799697            0.000346508327           
       0.533482           -0.000316734411                         0           
       0.534161           -0.000316755374                         0           
       0.534840           -0.000316776158                         0           
       0.535519           -0.000316797327                         0           
       0.536198           -0.000316818276                         0           
       0.536877            0.000322425839            0.000452230844           
       0.537557           -0.000316859953                         0           
       0.538236           -0.000316881159                         0           
       0.538915           -0.000316902357                         0           
       0.539594           -0.000316923526                         0           
       0.540273           -0.000316945026                         0           
       0.540952           -0.000316966287                         0           
       0.541632           -0.000316987159                         0           
       0.542311           -0.000317008223                         0           
       0.542990           -0.000317029522                         0           
       0.543669           -0.000317050999                         0           
       0.544348           -0.000317072451                         0           
       0.545027           -0.000317093857                         0           
       0.545707           -0.000317115328                         0           
       0.546386           -0.000317136858                         0           
       0.547065            -0.00031715813                         0           
       0.547744           -0.000317179499                         0           
       0.548423           -0.000317201104                         0           
       0.549102            -0.00031722273                         0           
       0.549782           -0.000317244248                         0           
       0.550461            -0.00031726602                         0           
       0.551140           -0.000317287924                         0           
       0.551819           -0.000317309569                         0           
       0.552498            0.000486672605            0.000629282039           
       0.553177             0.00134609944             0.00106123703           
       0.553856           -0.000317374387                         0           
       0.554536            -0.00031739599                         0           
       0.555215           -0.000317417923                         0           
       0.555894           -0.000317439803                         0           
       0.556573           -0.000317461814                         0           
       0.557252           -0.000317483807                         0           
       0.557931             -0.0003175057                         0           
       0.558611           -0.000317528104                         0           
       0.559290           -0.000317549939                         0           
       0.559969           -0.000317571237                         0           
       0.560648             -0.0003175931                         0           
       0.561327           -0.000317615449                         0           
       0.562006           -0.000317637695                         0           
       0.562686           -0.000317659954                         0           
       0.563365           -0.000317682294                         0           
       0.564044           -0.000317704522                         0           
       0.564723           -0.000317726701                         0           
       0.565402           -0.000317748466                         0           
       0.566081           -0.000317770376                         0           
       0.566761           -0.000317792522                         0           
       0.567440           -0.000317815118                         0           
       0.568119           -0.000317837536                         0           
       0.568798           -0.000317860268                         0           
       0.569477           -0.000317882855                         0           
       0.570156           -0.000317905551                         0           
       0.570836           -0.000317928162                         0           
       0.571515           -0.000317950295                         0           
       0.572194            -0.00031797307                         0           
       0.572873           -0.000317995323                         0           
       0.573552           -0.000318017445                         0           
       0.574231           -0.000318040016                         0           
       0.574911           -0.000318063156                         0           
       0.575590           -0.000318085851                         0           
       0.576269           -0.000318108476                         0           
       0.576948           -0.000318131537                         0           
       0.577627             0.00162946096             0.00178370272           
       0.578306           -0.000318176565                         0           
       0.578985           -0.000318199431                         0           
       0.579665           -0.000318222166                         0           
       0.580344           -0.000318245244                         0           
       0.581023           -0.000318268297                         0           
       0.581702           -0.000318291137                         0           
       0.582381            -0.00031831377                         0           
       0.583060           -0.000318337078                         0           
       0.583740           -0.000318360019                         0           
       0.584419           -0.000318383037                         0           
       0.585098           -0.000318406027                         0           
       0.585777           -0.000318429197                         0           
       0.586456           -0.000318452743                         0           
       0.587135           -0.000318475664                         0           
       0.587815           -0.000318498337                         0           
       0.588494           -0.000318521716                         0           
       0.589173           -0.000318545633                         0           
       0.589852           -0.000318568278                         0           
       0.590531           -0.000318591777                         0           
       0.591210           -0.000318614734                         0           
       0.591890           -0.000318638135                         0           
       0.592569           -0.000318660753                         0           
       0.593248            -0.00031868548                         0           
       0.593927            -0.00031870899                         0           
       0.594606           -0.000318732984                         0           
       0.595285           -0.000318755549                         0           
       0.595965           -0.000318776605                         0           
       0.596644           -0.000318798272                         0           
