################################################################################
# EDF_DataBlockID                     0.Image.Psd
# EDF_BinarySize                      4366944
# EDF_HeaderSize                      2560
# ByteOrder                           LowByteFirst
# DataType                            FloatValue
# Dim_1                               1028
# Dim_2                               1062
# Image                               0
# HeaderID                            EH:000000:000000:000000
# Size                                4366944
# Center_1                            607.5200
# Center_2                            651.5500
# Comment                             Xenocs_Cell_Window - 20251028_20perc_iodine_1.23mg
# DDummy                              0.6
# Date                                2025-10-29T16:20:00
# Delta                               0
# Dummy                               -1.5
# ExposureTime                        360
# Gamma                               0
# Intensity1                          8.47539e-10
# PSize_1                             7.5e-05
# PSize_2                             7.5e-05
# Pressure                            0.0326843
# SampleDistance                      0.450002
# SampleEnvKind                       large
# SampleEnvPN                         ElectroChemical cell
# SampleEnvSN                         1141
# Thickness                           0
# Wavelength                          1.541891e-10
# Wavelength                          1.54189e-10
# aux                                 0
# aux_dial                            0.002375
# beamx                               588.434
# beamx_dial                          588.434
# beamz                               657.808
# beamz_dial                          657.808
# det0x                               0
# det0x_dial                          6.36945
# det0xvd                             0
# det0xvd_dial                        0
# det0y                               450.002
# det0y_dial                          481.635
# det0z                               0
# det0z_dial                          1.23302
# det0zvd                             0
# det0zvd_dial                        0
# mag                                 1.818
# mag_dial                            1.818
# om                                  0.2499
# om_dial                             -0.610199
# phi                                 -0.0120535
# phi_dial                            0
# ry                                  0.599993
# ry_dial                             0.599993
# s1bot                               0.8
# s1bot_dial                          -1.66094
# s1hl                                0.8
# s1hl_dial                           -0.608437
# s1hr                                0.8
# s1hr_dial                           0.970938
# s1top                               0.8
# s1top_dial                          -0.461562
# s2bot                               0.45
# s2bot_dial                          1.36109
# s2hl                                0.45
# s2hl_dial                           -0.83375
# s2hr                                0.45
# s2hr_dial                           -0.118594
# s2top                               0.45
# s2top_dial                          1.44734
# w2theta                             32
# w2theta_dial                        32
# waxsch                              19.2605
# waxsch_dial                         -32.7355
# waxsh                               137.085
# waxsh_dial                          -43.5338
# waxsth                              26.0607
# waxsth_dial                         -19.4086
# waxsz                               67.0407
# waxsz_dial                          -23.7954
# wind                                65.9854
# wind_dial                           66.0041
# wpsi                                124
# wpsi_dial                           124
# wstod                               115
# wstod_dial                          115
# x                                   0
# x_dial                              1.00969
# z                                   0
# z_dial                              13.3172
# CountCutoff                         15302352
# DetectorModel                       Dectris EIGER2 Si 1M, S/N E-02-0362
# ThresholdSetting                    4023.88989258
# Saturation                          0
# FlatField                           Corrected
# BackgroundReductionExtra            0.02
# BackgroundCorrectionConstant        0.0026712
# Detector                            0
# Monitor                             0
# Pil_Roi0                            0
# SumForIntensity1                    3.05114e+08
# TransmittedFlux                     847539
# det                                 0
# mon                                 0
# pilai0                              3.05114e+08
# pilai1                              766513
# pilct0                              5.29116e+08
# pilct1                              766513
# pilroi0                             0
# pilroi1                             0
# sec                                 1
# title                               20251028_20perc_iodine_1.23mg_0_00236.edf
# usaxs0                              0
# Operation                           Azimuthal average I(q)
# Error_model                         ErrorModel.poisson
# Geometrical_correction              True
# Transmission_correction             True
# Thickness_correction                False
# Binning mode                        Uniform
# Binning factor                      1.0
# Psi                                 0.0
# Omega                               0.2499
# MaskInvalidPixels                   True
# DetectorEdge                        3
# MaskFiles                           ['20251028_20perc_iodine_1.23mg_0_00012_mask.edf']
################################################################################
    q(A⁻¹)                Intensity(a.u.)            Sigma_I(a.u.)            
       0.000340                371939.986                120.947779           
       0.001019                359645.423                72.8306825           
       0.001698                 350220.23                50.8197779           
       0.002377                330848.798                44.1796197           
       0.003056                307901.854                36.0204719           
       0.003735                253213.378                28.8080873           
       0.004415                205227.743                25.9351784           
       0.005094                153810.903                19.4444436           
       0.005773                101772.558                14.6434719           
       0.006452                 59327.138                10.7123481           
       0.007131                32419.6259                7.67132524           
       0.007810                16214.4932                 5.3839744           
       0.008490                8088.01458                3.37058127           
       0.009169                3886.72293                2.30922521           
       0.009848                1187.90242                1.23429922           
       0.010527                454.672797               0.763624435           
       0.011206                116.026599               0.368165103           
       0.011885                53.2585045               0.231753548           
       0.012564                25.0584995               0.163207912           
       0.013244                17.2203096               0.126486486           
       0.013923                12.3482521               0.108836873           
       0.014602                9.41328569              0.0881310324           
       0.015281                7.40001051              0.0795432406           
       0.015960                6.05960748              0.0714636652           
       0.016639                5.09823155              0.0618995425           
       0.017319                4.23083059              0.0555115375           
       0.017998                3.53152835              0.0485202634           
       0.018677                2.89761384              0.0455205189           
       0.019356                  2.528262              0.0420142963           
       0.020035                2.12090054              0.0361026819           
       0.020714                1.88592539              0.0344043852           
       0.021394                1.66865017              0.0306199198           
       0.022073                  1.431282              0.0295048469           
       0.022752                1.26468232               0.026531085           
       0.023431                1.12471808              0.0242864154           
       0.024110               0.979878821                0.02363385           
       0.024789               0.921497943               0.021285099           
       0.025469                0.80188361              0.0204614415           
       0.026148               0.715259746              0.0181571377           
       0.026827               0.665558413              0.0177952234           
       0.027506               0.627852181              0.0175330344           
       0.028185               0.562240881              0.0158225292           
       0.028864               0.516205151              0.0150758626           
       0.029544               0.481989255              0.0141265283           
       0.030223                0.42640008              0.0134774819           
       0.030902               0.408786574              0.0133169466           
       0.031581               0.342622839              0.0115895488           
       0.032260               0.355460949              0.0120058227           
       0.032939                0.32452834              0.0110610789           
       0.033619               0.301587022              0.0108196637           
       0.034298                0.27103087             0.00998164222           
       0.034977               0.256173553             0.00951349256           
       0.035656               0.247174782             0.00959222728           
       0.036335               0.227815466             0.00893150412           
       0.037014               0.192481546             0.00823419345           
       0.037693               0.180868438             0.00767851145           
       0.038373               0.162427846             0.00734796396           
       0.039052               0.189367294             0.00796770291           
       0.039731               0.161707073             0.00719124915           
       0.040410               0.142315623             0.00670107643           
       0.041089               0.139456138             0.00652950626           
       0.041768               0.128846823             0.00630901348           
       0.042448               0.133001318             0.00636018144           
       0.043127               0.127891657             0.00608951123           
       0.043806               0.123274208             0.00602314924           
       0.044485               0.114387962             0.00568280687           
       0.045164               0.115353357             0.00581921159           
       0.045843               0.111511794             0.00548760642           
       0.046523                0.11554068             0.00560514835           
       0.047202               0.110325567             0.00551546283           
       0.047881               0.100691664              0.0051675391           
       0.048560              0.0942084163             0.00504396915           
       0.049239              0.0973537176             0.00492330458           
       0.049918              0.0973763834             0.00502013428           
       0.050598              0.0886176147             0.00471719007           
       0.051277              0.0853170079             0.00461382233           
       0.051956              0.0839832034             0.00454886934           
       0.052635              0.0814278829             0.00438407505           
       0.053314              0.0765147319             0.00437400562           
       0.053993              0.0761439495             0.00424371922           
       0.054673              0.0800086171             0.00425318047           
       0.055352              0.0718514789              0.0040897432           
       0.056031              0.0692980113             0.00393202438           
       0.056710               0.064088394             0.00387399955           
       0.057389              0.0692287136             0.00388266696           
       0.058068              0.0679783251             0.00388710414           
       0.058748              0.0683253954             0.00394562635           
       0.059427              0.0693365948             0.00390742076           
       0.060106              0.0670271812             0.00387815812           
       0.060785              0.0634704168             0.00366078569           
       0.061464              0.0640917325             0.00376732921           
       0.062143              0.0583193396             0.00355717025           
       0.062822              0.0574556617             0.00348929977           
       0.063502              0.0574774586             0.00348372635           
       0.064181              0.0545202244             0.00335709502           
       0.064860              0.0563597962             0.00346524868           
       0.065539              0.0546672754             0.00337944811           
       0.066218              0.0479676174             0.00309781956           
       0.066897              0.0477890058             0.00311591622           
       0.067577              0.0482627596             0.00316140614           
       0.068256              0.0480848943             0.00323309058           
       0.068935              0.0406814497             0.00292571526           
       0.069614              0.0446587383             0.00309591488           
       0.070293              0.0418587279             0.00302492856           
       0.070972              0.0371234062             0.00282783769           
       0.071652              0.0424409883             0.00302913881           
       0.072331              0.0436472435               0.003017136           
       0.073010              0.0491011013             0.00327320813           
       0.073689              0.0412394687             0.00298326233           
       0.074368              0.0372557215             0.00283035456           
       0.075047              0.0358399163             0.00274621535           
       0.075727              0.0391165071             0.00285128366           
       0.076406              0.0387639564             0.00289503827           
       0.077085              0.0399970909             0.00288576717           
       0.077764              0.0366340689             0.00275210635           
       0.078443              0.0321029882             0.00259224446           
       0.079122              0.0331407639             0.00260850815           
       0.079802              0.0390614148               0.002861981           
       0.080481              0.0286667065             0.00236907796           
       0.081160              0.0373708413             0.00276044077           
       0.081839              0.0337786799             0.00258240405           
       0.082518              0.0360279924             0.00266924535           
       0.083197              0.0412418785             0.00281149101           
       0.083876              0.0352774165             0.00255704731           
       0.084556               0.033708509             0.00256905535           
       0.085235               0.031451225             0.00243360232           
       0.085914              0.0338091399             0.00254768875           
       0.086593              0.0307383564             0.00241360083           
       0.087272              0.0336862301             0.00249097096           
       0.087951              0.0310526344             0.00244564147           
       0.088631              0.0321453374             0.00240354622           
       0.089310              0.0375003972             0.00265110068           
       0.089989              0.0312847318             0.00239313567           
       0.090668              0.0312400565             0.00241782338           
       0.091347              0.0284140805             0.00231878369           
       0.092026              0.0299078759             0.00227389616           
       0.092706              0.0321545195             0.00244333576           
       0.093385              0.0294967255             0.00230424231           
       0.094064              0.0282076318             0.00227955427           
       0.094743              0.0316300759             0.00237710043           
       0.095422              0.0284976887             0.00223116748           
       0.096101              0.0266500177             0.00220206262           
       0.096781              0.0286849367             0.00225187628           
       0.097460              0.0293230283             0.00221467727           
       0.098139              0.0312115802             0.00226730164           
       0.098818              0.0287901893             0.00215076127           
       0.099497              0.0265616261             0.00207008432           
       0.100176              0.0282058488             0.00207720733           
       0.100856              0.0293612084             0.00211796529           
       0.101535              0.0239482237             0.00190910635           
       0.102214               0.025825124             0.00198251903           
       0.102893              0.0238664101             0.00188413943           
       0.103572              0.0241939825             0.00186900099           
       0.104251              0.0254919443             0.00192556754           
       0.104931              0.0223050999              0.0017847912           
       0.105610              0.0262434734             0.00194421643           
       0.106289              0.0242361726             0.00183729036           
       0.106968              0.0246799513             0.00185953736           
       0.107647              0.0237370991             0.00182476591           
       0.108326              0.0233847151             0.00178694107           
       0.109005              0.0221722531             0.00172905183           
       0.109685              0.0241452988             0.00178410492           
       0.110364              0.0213633602               0.001697242           
       0.111043              0.0280800683             0.00193812907           
       0.111722              0.0220694535              0.0016972211           
       0.112401              0.0253336476             0.00182346539           
       0.113080              0.0245960341             0.00177613377           
       0.113760              0.0203169737             0.00164121931           
       0.114439              0.0247429415             0.00178533608           
       0.115118              0.0235002886             0.00172680707           
       0.115797              0.0234355831             0.00174040341           
       0.116476              0.0224736995             0.00167880429           
       0.117155              0.0248690798             0.00178025144           
       0.117835              0.0216696571             0.00162875915           
       0.118514              0.0199580079             0.00158292906           
       0.119193              0.0206937008             0.00161185166           
       0.119872              0.0213235105             0.00161573322           
       0.120551               0.019816407             0.00154721336           
       0.121230              0.0200031979             0.00153884503           
       0.121910              0.0203231208             0.00156609302           
       0.122589              0.0207150899             0.00158275267           
       0.123268               0.024041845              0.0016720807           
       0.123947              0.0227304256             0.00163635233           
       0.124626              0.0212794135             0.00156390398           
       0.125305              0.0221527783             0.00160350515           
       0.125985              0.0208009442             0.00154175279           
       0.126664              0.0187310656             0.00144909817           
       0.127343              0.0193796854             0.00149105963           
       0.128022               0.019984094             0.00150251912           
       0.128701              0.0182935689             0.00143007481           
       0.129380              0.0163393474             0.00133460641           
       0.130059              0.0214416843             0.00153240202           
       0.130739              0.0183247274             0.00142661051           
       0.131418              0.0197374122             0.00147643436           
       0.132097              0.0198822703             0.00146283808           
       0.132776              0.0205517581             0.00148054843           
       0.133455              0.0207684656             0.00149989686           
       0.134134              0.0203404712              0.0014796345           
       0.134814               0.019280344             0.00142571682           
       0.135493              0.0205785481             0.00147889476           
       0.136172              0.0188866218             0.00140609959           
       0.136851              0.0181124635             0.00138498859           
       0.137530              0.0201475845             0.00142602213           
       0.138209              0.0190750263             0.00140383636           
       0.138889              0.0206168462             0.00146590289           
       0.139568              0.0182954967             0.00138031577           
       0.140247              0.0159766258             0.00128818835           
       0.140926              0.0201232284             0.00140438743           
       0.141605              0.0157310689              0.0012732479           
       0.142284              0.0190904366             0.00137938319           
       0.142964              0.0183128441             0.00135616588           
       0.143643              0.0197998422             0.00140837013           
       0.144322              0.0194607645             0.00136704156           
       0.145001              0.0196436429             0.00140164142           
       0.145680              0.0196724487             0.00136948375           
       0.146359              0.0169373394             0.00127536944           
       0.147039              0.0200617459               0.001399454           
       0.147718              0.0183678619             0.00131697457           
       0.148397              0.0193631875             0.00137319833           
       0.149076              0.0210551439             0.00138751603           
       0.149755              0.0161710823              0.0012347612           
       0.150434              0.0168323721             0.00126026917           
       0.151114              0.0165582953             0.00124305307           
       0.151793              0.0170141355             0.00126005884           
       0.152472               0.015612597              0.0011857236           
       0.153151              0.0182110649             0.00129298085           
       0.153830              0.0192300124             0.00131898069           
       0.154509              0.0198396524             0.00133413532           
       0.155188              0.0150146672             0.00116019278           
       0.155868              0.0189440977             0.00129392093           
       0.156547              0.0185504975             0.00128863326           
       0.157226              0.0173041839             0.00121419374           
       0.157905              0.0190650945              0.0012851818           
       0.158584              0.0209864556             0.00134593758           
       0.159263              0.0160195345             0.00118025365           
       0.159943              0.0176088965             0.00123834103           
       0.160622              0.0198554442             0.00128958747           
       0.161301              0.0164375248             0.00118904834           
       0.161980              0.0182793028              0.0012325778           
       0.162659              0.0156260682             0.00115224956           
       0.163338               0.017052698             0.00119388908           
       0.164018              0.0177879987             0.00121295739           
       0.164697              0.0168834714             0.00119688897           
       0.165376              0.0167886864              0.0011674475           
       0.166055              0.0162694337             0.00115683121           
       0.166734               0.017449733             0.00119269216           
       0.167413               0.016788907             0.00117070951           
       0.168093              0.0172898827             0.00119928604           
       0.168772              0.0182441502             0.00119590933           
       0.169451              0.0156026642             0.00112629846           
       0.170130              0.0140127814             0.00105336047           
       0.170809               0.016368599             0.00115205384           
       0.171488               0.017594429             0.00118352486           
       0.172168              0.0171379222             0.00115684868           
       0.172847               0.017377549             0.00118021048           
       0.173526              0.0173979535             0.00115837561           
       0.174205              0.0175962677             0.00117032414           
       0.174884              0.0170706996             0.00114670688           
       0.175563              0.0170749266             0.00115174545           
       0.176243              0.0166351064             0.00114819211           
       0.176922              0.0142514968             0.00103505692           
       0.177601              0.0170273148             0.00114380988           
       0.178280              0.0168172371             0.00112404302           
       0.178959              0.0163906733              0.0011186216           
       0.179638              0.0169776624             0.00113519721           
       0.180317              0.0155326877             0.00107790447           
       0.180997              0.0151632496             0.00107078923           
       0.181676              0.0159565988             0.00108671531           
       0.182355               0.017512703              0.0011453092           
       0.183034              0.0181735325             0.00114799293           
       0.183713               0.016994095             0.00112363602           
       0.184392              0.0167694362             0.00111584653           
       0.185072               0.017155045             0.00111574065           
       0.185751              0.0158058017             0.00107394516           
       0.186430              0.0178764648             0.00113412816           
       0.187109               0.015630159             0.00107229162           
       0.187788               0.016131674             0.00108667309           
       0.188467              0.0160293686             0.00107040285           
       0.189147              0.0161007273             0.00108364677           
       0.189826              0.0169754156             0.00109301605           
       0.190505              0.0171123807             0.00111548164           
       0.191184              0.0161445928             0.00106786422           
       0.191863              0.0128666194            0.000955319572           
       0.192542              0.0163759907             0.00108791897           
       0.193222              0.0181315552             0.00111909502           
       0.193901              0.0185232098             0.00114627809           
       0.194580              0.0156303693              0.0010345521           
       0.195259              0.0161254228             0.00106287617           
       0.195938              0.0162131584             0.00106830795           
       0.196617              0.0146015944             0.00099967293           
       0.197297              0.0137493523            0.000974021589           
       0.197976               0.016600982             0.00105383265           
       0.198655              0.0141789457            0.000984565764           
       0.199334              0.0148970581             0.00100029043           
       0.200013              0.0146437836            0.000991200794           
       0.200692              0.0154884796             0.00102551929           
       0.201371              0.0156667669              0.0010197889           
       0.202051              0.0159133778             0.00103097996           
       0.202730              0.0151251682              0.0009950838           
       0.203409              0.0170641807              0.0010640398           
       0.204088              0.0156162268             0.00101676965           
       0.204767              0.0141374937            0.000962347934           
       0.205446              0.0169596361             0.00105609259           
       0.206126              0.0159948689             0.00101168017           
       0.206805              0.0178806407              0.0010892662           
       0.207484              0.0159976852             0.00101179488           
       0.208163              0.0133406139            0.000929509248           
       0.208842              0.0126770096            0.000903640647           
       0.209521              0.0148772339            0.000970787328           
       0.210201              0.0152223318            0.000992940307           
       0.210880              0.0146885147            0.000956234889           
       0.211559              0.0153726768            0.000992714711           
       0.212238              0.0157433631             0.00099950026           
       0.212917              0.0160660353             0.00100593964           
       0.213596              0.0153662437            0.000989604784           
       0.214276                0.01501966            0.000957997808           
       0.214955              0.0139510018            0.000942704038           
       0.215634              0.0166180999             0.00102150285           
       0.216313              0.0161009282             0.00100337077           
       0.216992              0.0141249529            0.000939551773           
       0.217671              0.0145317105            0.000946528844           
       0.218351              0.0150852525             0.00097381981           
       0.219030              0.0153748036            0.000967602989           
       0.219709              0.0158242155            0.000987766099           
       0.220388              0.0146162418            0.000948096617           
       0.221067              0.0140252557            0.000929467711           
       0.221746              0.0150359387            0.000961388882           
       0.222426               0.015781309            0.000970210259           
       0.223105              0.0146259906            0.000946746403           
       0.223784              0.0151247901            0.000953205074           
       0.224463               0.012801215            0.000883918321           
       0.225142              0.0149863499            0.000941256328           
       0.225821              0.0137364674            0.000904780735           
       0.226500              0.0153112926             0.00096131208           
       0.227180              0.0144866655             0.00092066102           
       0.227859              0.0152152695            0.000947762061           
       0.228538              0.0145802468            0.000918457219           
       0.229217              0.0133162031             0.00088468941           
       0.229896              0.0139936233            0.000906476566           
       0.230575              0.0150833746            0.000926108842           
       0.231255              0.0135546911            0.000891069417           
       0.231934              0.0155070694            0.000946573461           
       0.232613              0.0141267679            0.000906797275           
       0.233292              0.0156226039            0.000944384873           
       0.233971                0.01643653            0.000968221356           
       0.234650              0.0151944664             0.00094186976           
       0.235330              0.0157412969            0.000950296931           
       0.236009              0.0139506955            0.000892688337           
       0.236688              0.0140260419            0.000891892462           
       0.237367              0.0142225578            0.000899423229           
       0.238046              0.0137363137            0.000890139631           
       0.238725              0.0149352551            0.000913854215           
       0.239405              0.0128986177            0.000854529214           
       0.240084              0.0143768827            0.000896423915           
       0.240763              0.0147597596            0.000916979078           
       0.241442              0.0139025314            0.000877412455           
       0.242121               0.013839204            0.000877064253           
       0.242800              0.0143183851            0.000896342651           
       0.243480              0.0137789213            0.000875177986           
       0.244159              0.0152024087            0.000919718809           
       0.244838              0.0140994846            0.000871153877           
       0.245517              0.0130761597            0.000851012625           
       0.246196              0.0128603112            0.000844366499           
       0.246875              0.0132508374            0.000845143293           
       0.247554              0.0157268824            0.000930082685           
       0.248234              0.0141263835            0.000868120553           
       0.248913              0.0136180303            0.000861918297           
       0.249592              0.0126757962            0.000823663853           
       0.250271               0.013625296            0.000851476086           
       0.250950              0.0130292878            0.000837744709           
       0.251629              0.0125459603            0.000815072598           
       0.252309              0.0135473417            0.000848695535           
       0.252988              0.0148496784            0.000873247403           
       0.253667               0.013845805            0.000853066134           
       0.254346              0.0135152002            0.000842646568           
       0.255025              0.0134911566            0.000840052485           
       0.255704              0.0126173342            0.000808671166           
       0.256384              0.0126368916            0.000806497866           
       0.257063              0.0128416951            0.000817642293           
       0.257742              0.0125693665            0.000803321226           
       0.258421              0.0128263765            0.000809930542           
       0.259100              0.0123350977            0.000795653111           
       0.259779              0.0123679654             0.00079603707           
       0.260459              0.0140335705            0.000849611291           
       0.261138              0.0138632705            0.000827938114           
       0.261817              0.0148527887            0.000874275528           
       0.262496              0.0126717094             0.00079961645           
       0.263175              0.0126288857            0.000799978736           
       0.263854              0.0124072983            0.000789245543           
       0.264534              0.0118611971            0.000765090204           
       0.265213              0.0128066275            0.000807525743           
       0.265892              0.0123695893            0.000783459588           
       0.266571              0.0130157595            0.000801834927           
       0.267250              0.0129938964            0.000802510822           
       0.267929              0.0118297011            0.000764931484           
       0.268609              0.0112641182             0.00075050857           
       0.269288              0.0112814535            0.000738608656           
       0.269967              0.0126107452            0.000789326022           
       0.270646              0.0129877768            0.000797575887           
       0.271325              0.0126798289            0.000789379867           
       0.272004              0.0128128996            0.000785601195           
       0.272683              0.0125254778            0.000777699575           
       0.273363              0.0123007278            0.000775606066           
       0.274042              0.0127807266            0.000785929624           
       0.274721              0.0123133961            0.000770969598           
       0.275400              0.0107649514            0.000716092831           
       0.276079              0.0115825929            0.000747007966           
       0.276758              0.0128337541            0.000796242811           
       0.277438              0.0111515011            0.000733892981           
       0.278117              0.0117822742            0.000768080525           
       0.278796                 0.0103008            0.000710881007           
       0.279475               0.010664182             0.00073525994           
       0.280154              0.0107466712            0.000727481131           
       0.280833              0.0117295911            0.000764643959           
       0.281513               0.011749465            0.000777297869           
       0.282192              0.0105411874            0.000723685812           
       0.282871              0.0116099842            0.000764795477           
       0.283550               0.010195531            0.000720535816           
       0.284229              0.0107688957            0.000751395339           
       0.284908              0.0120325446            0.000802635702           
       0.285588              0.0104783084            0.000740235125           
       0.286267              0.0101363033            0.000739711943           
       0.286946              0.0117577874            0.000791502273           
       0.287625              0.0106788033            0.000767154817           
       0.288304             0.00936414771            0.000708767429           
       0.288983             0.00868252647            0.000691127063           
       0.289663              0.0114844777            0.000799511869           
       0.290342              0.0115885369            0.000798850675           
       0.291021              0.0114757447            0.000799236326           
       0.291700             0.00979947976            0.000728912609           
       0.292379             0.00993950643            0.000750909957           
       0.293058              0.0100905177            0.000753734861           
       0.293738              0.0101356488            0.000749075001           
       0.294417              0.0090089858            0.000714424373           
       0.295096             0.00946246222            0.000724135137           
       0.295775              0.0109306435            0.000790174108           
       0.296454             0.00964253887             0.00073255736           
       0.297133              0.0114654078            0.000802583986           
       0.297812             0.00987835603             0.00074870517           
       0.298492              0.0104892629            0.000772999597           
       0.299171              0.0115363046             0.00080912891           
       0.299850              0.0114350349            0.000800068766           
       0.300529             0.00933778752            0.000731131193           
       0.301208             0.00968245442            0.000746313962           
       0.301887             0.00869376605            0.000706344262           
       0.302567             0.00859964608            0.000698991945           
       0.303246              0.0107803117            0.000787723407           
       0.303925             0.00905983284            0.000731406686           
       0.304604             0.00786723747            0.000666852178           
       0.305283             0.00897627588            0.000722870235           
       0.305962             0.00858062772            0.000702490056           
       0.306642             0.00964877696             0.00075504953           
       0.307321             0.00847409514            0.000705337492           
       0.308000             0.00816649754            0.000684210394           
       0.308679               0.010261224            0.000783566491           
       0.309358             0.00857097009            0.000706441846           
       0.310037             0.00920159298            0.000733600288           
       0.310717             0.00726524182             0.00065123087           
       0.311396             0.00771633665            0.000675644834           
       0.312075             0.00857256413            0.000721175524           
       0.312754             0.00805730402            0.000685179093           
       0.313433             0.00809238859            0.000692641252           
       0.314112             0.00848691972            0.000709161802           
       0.314792             0.00849445871            0.000714486836           
       0.315471             0.00840419364            0.000701891797           
       0.316150              0.0092770371              0.0007442651           
       0.316829             0.00832887881            0.000709863332           
       0.317508              0.0096083597            0.000753885238           
       0.318187             0.00791416954            0.000693226063           
       0.318866             0.00869452569            0.000716811515           
       0.319546             0.00782327332            0.000690141143           
       0.320225              0.0069801807            0.000651906768           
       0.320904             0.00745778247            0.000663421381           
       0.321583             0.00860617858            0.000728375659           
       0.322262             0.00821118379            0.000700681417           
       0.322941             0.00851738121             0.00072276888           
       0.323621             0.00723155666            0.000661917377           
       0.324300             0.00670516417            0.000637870988           
       0.324979             0.00648466928            0.000628429411           
       0.325658             0.00719167726            0.000663002018           
       0.326337             0.00969805747            0.000770918793           
       0.327016             0.00813313785            0.000701502717           
       0.327696             0.00777271434            0.000693410003           
       0.328375             0.00897254341            0.000738722362           
       0.329054              0.0079202979            0.000697819889           
       0.329733              0.0087233659            0.000735017651           
       0.330412             0.00854491394            0.000721500271           
       0.331091              0.0076958228            0.000697135905           
       0.331771             0.00690196062            0.000642901544           
       0.332450               0.006333529             0.00062781577           
       0.333129             0.00680530024            0.000649098922           
       0.333808             0.00792246853            0.000701279484           
       0.334487             0.00729907444            0.000676315017           
       0.335166             0.00715405788            0.000659763618           
       0.335846             0.00666374075            0.000647943062           
       0.336525             0.00688772565             0.00065223875           
       0.337204             0.00639196685            0.000629974552           
       0.337883             0.00639381308            0.000630900704           
       0.338562             0.00685348711            0.000656810709           
       0.339241             0.00675501892            0.000653297125           
       0.339921             0.00658137959            0.000634031881           
       0.340600             0.00552129449            0.000591756729           
       0.341279             0.00662562217            0.000641298821           
       0.341958             0.00719638164            0.000677779655           
       0.342637             0.00631397426            0.000625898254           
       0.343316             0.00671529453            0.000647351916           
       0.343995             0.00708417813            0.000675781432           
       0.344675             0.00564610173            0.000592216185           
       0.345354             0.00603545787            0.000616334295           
       0.346033              0.0073732058            0.000679447357           
       0.346712             0.00532394114            0.000581040767           
       0.347391             0.00712618724            0.000676393408           
       0.348070             0.00678407787            0.000650585426           
       0.348750              0.0065471759            0.000648360203           
       0.349429              0.0068066207            0.000652547236           
       0.350108             0.00654091122             0.00064738134           
       0.350787             0.00638281597            0.000628645272           
       0.351466             0.00571194814            0.000605646275           
       0.352145             0.00520539004            0.000578647127           
       0.352825              0.0061160686             0.00062438393           
       0.353504             0.00585180463            0.000610595969           
       0.354183             0.00808132251            0.000709279884           
       0.354862             0.00541496689            0.000594087896           
       0.355541             0.00609071201            0.000621815487           
       0.356220             0.00617253608            0.000627160771           
       0.356900             0.00571418296            0.000609157763           
       0.357579             0.00600596536            0.000616859035           
       0.358258             0.00598651612             0.00062438201           
       0.358937              0.0051935836            0.000570629527           
       0.359616             0.00502534265            0.000569149267           
       0.360295             0.00650252412            0.000647956683           
       0.360975             0.00536557051            0.000586072825           
       0.361654             0.00465826118            0.000548894401           
       0.362333             0.00627269888            0.000633709451           
       0.363012             0.00426588853            0.000529321876           
       0.363691             0.00591413058            0.000610951394           
       0.364370             0.00529213195            0.000585101288           
       0.365050             0.00563312012            0.000600426794           
       0.365729             0.00639011071            0.000645596458           
       0.366408             0.00414061909            0.000520834973           
       0.367087             0.00467938964            0.000544803749           
       0.367766             0.00607743918            0.000633813839           
       0.368445              0.0054642974            0.000590321481           
       0.369124              0.0054377374             0.00059351117           
       0.369804             0.00464675194            0.000547771021           
       0.370483              0.0047557442            0.000556582592           
       0.371162             0.00553930092            0.000604169074           
       0.371841             0.00355397724            0.000475498756           
       0.372520             0.00583009433            0.000621225143           
       0.373199             0.00530091587            0.000585284159           
       0.373879             0.00607853308            0.000634001112           
       0.374558             0.00416554401            0.000517180836           
       0.375237             0.00450551999            0.000538753824           
       0.375916             0.00455619045            0.000552153825           
       0.376595             0.00483037643            0.000557413536           
       0.377274             0.00512223927            0.000583194791           
       0.377954             0.00371709286            0.000489000065           
       0.378633             0.00415420672            0.000523486115           
       0.379312             0.00541402502            0.000597463794           
       0.379991             0.00397806353            0.000509487647           
       0.380670             0.00420425899            0.000533029844           
       0.381349             0.00316359779              0.0004557393           
       0.382029             0.00365909644            0.000497154417           
       0.382708             0.00471441668            0.000551987734           
       0.383387             0.00392143618            0.000514837605           
       0.384066             0.00545044728            0.000601395995           
       0.384745             0.00388198103            0.000509536222           
       0.385424             0.00384889986            0.000509083723           
       0.386104             0.00448002031            0.000543168769           
       0.386783             0.00435514079            0.000547128686           
       0.387462             0.00273777483            0.000423006162           
       0.388141             0.00467431403            0.000561549933           
       0.388820             0.00405843018            0.000519466678           
       0.389499             0.00418476598            0.000530459529           
       0.390178             0.00394196624            0.000516891198           
       0.390858             0.00413555225              0.0005251471           
       0.391537             0.00437992082            0.000545958418           
       0.392216             0.00445608913            0.000543782768           
       0.392895             0.00407807038            0.000521959126           
       0.393574             0.00465721131            0.000556409145           
       0.394253             0.00402332186            0.000519485068           
       0.394933              0.0048208303            0.000575143539           
       0.395612             0.00453373964            0.000541553821           
       0.396291             0.00513272047            0.000587949477           
       0.396970             0.00397745203            0.000512983878           
       0.397649             0.00445518639             0.00054458949           
       0.398328             0.00324304428            0.000462593573           
       0.399008             0.00453876141            0.000546068293           
       0.399687             0.00557085863            0.000607330418           
       0.400366              0.0038847681            0.000505221986           
       0.401045             0.00399663506            0.000511475738           
       0.401724             0.00419835184            0.000525099402           
       0.402403             0.00460972668            0.000554512698           
       0.403083             0.00376402965            0.000493847057           
       0.403762             0.00373475319            0.000494348497           
       0.404441             0.00398067783            0.000513615407           
       0.405120             0.00322741878            0.000460957289           
       0.405799             0.00398110366            0.000509734407           
       0.406478              0.0036547196            0.000488405049           
       0.407158             0.00331029352            0.000463949307           
       0.407837             0.00422467112            0.000528749733           
       0.408516             0.00374879326            0.000493747388           
       0.409195             0.00418246444            0.000527441229           
       0.409874             0.00422602606            0.000537557369           
       0.410553              0.0033053812            0.000480524389           
       0.411233              0.0033782908            0.000483277968           
       0.411912             0.00364756472            0.000509284401           
       0.412591             0.00363582187            0.000511829113           
       0.413270             0.00311526041            0.000471522807           
       0.413949             0.00288810609            0.000458965207           
       0.414628              0.0027142034            0.000444133912           
       0.415307             0.00316593686            0.000485007081           
       0.415987             0.00332601819            0.000493021217           
       0.416666             0.00349209014            0.000502140406           
       0.417345             0.00377858167            0.000531054823           
       0.418024              0.0036204927            0.000519840189           
       0.418703             0.00272992906            0.000450570872           
       0.419382             0.00305311918            0.000474161045           
       0.420062             0.00299271026            0.000470762027           
       0.420741             0.00229692435            0.000414615859           
       0.421420             0.00186503968            0.000375025284           
       0.422099             0.00297857145            0.000473949216           
       0.422778             0.00279240376            0.000461383861           
       0.423457             0.00221767609            0.000413687554           
       0.424137             0.00250722493            0.000432697302           
       0.424816             0.00277899358            0.000465065587           
       0.425495             0.00247067905            0.000438094254           
       0.426174             0.00362173739            0.000530603254           
       0.426853              0.0015169402            0.000341310462           
       0.427532             0.00217542331            0.000412186399           
       0.428212             0.00267345269            0.000459955129           
       0.428891             0.00259621573             0.00045223136           
       0.429570             0.00204311207             0.00040145163           
       0.430249             0.00279495031             0.00046710387           
       0.430928             0.00285335256            0.000482279351           
       0.431607             0.00211030109            0.000407629962           
       0.432287             0.00246264709            0.000443572026           
       0.432966             0.00235739448             0.00043780685           
       0.433645             0.00261504315            0.000461592922           
       0.434324             0.00257561942            0.000455338886           
       0.435003             0.00242560471            0.000442634269           
       0.435682             0.00246419463            0.000449800477           
       0.436361             0.00197253168            0.000401895156           
       0.437041             0.00196198322            0.000400284206           
       0.437720             0.00256250998            0.000459667004           
       0.438399              0.0023317931            0.000440773967           
       0.439078             0.00259432692            0.000478407355           
       0.439757             0.00201975528            0.000419518528           
       0.440436             0.00176631206            0.000401156969           
       0.441116             0.00342596821            0.000567827505           
       0.441795             0.00260028504            0.000495288404           
       0.442474             0.00327567264              0.0005574517           
       0.443153             0.00286205509            0.000533226268           
       0.443832             0.00285383237            0.000533357237           
       0.444511             0.00223864281            0.000470256807           
       0.445191             0.00299406811            0.000557070983           
       0.445870             0.00278274179            0.000537066439           
       0.446549             0.00158476081            0.000409570922           
       0.447228             0.00247983816            0.000509445743           
       0.447907             0.00244843925            0.000512284441           
       0.448586             0.00271322179            0.000552249081           
       0.449266             0.00166028403             0.00042802617           
       0.449945             0.00197410298            0.000464824482           
       0.450624             0.00309407654            0.000591169732           
       0.451303             0.00280499332            0.000570172222           
       0.451982              0.0018338477            0.000458172136           
       0.452661             0.00240471751            0.000534435836           
       0.453341             0.00182554074            0.000467281513           
       0.454020             0.00183123758            0.000468723252           
       0.454699             0.00308819805              0.0006142501           
       0.455378             0.00212634509            0.000509967547           
       0.456057             0.00157984851            0.000447393044           
       0.456736             0.00192150493            0.000491864939           
       0.457416             0.00169345103            0.000461767929           
       0.458095             0.00265642388            0.000586713676           
       0.458774             0.00207489371            0.000525384647           
       0.459453              0.0018294993            0.000495827293           
       0.460132              0.0014734312            0.000435358898           
       0.460811             0.00147304893            0.000451543374           
       0.461490             0.00116399047             0.00039730681           
       0.462170             0.00191276422            0.000517257763           
       0.462849              0.0015098005            0.000462534124           
       0.463528             0.00122384258            0.000415468883           
       0.464207             0.00140862092             0.00045407107           
       0.464886            0.000831186464            0.000346083636           
       0.465565              0.0017248187            0.000504020646           
       0.466245             0.00130786824            0.000440254876           
       0.466924             0.00183281679            0.000533483822           
       0.467603             0.00115470881            0.000414464289           
       0.468282             0.00185260262            0.000537427991           
       0.468961             0.00124945579            0.000444255964           
       0.469640             0.00143390792            0.000477818046           
       0.470320             0.00188261271            0.000547876253           
       0.470999            0.000654151458            0.000326000437           
       0.471678             0.00131804436            0.000467195412           
       0.472357            0.000173988618            0.000170217698           
       0.473036             0.00220908357            0.000610355781           
       0.473715             0.00139167918            0.000488237076           
       0.474395             0.00178322787            0.000560307997           
       0.475074             0.00108459641            0.000436988623           
       0.475753            0.000711083322             0.00035077822           
       0.476432             0.00169825247            0.000561828031           
       0.477111             0.00111975214            0.000450691485           
       0.477790             0.00114869398            0.000458917716           
       0.478470            0.000424981346            0.000282828515           
       0.479149            0.000447068124            0.000293085315           
       0.479828             0.00119530563            0.000478104816           
       0.480507            6.01261843e-05            0.000108094305           
       0.481186            0.000284976641            0.000240633962           
       0.481865            0.000269003619            0.000230897798           
       0.482545            0.000278494816            0.000237695472           
       0.483224            8.66895791e-05            0.000133522129           
       0.483903            0.000941541045             0.00044696858           
       0.484582            0.000545643846            0.000345794136           
       0.485261             0.00112787494            0.000484561082           
       0.485940            0.000131126447            0.000171885302           
       0.486619            0.000118731784            0.000161760789           
       0.487299             0.00011591822            0.000162380708           
       0.487978           -9.94383705e-05                         0           
       0.488657             0.00014655727            0.000188181193           
       0.489336           -0.000322090644                         0           
       0.490015            0.000138180115            0.000180931017           
       0.490694            0.000176558183            0.000210175797           
       0.491374           -0.000322149298                         0           
       0.492053            0.000193092159             0.00022307351           
       0.492732            0.000186966593            0.000218119542           
       0.493411            0.000692644321            0.000422069294           
       0.494090              -0.000322228                         0           
       0.494769           -5.34197936e-05                         0           
       0.495449            0.000202999348            0.000232259915           
       0.496128           -0.000322287053                         0           
       0.496807           -0.000322306652                         0           
       0.497486           -0.000322326431                         0           
       0.498165           -0.000322346496                         0           
       0.498844           -0.000322366257                         0           
       0.499524           -0.000322386112                         0           
       0.500203           -0.000322406282                         0           
       0.500882            0.000277110931            0.000289899287           
       0.501561           -2.22318206e-05                         0           
       0.502240            -0.00032246599                         0           
       0.502919              -0.000322486                         0           
       0.503599           -0.000322506091                         0           
       0.504278           -0.000322526465                         0           
       0.504957           -0.000322546598                         0           
       0.505636           -0.000322566603                         0           
       0.506315            1.33079761e-05             6.6355932e-05           
       0.506994            2.13544827e-05            8.54753321e-05           
       0.507673           -0.000322626838                         0           
       0.508353            8.79920377e-06            5.42598788e-05           
       0.509032           -0.000322667452                         0           
       0.509711           -0.000322687723                         0           
       0.510390           -0.000322708313                         0           
       0.511069           -0.000322728835                         0           
       0.511748           -0.000322749274                         0           
       0.512428            -0.00032276986                         0           
       0.513107           -0.000322790128                         0           
       0.513786            0.000858852574            0.000590162714           
       0.514465           -0.000322831138                         0           
       0.515144           -0.000322851803                         0           
       0.515823           -0.000322872279                         0           
       0.516503           -0.000322892947                         0           
       0.517182            9.83687184e-05            0.000204986498           
       0.517861           -0.000322934229                         0           
       0.518540            0.000128633381            0.000241345376           
       0.519219           -0.000322975574                         0           
       0.519898           -0.000322996395                         0           
       0.520578            0.000127506927            0.000239414505           
       0.521257           -0.000323038017                         0           
       0.521936           -0.000323058741                         0           
       0.522615           -0.000323079715                         0           
       0.523294           -0.000323100766                         0           
       0.523973           -0.000323121526                         0           
       0.524653            0.000198864423            0.000322712765           
       0.525332           -0.000323163047                         0           
       0.526011            0.000188472921            0.000313510744           
       0.526690            0.000180938057            0.000298929059           
       0.527369            -0.00032322665                         0           
       0.528048           -0.000323247871                         0           
       0.528728           -0.000323269066                         0           
       0.529407           -0.000323290164                         0           
       0.530086           -0.000323311153                         0           
       0.530765            0.000228922966            0.000364118536           
       0.531444           -0.000323353416                         0           
       0.532123           -0.000323375037                         0           
       0.532802           -0.000323396482                         0           
       0.533482             0.00027776509            0.000404048972           
       0.534161           -0.000323439259                         0           
       0.534840           -0.000323460481                         0           
       0.535519           -0.000323482097                         0           
       0.536198           -0.000323503488                         0           
       0.536877           -0.000323524585                         0           
       0.537557           -0.000323546045                         0           
       0.538236           -0.000323567698                         0           
       0.538915            0.000884846988            0.000732087491           
       0.539594           -0.000323610959                         0           
       0.540273           -0.000323632913                         0           
       0.540952           -0.000323654622                         0           
       0.541632           -0.000323675935                         0           
       0.542311           -0.000323697443                         0           
       0.542990           -0.000323719192                         0           
       0.543669           -0.000323741122                         0           
       0.544348           -0.000323763027                         0           
       0.545027             0.00104880704            0.000842745336           
       0.545707           -0.000323806808                         0           
       0.546386           -0.000323828793                         0           
       0.547065           -0.000323850514                         0           
       0.547744           -0.000323872334                         0           
       0.548423           -0.000323894394                         0           
       0.549102           -0.000323916477                         0           
       0.549782           -0.000323938448                         0           
       0.550461            -0.00032396068                         0           
       0.551140           -0.000323983046                         0           
       0.551819           -0.000324005148                         0           
       0.552498           -0.000324027439                         0           
       0.553177           -0.000324049347                         0           
       0.553856            0.000590731547            0.000734068114           
       0.554536           -0.000324093393                         0           
       0.555215           -0.000324115788                         0           
       0.555894           -0.000324138131                         0           
       0.556573           -0.000324160606                         0           
       0.557252           -0.000324183062                         0           
       0.557931           -0.000324205417                         0           
       0.558611           -0.000324228295                         0           
       0.559290            -0.00032425059                         0           
       0.559969           -0.000324272337                         0           
       0.560648            0.000599129574             0.00074231819           
       0.561327           -0.000324317483                         0           
       0.562006           -0.000324340198                         0           
       0.562686           -0.000324362926                         0           
       0.563365             0.00168233467             0.00131026875           
       0.564044           -0.000324408435                         0           
       0.564723           -0.000324431082                         0           
       0.565402           -0.000324453306                         0           
       0.566081           -0.000324475679                         0           
       0.566761           -0.000324498292                         0           
       0.567440           -0.000324521365                         0           
       0.568119           -0.000324544255                         0           
       0.568798           -0.000324567468                         0           
       0.569477           -0.000324590531                         0           
       0.570156           -0.000324613706                         0           
       0.570836           -0.000324636794                         0           
       0.571515           -0.000324659394                         0           
       0.572194           -0.000324682649                         0           
       0.572873             0.00120820691             0.00136347958           
       0.573552           -0.000324727961                         0           
       0.574231           -0.000324751009                         0           
       0.574911           -0.000324774637                         0           
       0.575590           -0.000324797811                         0           
       0.576269           -0.000324820913                         0           
       0.576948            -0.00032484446                         0           
       0.577627           -0.000324867288                         0           
       0.578306           -0.000324890439                         0           
       0.578985           -0.000324913787                         0           
       0.579665           -0.000324937002                         0           
       0.580344           -0.000324960567                         0           
       0.581023           -0.000324984106                         0           
       0.581702           -0.000325007428                         0           
       0.582381           -0.000325030538                         0           
       0.583060           -0.000325054338                         0           
       0.583740           -0.000325077764                         0           
       0.584419           -0.000325101267                         0           
       0.585098           -0.000325124743                         0           
       0.585777           -0.000325148401                         0           
       0.586456           -0.000325172445                         0           
       0.587135           -0.000325195849                         0           
       0.587815              -0.000325219                         0           
       0.588494           -0.000325242873                         0           
       0.589173           -0.000325267294                         0           
       0.589852           -0.000325290417                         0           
       0.590531           -0.000325314412                         0           
       0.591210           -0.000325337854                         0           
       0.591890           -0.000325361748                         0           
       0.592569           -0.000325384843                         0           
       0.593248           -0.000325410093                         0           
       0.593927           -0.000325434099                         0           
       0.594606           -0.000325458599                         0           
       0.595285           -0.000325481639                         0           
       0.595965            -0.00032550314                         0           
       0.596644           -0.000325525264                         0           
