################################################################################
# EDF_DataBlockID                     0.Image.Psd
# EDF_BinarySize                      4366944
# EDF_HeaderSize                      2560
# ByteOrder                           LowByteFirst
# DataType                            FloatValue
# Dim_1                               1028
# Dim_2                               1062
# Image                               0
# HeaderID                            EH:000000:000000:000000
# Size                                4366944
# Center_1                            607.5200
# Center_2                            651.5500
# Comment                             Xenocs_Cell_Window - 20251028_20perc_iodine_1.23mg
# DDummy                              0.6
# Date                                2025-10-28T23:25:14
# Delta                               0
# Dummy                               -1.5
# ExposureTime                        360
# Gamma                               0
# Intensity1                          8.5263e-10
# PSize_1                             7.5e-05
# PSize_2                             7.5e-05
# Pressure                            0.0339632
# SampleDistance                      0.450002
# SampleEnvKind                       large
# SampleEnvPN                         ElectroChemical cell
# SampleEnvSN                         1141
# Thickness                           0
# Wavelength                          1.541891e-10
# Wavelength                          1.54189e-10
# aux                                 0
# aux_dial                            0.002375
# beamx                               588.434
# beamx_dial                          588.434
# beamz                               657.808
# beamz_dial                          657.808
# det0x                               0
# det0x_dial                          6.36945
# det0xvd                             0
# det0xvd_dial                        0
# det0y                               450.002
# det0y_dial                          481.635
# det0z                               0
# det0z_dial                          1.23302
# det0zvd                             0
# det0zvd_dial                        0
# mag                                 1.818
# mag_dial                            1.818
# om                                  0.2499
# om_dial                             -0.610199
# phi                                 -0.0120535
# phi_dial                            0
# ry                                  0.599993
# ry_dial                             0.599993
# s1bot                               0.8
# s1bot_dial                          -1.66094
# s1hl                                0.8
# s1hl_dial                           -0.608437
# s1hr                                0.8
# s1hr_dial                           0.970938
# s1top                               0.8
# s1top_dial                          -0.461562
# s2bot                               0.45
# s2bot_dial                          1.36109
# s2hl                                0.45
# s2hl_dial                           -0.83375
# s2hr                                0.45
# s2hr_dial                           -0.118594
# s2top                               0.45
# s2top_dial                          1.44734
# w2theta                             32
# w2theta_dial                        32
# waxsch                              19.2605
# waxsch_dial                         -32.7355
# waxsh                               137.085
# waxsh_dial                          -43.5338
# waxsth                              26.0607
# waxsth_dial                         -19.4086
# waxsz                               67.0407
# waxsz_dial                          -23.7954
# wind                                65.9854
# wind_dial                           66.0041
# wpsi                                124
# wpsi_dial                           124
# wstod                               115
# wstod_dial                          115
# x                                   0
# x_dial                              1.00969
# z                                   0
# z_dial                              13.3172
# CountCutoff                         15302352
# DetectorModel                       Dectris EIGER2 Si 1M, S/N E-02-0362
# ThresholdSetting                    4023.88989258
# Saturation                          0
# FlatField                           Corrected
# BackgroundReductionExtra            0.02
# BackgroundCorrectionConstant        0.0026712
# Detector                            0
# Monitor                             0
# Pil_Roi0                            0
# SumForIntensity1                    3.06947e+08
# TransmittedFlux                     852630
# det                                 0
# mon                                 0
# pilai0                              3.06947e+08
# pilai1                              778479
# pilct0                              5.31773e+08
# pilct1                              778479
# pilroi0                             0
# pilroi1                             0
# sec                                 1
# title                               20251028_20perc_iodine_1.23mg_0_00082.edf
# usaxs0                              0
# Operation                           Azimuthal average I(q)
# Error_model                         ErrorModel.poisson
# Geometrical_correction              True
# Transmission_correction             True
# Thickness_correction                False
# Binning mode                        Uniform
# Binning factor                      1.0
# Psi                                 0.0
# Omega                               0.2499
# MaskInvalidPixels                   True
# DetectorEdge                        3
# MaskFiles                           ['20251028_20perc_iodine_1.23mg_0_00012_mask.edf']
################################################################################
    q(A⁻¹)                Intensity(a.u.)            Sigma_I(a.u.)            
       0.000340                370569.512                120.363788           
       0.001019                359666.269                72.6150277           
       0.001698                350268.633                50.6713312           
       0.002377                330414.773                44.0186239           
       0.003056                 307353.61                35.8807859           
       0.003735                253767.259                28.7533491           
       0.004415                205431.127                25.8704433           
       0.005094                153524.049                19.3682199           
       0.005773                101404.436                14.5732606           
       0.006452                59101.2317                10.6599652           
       0.007131                32341.3323                7.63914742           
       0.007810                16181.5231                5.36241644           
       0.008490                8057.95269                3.35425239           
       0.009169                3848.90681                2.29109311           
       0.009848                1180.36786                1.22669981           
       0.010527                455.775318               0.762263762           
       0.011206                115.921247               0.366897628           
       0.011885                53.9371037               0.232528002           
       0.012564                25.2304411               0.163277236           
       0.013244                17.2350051               0.126162097           
       0.013923                12.4890348               0.109128275           
       0.014602                9.63830878              0.0889115531           
       0.015281                7.63769581              0.0805689737           
       0.015960                6.25484676              0.0723887235           
       0.016639                5.08408307               0.061628773           
       0.017319                4.28334385              0.0556879779           
       0.017998                3.52132985              0.0483052903           
       0.018677                2.99908448              0.0461722291           
       0.019356                  2.477763               0.041468228           
       0.020035                2.17922802              0.0364863308           
       0.020714                1.87996093               0.034247234           
       0.021394                 1.5967985              0.0298638641           
       0.022073                1.49071423              0.0300211621           
       0.022752                1.30703753               0.026891056           
       0.023431                1.15659735              0.0245545636           
       0.024110                1.01348516              0.0239638464           
       0.024789               0.880174799              0.0207401787           
       0.025469               0.808536271              0.0204847116           
       0.026148                0.76650246               0.018740096           
       0.026827               0.689930068              0.0180639379           
       0.027506               0.637111866              0.0176090437           
       0.028185               0.545456982              0.0155379775           
       0.028864               0.547489289              0.0154795509           
       0.029544               0.484109709               0.014115238           
       0.030223               0.433428328              0.0135474733           
       0.030902                0.42476144              0.0135340703           
       0.031581               0.367536885              0.0119676362           
       0.032260               0.348459719              0.0118514588           
       0.032939               0.318072566               0.010917767           
       0.033619               0.317983617              0.0110766734           
       0.034298               0.273669475               0.010000123           
       0.034977               0.276694037             0.00985762465           
       0.035656               0.244056336             0.00950302704           
       0.036335                0.22780905             0.00890467409           
       0.037014               0.215587711             0.00868836504           
       0.037693               0.192716654             0.00790232354           
       0.038373               0.188909268             0.00790065229           
       0.039052               0.172286612             0.00757715116           
       0.039731               0.167596111               0.007299134           
       0.040410               0.161514456             0.00711743523           
       0.041089               0.148572082             0.00671938725           
       0.041768               0.143444813              0.0066369197           
       0.042448               0.138239616             0.00646483334           
       0.043127               0.140402535             0.00636133615           
       0.043806               0.128935149             0.00614147542           
       0.044485               0.125972407             0.00594579582           
       0.045164               0.127868437              0.0061084391           
       0.045843               0.108965667             0.00540837674           
       0.046523               0.111355239             0.00548623644           
       0.047202               0.108857508              0.0054622631           
       0.047881               0.102527676             0.00519884787           
       0.048560               0.103364609             0.00526760309           
       0.049239              0.0922763706             0.00477887012           
       0.049918              0.0941666214             0.00492194265           
       0.050598              0.0918839591             0.00478897686           
       0.051277              0.0861174339             0.00462155515           
       0.051956              0.0869611811             0.00461497657           
       0.052635              0.0884151284             0.00455464194           
       0.053314              0.0864230007             0.00463469349           
       0.053993              0.0851351619             0.00447386594           
       0.054673              0.0761151469             0.00413599985           
       0.055352              0.0767308615             0.00421369175           
       0.056031              0.0844524484             0.00432774317           
       0.056710              0.0746859327             0.00416954645           
       0.057389              0.0741680815             0.00400677609           
       0.058068              0.0770987662             0.00412728255           
       0.058748              0.0713100626             0.00401883178           
       0.059427              0.0642991132             0.00375155189           
       0.060106              0.0624110348             0.00373104311           
       0.060785              0.0639170765             0.00366266014           
       0.061464              0.0597590852             0.00362688745           
       0.062143              0.0639703339             0.00371438744           
       0.062822              0.0565542496             0.00345146942           
       0.063502              0.0621587474             0.00361198487           
       0.064181              0.0585439075             0.00346836832           
       0.064860              0.0488975246             0.00321804919           
       0.065539              0.0473339955             0.00313522123           
       0.066218              0.0475358192             0.00307462445           
       0.066897              0.0557261069             0.00335467666           
       0.067577              0.0460730369             0.00307962033           
       0.068256              0.0529738112             0.00338332478           
       0.068935              0.0474769127             0.00315119024           
       0.069614              0.0401161775             0.00292546631           
       0.070293              0.0435085544              0.0030747441           
       0.070972              0.0542477491             0.00340816783           
       0.071652              0.0434642138             0.00305627118           
       0.072331              0.0453606911             0.00306659094           
       0.073010              0.0423133721             0.00302946797           
       0.073689              0.0435427845             0.00305627588           
       0.074368              0.0466951535             0.00315921948           
       0.075047              0.0444165164              0.0030480556           
       0.075727               0.038895569             0.00283471888           
       0.076406              0.0423784032             0.00301795039           
       0.077085              0.0385572907             0.00282487921           
       0.077764              0.0353455498             0.00269519099           
       0.078443              0.0407946667             0.00291342916           
       0.079122              0.0337718867             0.00262535564           
       0.079802              0.0339473217             0.00266008223           
       0.080481              0.0338975035             0.00256846618           
       0.081160              0.0377331789             0.00276549726           
       0.081839              0.0394529216             0.00278254363           
       0.082518              0.0391312978             0.00277351252           
       0.083197              0.0357993425             0.00261158729           
       0.083876               0.034828562             0.00253313124           
       0.084556              0.0381462058             0.00272476407           
       0.085235              0.0315918007             0.00243174236           
       0.085914              0.0349432672             0.00258232324           
       0.086593               0.031859355             0.00244987066           
       0.087272              0.0329880912             0.00245765317           
       0.087951              0.0320040632             0.00247540159           
       0.088631              0.0301703209             0.00232157645           
       0.089310              0.0374671501              0.0026420021           
       0.089989              0.0347108191             0.00251323486           
       0.090668              0.0338877457             0.00251066951           
       0.091347              0.0358675632             0.00259743035           
       0.092026               0.030764454             0.00229933362           
       0.092706              0.0310616146             0.00239427315           
       0.093385              0.0322191921             0.00240103288           
       0.094064              0.0322609774             0.00243055204           
       0.094743              0.0318053457             0.00237655032           
       0.095422              0.0303795095             0.00229676876           
       0.096101              0.0314718551             0.00238584171           
       0.096781              0.0307928933             0.00232617492           
       0.097460              0.0301899805             0.00224045898           
       0.098139              0.0288895994             0.00217481202           
       0.098818              0.0272173328             0.00208493381           
       0.099497              0.0308561712             0.00222449414           
       0.100176              0.0280558064             0.00206548088           
       0.100856              0.0305869512             0.00215525922           
       0.101535              0.0266799599             0.00200902618           
       0.102214              0.0294430533             0.00211050858           
       0.102893              0.0292210781             0.00207858193           
       0.103572               0.026823095             0.00196204893           
       0.104251              0.0269293275             0.00197319302           
       0.104931              0.0273882286             0.00197181808           
       0.105610              0.0293951211              0.0020514981           
       0.106289              0.0263145591             0.00190872503           
       0.106968              0.0277581226             0.00196619843           
       0.107647              0.0244373747             0.00184595093           
       0.108326              0.0198585979             0.00164179157           
       0.109005              0.0265725981             0.00188720748           
       0.109685              0.0306833429             0.00200518745           
       0.110364              0.0264379113             0.00188244416           
       0.111043              0.0270914257             0.00189801258           
       0.111722              0.0250625022             0.00180324356           
       0.112401              0.0227193212             0.00172165401           
       0.113080              0.0244946551             0.00176717002           
       0.113760              0.0225624021             0.00172436547           
       0.114439               0.022173111              0.0016850282           
       0.115118               0.027413475             0.00185946842           
       0.115797               0.024829524             0.00178605892           
       0.116476              0.0208430924              0.0016119197           
       0.117155                0.02319776             0.00171424959           
       0.117835              0.0213112112             0.00161040257           
       0.118514              0.0213537953             0.00163245017           
       0.119193              0.0249475026             0.00176448945           
       0.119872              0.0216612272             0.00162360871           
       0.120551              0.0191144091             0.00151501778           
       0.121230              0.0235010846             0.00166298627           
       0.121910              0.0229216671             0.00165823087           
       0.122589               0.024142028             0.00170355461           
       0.123268              0.0234652344             0.00164696863           
       0.123947               0.024695788             0.00170052891           
       0.124626              0.0236687306             0.00164443716           
       0.125305              0.0207266233             0.00154639372           
       0.125985              0.0210016853             0.00154454239           
       0.126664              0.0217148503              0.0015555878           
       0.127343              0.0211761036             0.00155397568           
       0.128022              0.0223052562             0.00158263558           
       0.128701              0.0237610738             0.00162495788           
       0.129380              0.0242331326             0.00162046693           
       0.130059              0.0228500317             0.00157719798           
       0.130739              0.0225075905             0.00157634292           
       0.131418              0.0202573555             0.00149128261           
       0.132097              0.0251204299             0.00163936759           
       0.132776              0.0208646511             0.00148731594           
       0.133455              0.0190594794             0.00143256471           
       0.134134              0.0205220771             0.00148178141           
       0.134814              0.0228170157             0.00154633948           
       0.135493              0.0196564362             0.00144105924           
       0.136172              0.0213876279             0.00149183156           
       0.136851              0.0207053457             0.00147638022           
       0.137530              0.0193118516             0.00139195845           
       0.138209              0.0190578958             0.00139901036           
       0.138889              0.0201768016             0.00144583851           
       0.139568              0.0210535119             0.00147627806           
       0.140247              0.0218356359             0.00150147913           
       0.140926              0.0182631253             0.00133390591           
       0.141605              0.0181234665             0.00136255495           
       0.142284              0.0201512572             0.00141295267           
       0.142964              0.0172412688             0.00131195539           
       0.143643              0.0199873488             0.00141079229           
       0.144322              0.0218878146             0.00144544813           
       0.145001              0.0207289948             0.00143553759           
       0.145680               0.018627291             0.00132862391           
       0.146359              0.0193169019             0.00135794347           
       0.147039              0.0183818795             0.00133557649           
       0.147718               0.020184616             0.00137644186           
       0.148397              0.0193103839             0.00136722451           
       0.149076              0.0187411176             0.00130513725           
       0.149755               0.020816532             0.00139674512           
       0.150434              0.0170045538             0.00126291119           
       0.151114              0.0198547613             0.00135710589           
       0.151793               0.020731749             0.00138676667           
       0.152472              0.0180978518             0.00127279642           
       0.153151               0.017473605             0.00126274373           
       0.153830              0.0207103888             0.00136471612           
       0.154509              0.0213238808             0.00137900397           
       0.155188              0.0191756281             0.00130721385           
       0.155868              0.0203527522             0.00133715541           
       0.156547              0.0181935324             0.00127235884           
       0.157226              0.0179618571             0.00123335355           
       0.157905              0.0188666921             0.00127465457           
       0.158584              0.0191435174             0.00128163919           
       0.159263              0.0177581304             0.00123893513           
       0.159943               0.018537938             0.00126678947           
       0.160622              0.0187487193             0.00124938516           
       0.161301              0.0188257129             0.00126869303           
       0.161980              0.0166077565             0.00117135774           
       0.162659              0.0170727989             0.00120080806           
       0.163338              0.0178831592             0.00121895898           
       0.164018              0.0178556607             0.00121162857           
       0.164697              0.0173026749               0.001208034           
       0.165376              0.0170261234             0.00117215874           
       0.166055              0.0167439502             0.00117007118           
       0.166734              0.0182214911             0.00121513762           
       0.167413               0.016070255             0.00114195465           
       0.168093              0.0166147992             0.00117212478           
       0.168772              0.0185486712             0.00120224333           
       0.169451              0.0197258584             0.00126261692           
       0.170130              0.0161943287             0.00112900498           
       0.170809              0.0171605192             0.00117606621           
       0.171488              0.0164628758             0.00114141135           
       0.172168              0.0182696299             0.00119086323           
       0.172847              0.0143281633             0.00106846428           
       0.173526              0.0168568961             0.00113681205           
       0.174205              0.0157139417             0.00110265079           
       0.174884              0.0154604213              0.0010880202           
       0.175563              0.0154969774             0.00109395668           
       0.176243              0.0187480477             0.00121528834           
       0.176922              0.0151519024             0.00106406245           
       0.177601              0.0160149181             0.00110596825           
       0.178280              0.0172281429             0.00113429073           
       0.178959              0.0157635933             0.00109373462           
       0.179638              0.0156687762             0.00108730015           
       0.180317              0.0170639009             0.00112640785           
       0.180997              0.0161433726              0.0011015508           
       0.181676              0.0166094893             0.00110540979           
       0.182355              0.0158373489             0.00108589277           
       0.183034              0.0164730484             0.00108969778           
       0.183713              0.0169563009                0.00111903           
       0.184392              0.0171742957             0.00112585963           
       0.185072              0.0171927251             0.00111362566           
       0.185751              0.0161407655             0.00108202039           
       0.186430              0.0159118182             0.00106679448           
       0.187109              0.0191868794             0.00118449418           
       0.187788              0.0155492136             0.00106368479           
       0.188467              0.0155117938              0.0010498315           
       0.189147               0.016067143             0.00107927934           
       0.189826              0.0174485668             0.00110483076           
       0.190505              0.0149950435             0.00104107164           
       0.191184              0.0145584566             0.00101101989           
       0.191863              0.0143399363             0.00100551742           
       0.192542               0.017202951              0.0011117158           
       0.193222              0.0154879779             0.00103120815           
       0.193901              0.0167309641             0.00108615522           
       0.194580              0.0157465632             0.00103528561           
       0.195259              0.0164310441             0.00106969321           
       0.195938              0.0161998894             0.00106467784           
       0.196617              0.0154021143             0.00102364061           
       0.197297              0.0162182576             0.00105470038           
       0.197976              0.0174300798             0.00107659905           
       0.198655              0.0159657094             0.00104163704           
       0.199334              0.0143106569            0.000977473936           
       0.200013              0.0154021808             0.00101350441           
       0.200692               0.014121515            0.000976291766           
       0.201371              0.0153694054              0.0010070445           
       0.202051              0.0157438275             0.00102240683           
       0.202730              0.0162490798             0.00102830862           
       0.203409              0.0150298101            0.000995615016           
       0.204088              0.0168390643             0.00105267192           
       0.204767              0.0139451935            0.000952922801           
       0.205446              0.0153648589              0.0010022073           
       0.206126              0.0158937326             0.00100546136           
       0.206805              0.0159825357             0.00102675038           
       0.207484              0.0150829976            0.000979506393           
       0.208163              0.0147961713            0.000975977989           
       0.208842              0.0150539089            0.000981774011           
       0.209521              0.0148632635            0.000967430183           
       0.210201              0.0180977428             0.00107942953           
       0.210880               0.016968494             0.00102470024           
       0.211559              0.0141338476            0.000949028932           
       0.212238               0.015006226            0.000972902766           
       0.212917              0.0155820709            0.000987710548           
       0.213596               0.015141087            0.000979390747           
       0.214276              0.0143139892            0.000932425943           
       0.214955              0.0153736037             0.00098664303           
       0.215634              0.0154697534            0.000982630266           
       0.216313              0.0142803462            0.000942117123           
       0.216992              0.0153929098            0.000977883493           
       0.217671              0.0145016406            0.000942721898           
       0.218351              0.0164197721             0.00101294395           
       0.219030              0.0154887175            0.000968277149           
       0.219709              0.0146269751            0.000946825234           
       0.220388               0.016123009            0.000992789845           
       0.221067              0.0156057095             0.00097750776           
       0.221746                0.01305952            0.000893299253           
       0.222426              0.0169353625             0.00100205403           
       0.223105              0.0163625895             0.00099838162           
       0.223784              0.0142356555            0.000921997924           
       0.224463               0.015808868            0.000979346706           
       0.225142              0.0139017906            0.000903846928           
       0.225821              0.0147131128            0.000933593112           
       0.226500              0.0141454859            0.000921227615           
       0.227180              0.0156656982            0.000954530826           
       0.227859              0.0165742358            0.000986224515           
       0.228538              0.0177232602             0.00100959651           
       0.229217              0.0136803379            0.000894022764           
       0.229896              0.0140967109            0.000907089061           
       0.230575              0.0136454367             0.00087822548           
       0.231255               0.014698403            0.000925126968           
       0.231934              0.0141635068             0.00090193325           
       0.232613              0.0157584163             0.00095487083           
       0.233292              0.0148861597            0.000919100896           
       0.233971              0.0147467665            0.000914360659           
       0.234650              0.0144209664            0.000914839378           
       0.235330              0.0147291021            0.000916487929           
       0.236009              0.0130283038            0.000860092995           
       0.236688               0.012876647            0.000852012298           
       0.237367              0.0149941123             0.00092073609           
       0.238046              0.0149800796            0.000926786373           
       0.238725               0.013302046            0.000859863194           
       0.239405              0.0146827419            0.000908988635           
       0.240084              0.0144475939             0.00089593886           
       0.240763              0.0130259264            0.000858862488           
       0.241442              0.0137507576            0.000870000913           
       0.242121              0.0141209472            0.000883298129           
       0.242800              0.0145588933            0.000901136883           
       0.243480              0.0142568021            0.000887563384           
       0.244159              0.0138972716            0.000876724573           
       0.244838              0.0156101176            0.000913894121           
       0.245517              0.0125005489            0.000829583256           
       0.246196              0.0149233831             0.00090685623           
       0.246875              0.0126363269            0.000822846173           
       0.247554              0.0136172378            0.000862867858           
       0.248234              0.0140374766            0.000862796959           
       0.248913               0.012524192            0.000824106525           
       0.249592              0.0146703786            0.000883451242           
       0.250271               0.013480961            0.000844421827           
       0.250950              0.0140767741            0.000868165388           
       0.251629              0.0153060992            0.000897586149           
       0.252309              0.0143052947            0.000869506477           
       0.252988              0.0136017829             0.00083325176           
       0.253667              0.0128945872            0.000820780176           
       0.254346              0.0138688151            0.000851046786           
       0.255025              0.0128195953            0.000816429199           
       0.255704              0.0122844953             0.00079554794           
       0.256384               0.012919744            0.000813035648           
       0.257063                0.01466954            0.000871284441           
       0.257742              0.0130437481            0.000815893156           
       0.258421              0.0153341018            0.000882926389           
       0.259100              0.0129311111            0.000812212988           
       0.259779              0.0128607845            0.000809314708           
       0.260459              0.0126697112            0.000804857665           
       0.261138              0.0110875705            0.000738214829           
       0.261817              0.0126185391            0.000803430658           
       0.262496              0.0127641987            0.000800129784           
       0.263175              0.0133153466            0.000818977001           
       0.263854               0.013397565             0.00081768495           
       0.264534              0.0129242443            0.000796251936           
       0.265213              0.0126741098            0.000800934978           
       0.265892              0.0132964122            0.000809852143           
       0.266571              0.0135162029            0.000814661335           
       0.267250              0.0127333291              0.0007920484           
       0.267929              0.0113294453            0.000746344807           
       0.268609              0.0125437807            0.000789624881           
       0.269288              0.0129381637            0.000788619888           
       0.269967              0.0140028189            0.000829264973           
       0.270646              0.0122377166            0.000771888096           
       0.271325              0.0119726378             0.00076475762           
       0.272004              0.0127412007            0.000781057746           
       0.272683              0.0117754855            0.000751802324           
       0.273363              0.0105582595            0.000716426268           
       0.274042              0.0111482208             0.00073182663           
       0.274721              0.0119093343            0.000755947461           
       0.275400              0.0127329385            0.000776474418           
       0.276079              0.0116636278            0.000747375236           
       0.276758              0.0104991378            0.000718034029           
       0.277438              0.0121489355             0.00076372098           
       0.278117              0.0134089263            0.000816937317           
       0.278796              0.0122355761            0.000772454997           
       0.279475              0.0128103265            0.000803446145           
       0.280154              0.0117507372            0.000758432353           
       0.280833              0.0117574443            0.000763262334           
       0.281513              0.0108284339            0.000743979204           
       0.282192              0.0121482207            0.000774570888           
       0.282871              0.0120882338            0.000778055296           
       0.283550              0.0103383749            0.000723396374           
       0.284229              0.0110244195            0.000757984485           
       0.284908              0.0097545087            0.000720513257           
       0.285588              0.0113081622            0.000766689752           
       0.286267              0.0119353474            0.000800276208           
       0.286946              0.0100504058            0.000729593077           
       0.287625             0.00935022569            0.000715702132           
       0.288304              0.0104790898            0.000747533993           
       0.288983              0.0108073303            0.000768764986           
       0.289663              0.0105118359            0.000762619871           
       0.290342              0.0109456356            0.000774054139           
       0.291021              0.0108372099            0.000774360264           
       0.291700             0.00855837438            0.000679155363           
       0.292379             0.00881512298            0.000705048808           
       0.293058             0.00984068442             0.00074211989           
       0.293738              0.0108950022            0.000774306189           
       0.294417              0.0102624374             0.00076022669           
       0.295096             0.00990818741            0.000738778401           
       0.295775               0.010458736            0.000770617862           
       0.296454              0.0107357231            0.000770657004           
       0.297133              0.0097241774            0.000736922326           
       0.297812             0.00960932456            0.000736231622           
       0.298492             0.00878867681            0.000705452978           
       0.299171              0.0110161695            0.000788313941           
       0.299850              0.0100821577            0.000749005234           
       0.300529             0.00882951168            0.000708828553           
       0.301208             0.00985134425            0.000750543943           
       0.301887             0.00903228435            0.000717812123           
       0.302567             0.00979282303            0.000743678757           
       0.303246             0.00933130453            0.000730682681           
       0.303925             0.00899552372            0.000726627117           
       0.304604               0.008197192            0.000678657322           
       0.305283             0.00893934851            0.000719224913           
       0.305962             0.00939000931            0.000732678088           
       0.306642             0.00959709891            0.000750773326           
       0.307321             0.00865941109            0.000710876277           
       0.308000             0.00929607905            0.000727815323           
       0.308679              0.0105440309            0.000791916053           
       0.309358                0.01008653            0.000764067733           
       0.310037             0.00868272964            0.000710486228           
       0.310717             0.00861617975            0.000707077241           
       0.311396             0.00913973344            0.000733126948           
       0.312075             0.00704304513            0.000651726506           
       0.312754             0.00805396417            0.000682988852           
       0.313433             0.00933071692            0.000741527116           
       0.314112             0.00850160242            0.000707652792           
       0.314792             0.00834184117            0.000705922259           
       0.315471             0.00934356725             0.00073786692           
       0.316150              0.0100752362            0.000773303839           
       0.316829             0.00833413815            0.000707964304           
       0.317508             0.00754831034            0.000666200613           
       0.318187              0.0088381784            0.000730387161           
       0.318866             0.00906663293            0.000729801217           
       0.319546             0.00827694681            0.000707747412           
       0.320225             0.00898904639            0.000737578942           
       0.320904             0.00841425636            0.000702573911           
       0.321583             0.00671809109            0.000641612376           
       0.322262             0.00785966001            0.000683469493           
       0.322941              0.0077292266            0.000686457988           
       0.323621              0.0075654446            0.000675001371           
       0.324300             0.00733370691            0.000665103844           
       0.324979             0.00808424272            0.000699571003           
       0.325658             0.00799311462            0.000696878902           
       0.326337             0.00770637995            0.000685158431           
       0.327016             0.00790256813            0.000689420124           
       0.327696             0.00796692102             0.00069992023           
       0.328375             0.00765427616            0.000680260206           
       0.329054             0.00749594194            0.000676838779           
       0.329733             0.00737999631            0.000674036381           
       0.330412              0.0077221251            0.000683833874           
       0.331091             0.00777527801            0.000698630314           
       0.331771             0.00776204451            0.000679744708           
       0.332450             0.00672875438            0.000645173049           
       0.333129             0.00730700771            0.000670589218           
       0.333808             0.00633894479            0.000625415871           
       0.334487             0.00689723707            0.000655469144           
       0.335166             0.00645101382            0.000624634065           
       0.335846             0.00605454949            0.000615769615           
       0.336525             0.00716465442            0.000663232565           
       0.337204             0.00590296735            0.000603587839           
       0.337883             0.00740786755            0.000677060052           
       0.338562             0.00637107729            0.000631379392           
       0.339241              0.0063913985            0.000633570506           
       0.339921             0.00672768558            0.000639123829           
       0.340600             0.00641899192            0.000636144395           
       0.341279             0.00787899977            0.000697239838           
       0.341958             0.00684697617            0.000659144123           
       0.342637             0.00707877234            0.000660740382           
       0.343316             0.00668515901            0.000643966562           
       0.343995             0.00653205063            0.000646972515           
       0.344675             0.00683508577            0.000649647016           
       0.345354             0.00505722369            0.000562492642           
       0.346033             0.00694268801            0.000657341424           
       0.346712             0.00628662372            0.000629503656           
       0.347391             0.00625278186            0.000631694262           
       0.348070             0.00644124019            0.000632038023           
       0.348750             0.00541951771            0.000588124411           
       0.349429             0.00602236461            0.000611968747           
       0.350108             0.00611365182            0.000624009127           
       0.350787             0.00647281754            0.000631169081           
       0.351466             0.00638503605            0.000638422435           
       0.352145             0.00688834719            0.000663657823           
       0.352825             0.00582636129            0.000607594438           
       0.353504             0.00562552439            0.000596884183           
       0.354183             0.00598453412            0.000608542814           
       0.354862             0.00667719138            0.000657732429           
       0.355541             0.00629441839            0.000630238379           
       0.356220             0.00652221448             0.00064275305           
       0.356900             0.00521692432            0.000580309288           
       0.357579             0.00578686712            0.000603692548           
       0.358258             0.00544227304            0.000593544121           
       0.358937             0.00683346097            0.000652590245           
       0.359616             0.00583227327            0.000611310442           
       0.360295               0.005973451            0.000619180374           
       0.360975             0.00572231776             0.00060343314           
       0.361654             0.00469089945            0.000549167069           
       0.362333             0.00528287134            0.000579825782           
       0.363012             0.00569027546            0.000609510621           
       0.363691              0.0047502354            0.000545906559           
       0.364370             0.00610949851            0.000626784207           
       0.365050             0.00437555484            0.000527596207           
       0.365729             0.00428049552            0.000526809396           
       0.366408             0.00565686453            0.000606952814           
       0.367087             0.00410213481            0.000508569122           
       0.367766             0.00552318093            0.000602414731           
       0.368445             0.00437744249            0.000526782318           
       0.369124             0.00470833862            0.000550621504           
       0.369804             0.00551971904            0.000595226607           
       0.370483             0.00401423976             0.00050982552           
       0.371162             0.00491836851            0.000567598299           
       0.371841             0.00460508432            0.000539647784           
       0.372520             0.00488133898            0.000566735293           
       0.373199             0.00494770713            0.000563758169           
       0.373879             0.00539500782            0.000595506091           
       0.374558             0.00547777769            0.000591300577           
       0.375237             0.00517828687            0.000575851496           
       0.375916             0.00506223527            0.000580269647           
       0.376595             0.00499571836            0.000565178376           
       0.377274             0.00476183474            0.000560622349           
       0.377954             0.00427804102            0.000523033162           
       0.378633             0.00374151278            0.000495318185           
       0.379312             0.00524668513            0.000586399383           
       0.379991             0.00434868453            0.000531099991           
       0.380670             0.00451746002            0.000550875548           
       0.381349             0.00418547348            0.000522634034           
       0.382029             0.00531211172            0.000597224363           
       0.382708             0.00424525394            0.000522236019           
       0.383387             0.00498724685             0.00057886549           
       0.384066             0.00442447896            0.000540225486           
       0.384745             0.00479123654            0.000564380118           
       0.385424             0.00442792135            0.000544402858           
       0.386104             0.00413221109            0.000520098487           
       0.386783             0.00500359457            0.000584694466           
       0.387462             0.00468550543            0.000551728724           
       0.388141              0.0049050124            0.000573520614           
       0.388820              0.0041735141            0.000525205346           
       0.389499              0.0036181446            0.000491766757           
       0.390178             0.00514256801            0.000588616253           
       0.390858             0.00424570199            0.000530503814           
       0.391537             0.00388397349            0.000512582891           
       0.392216             0.00442951945            0.000540538154           
       0.392895             0.00445333168             0.00054381502           
       0.393574             0.00437083541            0.000537419048           
       0.394253             0.00421247376            0.000529966997           
       0.394933             0.00335847784            0.000478614782           
       0.395612             0.00495287918            0.000564341183           
       0.396291             0.00456742431            0.000552969812           
       0.396970             0.00454696223            0.000546841487           
       0.397649             0.00344653629            0.000477559276           
       0.398328             0.00446479362            0.000541157137           
       0.399008             0.00425059151            0.000526868834           
       0.399687             0.00381870499            0.000501327536           
       0.400366             0.00340325554            0.000471461804           
       0.401045             0.00415771907            0.000520121615           
       0.401724             0.00430912418             0.00053039101           
       0.402403              0.0031862765            0.000459637209           
       0.403083             0.00452042869             0.00053957933           
       0.403762             0.00390764363             0.00050414943           
       0.404441             0.00416516961            0.000523811965           
       0.405120             0.00379682039            0.000498474095           
       0.405799             0.00414304055            0.000518443388           
       0.406478             0.00415203305             0.00051901876           
       0.407158             0.00362469884            0.000484030562           
       0.407837             0.00315331344            0.000455445924           
       0.408516             0.00360549659            0.000482770975           
       0.409195             0.00407767217            0.000519234619           
       0.409874             0.00359627847            0.000494407366           
       0.410553             0.00389838914            0.000520291576           
       0.411233             0.00440172064            0.000549995658           
       0.411912             0.00256838544            0.000426077413           
       0.412591             0.00375046673            0.000518281713           
       0.413270              0.0034995169            0.000498263547           
       0.413949             0.00300671972            0.000466894982           
       0.414628             0.00407485506            0.000542560739           
       0.415307             0.00305818469            0.000475256811           
       0.415987             0.00331548318             0.00049076802           
       0.416666             0.00312494577            0.000473590771           
       0.417345             0.00286780901            0.000461264046           
       0.418024             0.00285981378            0.000460632347           
       0.418703             0.00277070664            0.000452566336           
       0.419382             0.00304741815            0.000472301754           
       0.420062             0.00268770197            0.000444794271           
       0.420741             0.00234848508            0.000417990111           
       0.421420              0.0034195407            0.000506290689           
       0.422099             0.00363996565            0.000522367299           
       0.422778             0.00338706862            0.000506622917           
       0.423457             0.00258381914             0.00044519881           
       0.424137             0.00338896894            0.000501557667           
       0.424816             0.00239040212            0.000430036636           
       0.425495             0.00230076211            0.000421497292           
       0.426174             0.00268651283            0.000455622782           
       0.426853             0.00256996339             0.00044292315           
       0.427532             0.00277873647            0.000464456442           
       0.428212             0.00227536981            0.000423062714           
       0.428891             0.00327399192            0.000506324135           
       0.429570             0.00242444129            0.000436006042           
       0.430249             0.00270062077            0.000457780999           
       0.430928             0.00276081515            0.000472976056           
       0.431607              0.0028790684            0.000474700204           
       0.432287             0.00204990694            0.000403487118           
       0.432966             0.00185516298            0.000387219301           
       0.433645             0.00299564254            0.000492565791           
       0.434324              0.0029432808            0.000485298876           
       0.435003             0.00224013848            0.000424103635           
       0.435682             0.00227924219            0.000431297744           
       0.436361             0.00252129487            0.000453014538           
       0.437041              0.0017889499            0.000381082881           
       0.437720             0.00253504464             0.00045582999           
       0.438399             0.00142378201             0.00034339362           
       0.439078             0.00169812348            0.000385895462           
       0.439757             0.00175470332            0.000389855046           
       0.440436             0.00265038832            0.000489930999           
       0.441116             0.00210098414            0.000443338746           
       0.441795             0.00371088242            0.000589910083           
       0.442474             0.00232312423            0.000468050546           
       0.443153             0.00253513305            0.000500348337           
       0.443832             0.00224907778            0.000472069281           
       0.444511             0.00252409633            0.000497846196           
       0.445191             0.00215068462            0.000470725369           
       0.445870             0.00215690328            0.000471418298           
       0.446549             0.00147022883            0.000393313871           
       0.447228             0.00217076582            0.000475217359           
       0.447907             0.00201893296             0.00046379599           
       0.448586             0.00202475873             0.00047564018           
       0.449266             0.00155023547            0.000412360924           
       0.449945             0.00271861159            0.000543847598           
       0.450624             0.00304286012            0.000584503611           
       0.451303             0.00209776087            0.000491606561           
       0.451982             0.00205894401            0.000484026177           
       0.452661             0.00238563044            0.000530719034           
       0.453341             0.00170050553             0.00044964669           
       0.454020             0.00230312193            0.000524085517           
       0.454699             0.00198032348            0.000490411079           
       0.455378             0.00235563383            0.000535154396           
       0.456057            0.000932421367            0.000342678734           
       0.456736              0.0014288832            0.000422885721           
       0.457416             0.00143375848            0.000423618566           
       0.458095             0.00160970817            0.000455355555           
       0.458774             0.00152404965            0.000448929919           
       0.459453              0.0016777774            0.000473403012           
       0.460132             0.00170480746            0.000466895517           
       0.460811             0.00160719984             0.00047024628           
       0.461490             0.00196502766            0.000514677488           
       0.462170             0.00175705008            0.000494274163           
       0.462849             0.00164336179            0.000481116366           
       0.463528            0.000525817808            0.000271514425           
       0.464207             0.00140505377            0.000452139843           
       0.464886             0.00110158038             0.00039722765           
       0.465565             0.00143587354            0.000458494613           
       0.466245             0.00202478601            0.000546149177           
       0.466924             0.00181834784            0.000529785112           
       0.467603             0.00203232511            0.000548210073           
       0.468282             0.00107431445             0.00040803216           
       0.468961            0.000931932537            0.000382529205           
       0.469640             0.00110864062            0.000418886968           
       0.470320             0.00190786351            0.000549889183           
       0.470999            0.000806481125            0.000360890683           
       0.471678             0.00098063623            0.000401778843           
       0.472357            0.000833530074            0.000371453514           
       0.473036             0.00135796567            0.000477112644           
       0.473715              0.0015433573            0.000512618142           
       0.474395            0.000903174726            0.000397565626           
       0.475074             0.00159508487            0.000528357027           
       0.475753             0.00104964507            0.000424906279           
       0.476432             0.00131846196             0.00049355507           
       0.477111            0.000752405557            0.000368335808           
       0.477790             0.00112878937            0.000453564074           
       0.478470            3.88946825e-05            8.53066555e-05           
       0.479149              0.0013424761            0.000506360744           
       0.479828             0.00080472722            0.000391117748           
       0.480507             0.00120656203            0.000482775651           
       0.481186            0.000291838766            0.000242785822           
       0.481865            0.000269166937            0.000230277299           
       0.482545            0.000870194253            0.000418909296           
       0.483224            0.000483997281            0.000314550807           
       0.483903            0.000313345323            0.000257080133           
       0.484582            9.83821574e-05            0.000146393133           
       0.485261            0.000497726732            0.000320932044           
       0.485940             0.00121737839            0.000522162803           
       0.486619            0.000538213008              0.0003433732           
       0.487299            0.000578167966            0.000361563958           
       0.487978            0.000773978262            0.000414071221           
       0.488657            0.000830885787            0.000446727552           
       0.489336            0.000570620621            0.000363717205           
       0.490015           -9.80247749e-05                         0           
       0.490694             0.00016095785            0.000200075725           
       0.491374           -0.000320225765                         0           
       0.492053           -0.000320245267                         0           
       0.492732           -0.000320264633                         0           
       0.493411           -0.000320284251                         0           
       0.494090           -0.000320303997                         0           
       0.494769           -0.000320323362                         0           
       0.495449           -5.54720504e-05                         0           
       0.496128             0.00021718297             0.00024193608           
       0.496807            0.000811251797            0.000478480603           
       0.497486            -0.00032040184                         0           
       0.498165           -0.000320421785                         0           
       0.498844           -0.000320441428                         0           
       0.499524           -0.000320461165                         0           
       0.500203           -0.000320481214                         0           
       0.500882           -0.000320500869                         0           
       0.501561            -1.9989549e-05                         0           
       0.502240            0.000567108585            0.000410422081           
       0.502919            0.000316507477            0.000316991671           
       0.503599           -0.000320580428                         0           
       0.504278           -0.000320600679                         0           
       0.504957           -0.000320620693                         0           
       0.505636           -0.000320640578                         0           
       0.506315            0.000672638409            0.000470342387           
       0.506994           -0.000320680643                         0           
       0.507673           -0.000320700453                         0           
       0.508353           -0.000320720682                         0           
       0.509032           -0.000320740825                         0           
       0.509711            2.27256294e-05            8.84265741e-05           
       0.510390           -0.000320781442                         0           
       0.511069            4.51618257e-05            0.000128201761           
       0.511748           -0.000320822159                         0           
       0.512428           -0.000320842621                         0           
       0.513107           -0.000320862768                         0           
       0.513786           -0.000320882979                         0           
       0.514465           -0.000320903534                         0           
       0.515144           -0.000320924075                         0           
       0.515823           -0.000320944429                         0           
       0.516503           -0.000320964974                         0           
       0.517182            0.000519634124            0.000469726565           
       0.517861            0.000113187302            0.000220013367           
       0.518540            0.000128331123            0.000240340897           
       0.519219           -0.000321047108                         0           
       0.519898           -0.000321067804                         0           
       0.520578           -0.000321088625                         0           
       0.521257           -0.000321109177                         0           
       0.521936           -0.000321129778                         0           
       0.522615           -0.000321150626                         0           
       0.523294            0.000156203279            0.000274638061           
       0.523973            0.000170456554            0.000288648015           
       0.524653           -0.000321212675                         0           
       0.525332            0.000160181969            0.000275933057           
       0.526011            -0.00032125462                         0           
       0.526690            -0.00032127574                         0           
       0.527369           -0.000321296684                         0           
       0.528048            0.000193221983            0.000313161426           
       0.528728           -0.000321338847                         0           
       0.529407           -0.000321359819                         0           
       0.530086           -0.000321380682                         0           
       0.530765           -0.000321401575                         0           
       0.531444           -0.000321422693                         0           
       0.532123           -0.000321444185                         0           
       0.532802           -0.000321465502                         0           
       0.533482           -0.000321486746                         0           
       0.534161           -0.000321508024                         0           
       0.534840           -0.000321529119                         0           
       0.535519           -0.000321550606                         0           
       0.536198           -0.000321571869                         0           
       0.536877            -0.00032159284                         0           
       0.537557           -0.000321614172                         0           
       0.538236            0.000320468264            0.000456704784           
       0.538915           -0.000321657212                         0           
       0.539594           -0.000321678699                         0           
       0.540273           -0.000321700521                         0           
       0.540952           -0.000321722101                         0           
       0.541632            0.000364518513            0.000502327215           
       0.542311           -0.000321764666                         0           
       0.542990           -0.000321786285                         0           
       0.543669           -0.000321808084                         0           
       0.544348            0.000423043668            0.000560912411           
       0.545027            0.000363005957            0.000494316352           
       0.545707           -0.000321873378                         0           
       0.546386           -0.000321895231                         0           
       0.547065           -0.000321916823                         0           
       0.547744           -0.000321938512                         0           
       0.548423           -0.000321960441                         0           
       0.549102           -0.000321982392                         0           
       0.549782           -0.000322004232                         0           
       0.550461           -0.000322026331                         0           
       0.551140           -0.000322048564                         0           
       0.551819           -0.000322070534                         0           
       0.552498           -0.000322092692                         0           
       0.553177           -0.000322114469                         0           
       0.553856           -0.000322136324                         0           
       0.554536           -0.000322158252                         0           
       0.555215           -0.000322180513                         0           
       0.555894           -0.000322202722                         0           
       0.556573            0.000640411581            0.000786142057           
       0.557252           -0.000322247386                         0           
       0.557931           -0.000322269607                         0           
       0.558611           -0.000322292348                         0           
       0.559290            -0.00032231451                         0           
       0.559969           -0.000322336128                         0           
       0.560648           -0.000322358319                         0           
       0.561327           -0.000322381003                         0           
       0.562006            0.000626679272            0.000771733806           
       0.562686           -0.000322426175                         0           
       0.563365           -0.000322448851                         0           
       0.564044           -0.000322471412                         0           
       0.564723           -0.000322493924                         0           
       0.565402           -0.000322516016                         0           
       0.566081           -0.000322538255                         0           
       0.566761           -0.000322560733                         0           
       0.567440           -0.000322583668                         0           
       0.568119           -0.000322606422                         0           
       0.568798           -0.000322629496                         0           
       0.569477           -0.000322652421                         0           
       0.570156           -0.000322675458                         0           
       0.570836           -0.000322698408                         0           
       0.571515           -0.000322720873                         0           
       0.572194             0.00120385749             0.00135690632           
       0.572873           -0.000322766577                         0           
       0.573552           -0.000322789031                         0           
       0.574231             0.00118320238             0.00133692212           
       0.574911           -0.000322835428                         0           
       0.575590           -0.000322858463                         0           
       0.576269           -0.000322881428                         0           
       0.576948           -0.000322904834                         0           
       0.577627           -0.000322927526                         0           
       0.578306           -0.000322950539                         0           
       0.578985           -0.000322973748                         0           
       0.579665           -0.000322996823                         0           
       0.580344           -0.000323020248                         0           
       0.581023           -0.000323043647                         0           
       0.581702            -0.00032306683                         0           
       0.582381           -0.000323089802                         0           
       0.583060           -0.000323113459                         0           
       0.583740           -0.000323136745                         0           
       0.584419           -0.000323160108                         0           
       0.585098           -0.000323183444                         0           
       0.585777           -0.000323206961                         0           
       0.586456            -0.00032323086                         0           
       0.587135           -0.000323254125                         0           
       0.587815           -0.000323277138                         0           
       0.588494           -0.000323300868                         0           
       0.589173           -0.000323325143                         0           
       0.589852           -0.000323348129                         0           
       0.590531           -0.000323371981                         0           
       0.591210           -0.000323395282                         0           
       0.591890           -0.000323419033                         0           
       0.592569           -0.000323441991                         0           
       0.593248           -0.000323467089                         0           
       0.593927           -0.000323490952                         0           
       0.594606           -0.000323515306                         0           
       0.595285           -0.000323538209                         0           
       0.595965           -0.000323559581                         0           
       0.596644           -0.000323581574                         0           
