################################################################################
# EDF_DataBlockID                     0.Image.Psd
# EDF_BinarySize                      2105344
# EDF_HeaderSize                      2560
# ByteOrder                           LowByteFirst
# DataType                            FloatValue
# Dim_1                               512
# Dim_2                               1028
# Image                               0
# HeaderID                            EH:000000:000000:000000
# Size                                2105344
# Center_1                            304.9000
# Center_2                            588.7000
# Comment                             Xenocs_Cell_Window - 20251028_20perc_iodine_1.23mg
# DDummy                              0.6
# Date                                2025-10-30T10:01:59
# Delta                               21.910000
# Dummy                               -1.5
# ExposureTime                        360
# Gamma                               15.360000
# Intensity1                          8.54531e-10
# PSize_1                             7.5e-05
# PSize_2                             7.5e-05
# Pressure                            0.0326462
# SampleDistance                      0.115750
# SampleEnvKind                       large
# SampleEnvPN                         ElectroChemical cell
# SampleEnvSN                         1141
# Thickness                           0
# Wavelength                          1.541891e-10
# Wavelength                          1.54189e-10
# aux                                 0
# aux_dial                            0.002375
# beamx                               588.434
# beamx_dial                          588.434
# beamz                               657.808
# beamz_dial                          657.808
# det0x                               0
# det0x_dial                          6.36945
# det0xvd                             0
# det0xvd_dial                        0
# det0y                               450.002
# det0y_dial                          481.635
# det0z                               0
# det0z_dial                          1.23302
# det0zvd                             0
# det0zvd_dial                        0
# mag                                 1.818
# mag_dial                            1.818
# om                                  0.2499
# om_dial                             -0.610199
# phi                                 -0.0120535
# phi_dial                            0
# ry                                  0.599993
# ry_dial                             0.599993
# s1bot                               0.8
# s1bot_dial                          -1.66094
# s1hl                                0.8
# s1hl_dial                           -0.608437
# s1hr                                0.8
# s1hr_dial                           0.970938
# s1top                               0.8
# s1top_dial                          -0.461562
# s2bot                               0.45
# s2bot_dial                          1.36109
# s2hl                                0.45
# s2hl_dial                           -0.83375
# s2hr                                0.45
# s2hr_dial                           -0.118594
# s2top                               0.45
# s2top_dial                          1.44734
# w2theta                             32
# w2theta_dial                        32
# waxsch                              19.2605
# waxsch_dial                         -32.7355
# waxsh                               137.085
# waxsh_dial                          -43.5338
# waxsth                              26.0607
# waxsth_dial                         -19.4086
# waxsz                               67.0407
# waxsz_dial                          -23.7954
# wind                                65.9854
# wind_dial                           66.0041
# wpsi                                124
# wpsi_dial                           124
# wstod                               115
# wstod_dial                          115
# x                                   0
# x_dial                              1.00969
# z                                   0
# z_dial                              13.3172
# CountCutoff                         6807993
# DetectorModel                       Dectris EIGER2 Si 500K, S/N E-01-0554
# ThresholdSetting                    4023.88989258
# Saturation                          0
# FlatField                           Corrected
# BackgroundReductionExtra            0.02
# BackgroundCorrectionConstant        0.0026712
# Detector                            0
# Monitor                             0
# Pil_Roi0                            0
# SumForIntensity1                    3.07631e+08
# TransmittedFlux                     854531
# det                                 0
# mon                                 0
# pilai0                              3.07631e+08
# pilai1                              774271
# pilct0                              5.3235e+08
# pilct1                              774271
# pilroi0                             0
# pilroi1                             0
# sec                                 1
# title                               20251028_20perc_iodine_1.23mg_1_00397.edf
# usaxs0                              0
# Operation                           Azimuthal average I(q)
# Error_model                         ErrorModel.poisson
# Geometrical_correction              True
# Transmission_correction             True
# Thickness_correction                False
# Binning mode                        Uniform
# Binning factor                      1.0
# Psi                                 0.0
# Omega                               0.2499
# MaskInvalidPixels                   True
# DetectorEdge                        3
# MaskFiles                           ['WAXS_corrected.edf']
################################################################################
    q(A⁻¹)                Intensity(a.u.)            Sigma_I(a.u.)            
       0.693100              0.0124261523             0.00743393043           
       0.695741             0.00565506363             0.00409238632           
       0.698381           -2.37398452e-05                         0           
       0.701021              0.0176658183              0.0125253479           
       0.703662              0.0114205581             0.00581307658           
       0.706302              0.0153834515             0.00522331754           
       0.708942              0.0028101998             0.00288143741           
       0.711583              0.0132166253             0.00541111386           
       0.714223             0.00583673944             0.00415156132           
       0.716864             0.00742586916             0.00306387282           
       0.719504             0.00145093068             0.00146146452           
       0.722144             0.00505173346             0.00252541046           
       0.724785             0.00944740245             0.00275485899           
       0.727425              0.0102668834             0.00388510291           
       0.730065             0.00652747241             0.00219127534           
       0.732706             0.00772051989             0.00200122743           
       0.735346             0.00262477636             0.00152104982           
       0.737987             0.00654809914             0.00169766494           
       0.740627             0.00387832637             0.00194940922           
       0.743267              0.0079261211             0.00186660898           
       0.745908             0.00361938852             0.00136851426           
       0.748548             0.00484716027             0.00145978819           
       0.751189             0.00721202843             0.00239933782           
       0.753829             0.00336293559             0.00150607662           
       0.756469             0.00788341593             0.00185942369           
       0.759110             0.00825861963             0.00200560501           
       0.761750             0.00684600299             0.00161462205           
       0.764390             0.00822916162             0.00185283011           
       0.767031             0.00749095035             0.00153082457           
       0.769671             0.00685799382             0.00182713295           
       0.772312             0.00902257543             0.00159546843           
       0.774952             0.00720792412              0.0019256962           
       0.777592             0.00709567134              0.0013916711           
       0.780233              0.0083337591             0.00181963426           
       0.782873             0.00614033874             0.00149383431           
       0.785513             0.00703715991             0.00170965606           
       0.788154             0.00837477627             0.00156020087           
       0.790794             0.00623103172             0.00160891435           
       0.793435             0.00673431143             0.00150262206           
       0.796075             0.00902593716             0.00167577412           
       0.798715             0.00562487219             0.00156328586           
       0.801356             0.00638458745             0.00143345612           
       0.803996             0.00701453466             0.00153182845           
       0.806637             0.00634762821             0.00115965462           
       0.809277             0.00744858313             0.00135969371           
       0.811917              0.0082593176             0.00133848647           
       0.814558             0.00767842676             0.00134130605           
       0.817198             0.00657783165             0.00117944631           
       0.819838             0.00734209038             0.00126112715           
       0.822479             0.00657211533             0.00140110505           
       0.825119             0.00949894881             0.00143367135           
       0.827760              0.0068726729             0.00123528596           
       0.830400             0.00881056123             0.00131638117           
       0.833040             0.00646145043              0.0011810779           
       0.835681             0.00781767379             0.00147688743           
       0.838321             0.00570153709             0.00105861567           
       0.840961             0.00721945433             0.00129789787           
       0.843602             0.00760506461             0.00122159843           
       0.846242             0.00606228423             0.00109051182           
       0.848883             0.00822464275             0.00129986284           
       0.851523              0.0073962771             0.00121735449           
       0.854163             0.00723144716             0.00128009517           
       0.856804              0.0078480611             0.00119904856           
       0.859444             0.00649839384             0.00106905252           
       0.862085             0.00667883575             0.00112958377           
       0.864725             0.00903588061             0.00134461315           
       0.867365             0.00721384217             0.00111406705           
       0.870006             0.00669363291             0.00102262603           
       0.872646             0.00875634554             0.00122651565           
       0.875286             0.00777887704             0.00111217495           
       0.877927             0.00545309655            0.000898550686           
       0.880567             0.00683452079             0.00104218134           
       0.883208             0.00670556711             0.00102257737           
       0.885848             0.00956350222             0.00126797339           
       0.888488             0.00797974254             0.00108635147           
       0.891129             0.00776096542             0.00110005899           
       0.893769             0.00783499169             0.00105779403           
       0.896410             0.00629339699            0.000883900886           
       0.899050             0.00900748559             0.00116291541           
       0.901690             0.00873336743              0.0012473288           
       0.904331             0.00757002442             0.00102954287           
       0.906971             0.00696572515              0.0010506386           
       0.909611             0.00867315601             0.00106721735           
       0.912252             0.00587543484            0.000907278191           
       0.914892             0.00718161838             0.00109614266           
       0.917533             0.00788736728             0.00108670436           
       0.920173             0.00797855525             0.00101405956           
       0.922813             0.00807238535             0.00107038028           
       0.925454              0.0073737252            0.000921193916           
       0.928094             0.00706172343            0.000962421076           
       0.930734             0.00940586635             0.00119582553           
       0.933375             0.00593708452            0.000940728982           
       0.936015             0.00884822464             0.00104302354           
       0.938656             0.00666530047            0.000971135836           
       0.941296             0.00791135263            0.000958861009           
       0.943936              0.0078119902            0.000934388276           
       0.946577              0.0088158963             0.00098605025           
       0.949217             0.00706892748            0.000811964688           
       0.951858             0.00663350069            0.000823371172           
       0.954498             0.00589624711            0.000898517377           
       0.957138             0.00885286807             0.00104303076           
       0.959779             0.00704326141            0.000917124725           
       0.962419             0.00752793926            0.000941848646           
       0.965059              0.0067728835            0.000939588252           
       0.967700             0.00600338429             0.00090600993           
       0.970340             0.00694584947             0.00086236728           
       0.972981             0.00691244063            0.000783807491           
       0.975621              0.0058345299            0.000766069067           
       0.978261             0.00752038312            0.000826397443           
       0.980902             0.00750147716            0.000987499704           
       0.983542             0.00744057245            0.000870938082           
       0.986182              0.0078723556            0.000879542375           
       0.988823             0.00898996721            0.000912648355           
       0.991463             0.00866048042            0.000955690709           
       0.994104             0.00852676688             0.00092506595           
       0.996744             0.00720459718            0.000867325509           
       0.999384             0.00802333884            0.000818568125           
       1.002025              0.0067778172             0.00083972637           
       1.004665             0.00696031184            0.000777668694           
       1.007306             0.00661000973             0.00075396754           
       1.009946             0.00768854666             0.00082930508           
       1.012586             0.00832131973            0.000840274143           
       1.015227              0.0070443964            0.000830572689           
       1.017867             0.00796355079            0.000848718696           
       1.020507             0.00893780458            0.000870936275           
       1.023148             0.00830331962            0.000905793666           
       1.025788             0.00719150328            0.000772939018           
       1.028429             0.00901614534            0.000906709267           
       1.031069             0.00654569788            0.000727014286           
       1.033709             0.00818839908            0.000864368115           
       1.036350             0.00749070361             0.00074251117           
       1.038990             0.00685866075            0.000723551861           
       1.041630             0.00764561047            0.000796791339           
       1.044271             0.00851257627            0.000790698757           
       1.046911             0.00798131403            0.000805340668           
       1.049552              0.0082631159            0.000860920125           
       1.052192             0.00830805457            0.000788263976           
       1.054832             0.00721849087            0.000741443508           
       1.057473             0.00704815193             0.00072223146           
       1.060113             0.00880047249            0.000787077485           
       1.062754              0.0088150848            0.000804259101           
       1.065394             0.00629526617            0.000718573126           
       1.068034             0.00917755792            0.000789411477           
       1.070675             0.00785435001            0.000761781563           
       1.073315             0.00615509493            0.000684027492           
       1.075955             0.00725151891            0.000700920828           
       1.078596             0.00796795923             0.00078087268           
       1.081236             0.00870677392            0.000781634452           
       1.083877             0.00846978688            0.000764007859           
       1.086517             0.00799284988            0.000795839959           
       1.089157             0.00913274682            0.000882694907           
       1.091798             0.00968331443            0.000796858298           
       1.094438             0.00944096052            0.000784283708           
       1.097078             0.00839686359            0.000709397698           
       1.099719             0.00883676197              0.0007871649           
       1.102359             0.00829786305            0.000714357488           
       1.105000             0.00823611018            0.000795813026           
       1.107640             0.00877680437            0.000785506776           
       1.110280             0.00859092002            0.000709084736           
       1.112921             0.00830609165            0.000748976801           
       1.115561             0.00770244369            0.000685485286           
       1.118202             0.00943197169            0.000759266336           
       1.120842             0.00888222391            0.000774388956           
       1.123482             0.00908928012            0.000779941533           
       1.126123             0.00834888433            0.000716978285           
       1.128763             0.00842298633            0.000725090688           
       1.131403             0.00945004545            0.000740059352           
       1.134044             0.00803796016            0.000702326298           
       1.136684             0.00899892787            0.000792299227           
       1.139325              0.0082279027            0.000697897783           
       1.141965             0.00869864111            0.000722328205           
       1.144605             0.00980574769            0.000731259075           
       1.147246              0.0083401273            0.000690189571           
       1.149886             0.00799745344            0.000673462547           
       1.152527             0.00833579654            0.000697559363           
       1.155167             0.00813340444            0.000655381036           
       1.157807             0.00855040101            0.000720473293           
       1.160448             0.00926674664             0.00073243978           
       1.163088             0.00878499346            0.000680237202           
       1.165728             0.00853140207            0.000688258243           
       1.168369             0.00881522433            0.000706076484           
       1.171009             0.00840032477            0.000668908174           
       1.173650             0.00913192656            0.000715727896           
       1.176290              0.0090996056             0.00069818786           
       1.178930             0.00982581412            0.000711068928           
       1.181571             0.00726682082            0.000623630851           
       1.184211             0.00855577081            0.000679081718           
       1.186851             0.00902177301            0.000681769594           
       1.189492               0.010223934            0.000720890169           
       1.192132             0.00893291967            0.000666279519           
       1.194773             0.00896428964            0.000670364644           
       1.197413             0.00921618409            0.000651266019           
       1.200053             0.00958349807            0.000680991639           
       1.202694             0.00923308021            0.000635634466           
       1.205334              0.0101995096            0.000719973362           
       1.207975             0.00892651776             0.00064291948           
       1.210615             0.00928352738             0.00072329334           
       1.213255               0.009434889            0.000652951282           
       1.215896             0.00909609193            0.000652737164           
       1.218536              0.0101109065            0.000661720496           
       1.221176              0.0111592684            0.000755803518           
       1.223817              0.0104508002            0.000686594766           
       1.226457             0.00951636593            0.000668380442           
       1.229098             0.00957648287            0.000670455605           
       1.231738             0.00943720612            0.000668837979           
       1.234378              0.0100643847            0.000649021487           
       1.237019              0.0108342315            0.000693918591           
       1.239659             0.00938765322            0.000640307029           
       1.242299             0.00908588768            0.000621928289           
       1.244940               0.010209382            0.000641171138           
       1.247580             0.00948397018            0.000636871453           
       1.250221              0.0107695535             0.00067447753           
       1.252861             0.00971241915            0.000609777628           
       1.255501              0.0108864388              0.0007009775           
       1.258142               0.011067175            0.000664139427           
       1.260782              0.0108125897            0.000670660081           
       1.263423             0.00974792197            0.000611879478           
       1.266063              0.0110907609            0.000668963246           
       1.268703              0.0104198353            0.000643032879           
       1.271344               0.011493435            0.000698236123           
       1.273984              0.0107172359            0.000651189238           
       1.276624             0.00950804183            0.000601831425           
       1.279265              0.0109774544            0.000657405071           
       1.281905              0.0101939671            0.000636322153           
       1.284546              0.0107642172            0.000632032281           
       1.287186              0.0106746551            0.000617505658           
       1.289826              0.0106498471            0.000650043732           
       1.292467              0.0115488383            0.000662014384           
       1.295107              0.0108955481            0.000636630057           
       1.297747              0.0111699851            0.000616826667           
       1.300388              0.0111088309            0.000670575705           
       1.303028              0.0097052339            0.000598363888           
       1.305669             0.00989648473            0.000618618079           
       1.308309              0.0103476917             0.00062633386           
       1.310949             0.00955553932            0.000601277677           
       1.313590               0.011455426            0.000637765231           
       1.316230              0.0107335023            0.000658789818           
       1.318871               0.011003101            0.000653256435           
       1.321511              0.0102368896            0.000618421888           
       1.324151              0.0105345685            0.000608750419           
       1.326792              0.0110476885            0.000627253835           
       1.329432              0.0114943284            0.000635292634           
       1.332072              0.0107864178            0.000606247008           
       1.334713              0.0103270718            0.000612239077           
       1.337353              0.0116705733            0.000624174731           
       1.339994              0.0113061958            0.000644702801           
       1.342634              0.0112350002            0.000616279913           
       1.345274              0.0100215364            0.000602364738           
       1.347915               0.010247315            0.000592291821           
       1.350555              0.0098513106             0.00059090549           
       1.353195              0.0112719589             0.00063518251           
       1.355836              0.0109933822            0.000617503092           
       1.358476              0.0103231071            0.000581119998           
       1.361117              0.0115152396            0.000614600355           
       1.363757              0.0101912348            0.000595843597           
       1.366397              0.0108052237            0.000594963771           
       1.369038              0.0109730993            0.000605537825           
       1.371678              0.0114427591            0.000612909367           
       1.374319              0.0120181784            0.000622722218           
       1.376959              0.0109945893            0.000589623705           
       1.379599              0.0112051703            0.000637920775           
       1.382240              0.0109954321             0.00059391208           
       1.384880              0.0105995241            0.000617658363           
       1.387520              0.0115007834            0.000611039663           
       1.390161              0.0105514089            0.000555871859           
       1.392801              0.0107249017            0.000583906674           
       1.395442              0.0106868682            0.000590831079           
       1.398082              0.0109350965            0.000559676394           
       1.400722              0.0105127236            0.000574814634           
       1.403363              0.0117356003            0.000639285838           
       1.406003              0.0103209552            0.000561068515           
       1.408644              0.0106043775            0.000595771235           
       1.411284             0.00986643276            0.000544159618           
       1.413924              0.0108948815            0.000569697678           
       1.416565              0.0102489492            0.000550381142           
       1.419205              0.0106047934            0.000584017321           
       1.421845              0.0112534964            0.000601261333           
       1.424486              0.0117440716            0.000590413306           
       1.427126              0.0110313736            0.000594423943           
       1.429767              0.0111445887            0.000562143299           
       1.432407              0.0110498392            0.000585789959           
       1.435047              0.0106736915            0.000540709025           
       1.437688              0.0105913961            0.000546673847           
       1.440328              0.0113088958            0.000576530876           
       1.442968              0.0101772243            0.000559178349           
       1.445609               0.010444534            0.000548504212           
       1.448249              0.0114742748            0.000589463884           
       1.450890              0.0110223027            0.000573966877           
       1.453530             0.00996635357            0.000570997221           
       1.456170              0.0114954523            0.000595161622           
       1.458811             0.00989003358            0.000527872657           
       1.461451              0.0107824392            0.000552619955           
       1.464092              0.0110421422            0.000562891666           
       1.466732              0.0113510318            0.000565806187           
       1.469372              0.0111651665             0.00054802198           
       1.472013              0.0101995371            0.000564915908           
       1.474653              0.0110120914            0.000577931973           
       1.477293              0.0108367946            0.000585397132           
       1.479934              0.0108464225             0.00055883924           
       1.482574              0.0109089361            0.000542145264           
       1.485215              0.0110335155            0.000555387183           
       1.487855             0.00997114433            0.000534937448           
       1.490495                 0.0108654            0.000556353645           
       1.493136             0.00990522336            0.000523921498           
       1.495776              0.0107025128            0.000542119412           
       1.498416              0.0116546678            0.000584229418           
       1.501057              0.0104406386            0.000540777675           
       1.503697              0.0112977628            0.000549970096           
       1.506338               0.011173777            0.000556938565           
       1.508978               0.011014433             0.00054751528           
       1.511618              0.0106167788            0.000572478491           
       1.514259              0.0102489264            0.000543041703           
       1.516899             0.00993120343            0.000520482411           
       1.519540              0.0105664711            0.000545528643           
       1.522180              0.0113854853            0.000571250695           
       1.524820                0.01047632             0.00054489383           
       1.527461              0.0117070349             0.00057886002           
       1.530101              0.0106561745            0.000546745837           
       1.532741              0.0107309277            0.000545476119           
       1.535382              0.0114495243             0.00057251485           
       1.538022              0.0105243095            0.000517088821           
       1.540663              0.0100180484            0.000542619322           
       1.543303              0.0108321318            0.000523902172           
       1.545943             0.00974394931            0.000525921961           
       1.548584             0.00993830443            0.000540675459           
       1.551224             0.00990665171            0.000499108843           
       1.553864               0.010822475            0.000551240884           
       1.556505              0.0107643541             0.00053108114           
       1.559145              0.0103121851            0.000526174728           
       1.561786               0.010886634            0.000541047995           
       1.564426              0.0098706233             0.00049915839           
       1.567066              0.0100039899            0.000526543696           
       1.569707             0.00952860034            0.000504649838           
       1.572347              0.0109248419            0.000558245865           
       1.574988             0.00989016828            0.000505568758           
       1.577628              0.0100763669            0.000532122963           
       1.580268             0.00895969099            0.000486163749           
       1.582909              0.0102336525            0.000550732824           
       1.585549             0.00907558271            0.000503579245           
       1.588189             0.00989144775            0.000514253059           
       1.590830              0.0100645525            0.000518082305           
       1.593470             0.00916010248            0.000513826196           
       1.596111              0.0090059113            0.000497413923           
       1.598751             0.00940325344            0.000492495118           
       1.601391             0.00956357099            0.000507633723           
       1.604032             0.00979508983            0.000524481332           
       1.606672               0.010105684            0.000517599589           
       1.609312              0.0101299455            0.000540961634           
       1.611953             0.00987342192            0.000522619073           
       1.614593             0.00845638289            0.000474436039           
       1.617234             0.00938886794            0.000518095266           
       1.619874             0.00891373239            0.000502821493           
       1.622514             0.00856919341            0.000486282694           
       1.625155             0.00980240805            0.000523170532           
       1.627795             0.00882930007            0.000484358025           
       1.630436              0.0097256238            0.000505694711           
       1.633076             0.00895754584            0.000491680647           
       1.635716             0.00907230904            0.000487121323           
       1.638357             0.00859719759            0.000475444583           
       1.640997             0.00934390981            0.000510676776           
       1.643637             0.00927761395            0.000495179987           
       1.646278             0.00838599662            0.000485576731           
       1.648918             0.00792390218            0.000473296391           
       1.651559             0.00987497519            0.000532462959           
       1.654199             0.00823948418            0.000473042588           
       1.656839             0.00822166751            0.000472695813           
       1.659480             0.00860406712            0.000501722425           
       1.662120             0.00827902572            0.000463528221           
       1.664761              0.0100039351            0.000529272879           
       1.667401             0.00839353351            0.000463369276           
       1.670041             0.00857185999            0.000475405702           
       1.672682             0.00899323744            0.000484949124           
       1.675322             0.00893328273            0.000480221884           
       1.677962             0.00906118115            0.000478312102           
       1.680603             0.00836183559             0.00046089729           
       1.683243             0.00865551372            0.000489231707           
       1.685884             0.00867183443            0.000493308938           
       1.688524             0.00815450393            0.000469121241           
       1.691164             0.00865722182            0.000483475153           
       1.693805             0.00860982056            0.000487446346           
       1.696445             0.00801358917             0.00047299358           
       1.699085             0.00950543583            0.000497881441           
       1.701726             0.00851379467            0.000453914998           
       1.704366             0.00836506502            0.000473991819           
       1.707007             0.00817643055            0.000458171044           
       1.709647             0.00889722576            0.000483337071           
       1.712287             0.00792652553            0.000460180361           
       1.714928             0.00872234615            0.000486620956           
       1.717568             0.00919888578            0.000470754515           
       1.720209             0.00890635774            0.000485179253           
       1.722849             0.00886681371             0.00048161215           
       1.725489             0.00901248885            0.000485960011           
       1.728130             0.00857688804            0.000503804212           
       1.730770              0.0091510393            0.000494234275           
       1.733410             0.00824911695             0.00046187076           
       1.736051              0.0087276825            0.000478386178           
       1.738691             0.00877470485            0.000469949557           
       1.741332             0.00932995076            0.000498759975           
       1.743972             0.00887642244             0.00050238005           
       1.746612             0.00883526332             0.00048129317           
       1.749253             0.00853213047            0.000482304952           
       1.751893             0.00873446554            0.000484408314           
       1.754533             0.00868785836            0.000482663011           
       1.757174             0.00910345137            0.000489445773           
       1.759814             0.00893117044             0.00047744381           
       1.762455             0.00835214104             0.00047018549           
       1.765095             0.00810304245            0.000443031436           
       1.767735             0.00870033401            0.000473231797           
       1.770376             0.00913909363            0.000486296262           
       1.773016             0.00844281931             0.00046427394           
       1.775657              0.0086761822            0.000463874601           
       1.778297             0.00832289773            0.000450420029           
       1.780937             0.00877775384            0.000488236453           
       1.783578             0.00887785078             0.00047873497           
       1.786218             0.00848739406            0.000488502061           
       1.788858             0.00908228409            0.000479943421           
       1.791499             0.00843958641            0.000457454557           
       1.794139             0.00804494636             0.00044300749           
       1.796780             0.00886484568            0.000462792516           
       1.799420             0.00893230981            0.000461977608           
       1.802060             0.00990077713            0.000490306346           
       1.804701             0.00964268431            0.000464347038           
       1.807341             0.00957322492             0.00048616721           
       1.809981               0.009323778            0.000481391084           
       1.812622              0.0090406562            0.000465491881           
       1.815262             0.00922004755            0.000480073253           
       1.817903             0.00963187971             0.00048340754           
       1.820543             0.00898328034            0.000474122402           
       1.823183              0.0083597735            0.000457121277           
       1.825824               0.008701026            0.000445539525           
       1.828464             0.00872712616            0.000465190358           
       1.831105             0.00882518315            0.000454862897           
       1.833745             0.00881055313            0.000464192152           
       1.836385             0.00840161842             0.00046622785           
       1.839026             0.00920043764            0.000486347486           
       1.841666             0.00843772989            0.000464101025           
       1.844306             0.00836000989            0.000449353893           
       1.846947             0.00878558032            0.000464687148           
       1.849587             0.00833032889            0.000499655803           
       1.852228             0.00839933731            0.000453680213           
       1.854868             0.00877766905            0.000489920519           
       1.857508              0.0088977154            0.000488421465           
       1.860149             0.00872868908            0.000492549277           
       1.862789             0.00823569606            0.000461802957           
       1.865429             0.00920006073            0.000509493618           
       1.868070              0.0078241187            0.000463589737           
       1.870710             0.00812140255            0.000461425845           
       1.873351             0.00896128981             0.00049069046           
       1.875991             0.00902289764            0.000500409942           
       1.878631             0.00844997672            0.000474987618           
       1.881272             0.00841186907            0.000470739994           
       1.883912             0.00832283559            0.000487303886           
       1.886553             0.00814879208            0.000476791024           
       1.889193             0.00836039374            0.000482116639           
       1.891833             0.00775370146             0.00048218767           
       1.894474             0.00747752506            0.000469398468           
       1.897114             0.00813601901             0.00047380548           
       1.899754             0.00770715058            0.000463078222           
       1.902395             0.00761332378            0.000451252379           
       1.905035             0.00901545757            0.000520104882           
       1.907676             0.00830664568            0.000470535725           
       1.910316             0.00926716547            0.000510192474           
       1.912956              0.0079487305            0.000462113095           
       1.915597             0.00856841954             0.00048246988           
       1.918237              0.0082039116            0.000487560309           
       1.920878             0.00881949205            0.000503452089           
       1.923518             0.00920338554            0.000514510685           
       1.926158             0.00823172177            0.000480278818           
       1.928799              0.0079014319            0.000465098128           
       1.931439             0.00825803145            0.000487948774           
       1.934079             0.00876925348            0.000524183192           
       1.936720             0.00905662966            0.000493564737           
       1.939360             0.00856500423            0.000512073461           
       1.942001             0.00857472347            0.000469607783           
       1.944641             0.00805450871            0.000464104967           
       1.947281             0.00829484139             0.00046663688           
       1.949922             0.00848224535            0.000487409022           
       1.952562             0.00824737928            0.000495678819           
       1.955202             0.00807483333            0.000489868426           
       1.957843             0.00777585614            0.000468247705           
       1.960483             0.00849775533             0.00051177273           
       1.963124             0.00903911135            0.000516993995           
       1.965764             0.00790405794            0.000455902824           
       1.968404             0.00761920131            0.000443383021           
       1.971045             0.00866710704            0.000482137646           
       1.973685             0.00900803965            0.000515577182           
       1.976326             0.00719531973            0.000454457599           
       1.978966             0.00833033766            0.000493280901           
       1.981606             0.00818411867             0.00049912956           
       1.984247             0.00814219808            0.000494576482           
       1.986887             0.00753743351            0.000470154529           
       1.989527             0.00719580685            0.000454429142           
       1.992168             0.00774233067            0.000489086713           
       1.994808             0.00740830844            0.000476369442           
       1.997449             0.00874734593            0.000507003272           
       2.000089             0.00799548254            0.000482802704           
       2.002729             0.00824046457            0.000490437304           
       2.005370             0.00799291594            0.000477817525           
       2.008010             0.00736951319            0.000478829566           
       2.010650             0.00703792931            0.000471425003           
       2.013291             0.00877188217            0.000504959424           
       2.015931             0.00760653639            0.000466898713           
       2.018572             0.00739300578            0.000492332963           
       2.021212             0.00812898308            0.000506982192           
       2.023852             0.00757754182            0.000463273831           
       2.026493             0.00819084978            0.000503176665           
       2.029133             0.00780149368             0.00048118934           
       2.031774             0.00788329995             0.00050763831           
       2.034414             0.00694450936             0.00043840404           
       2.037054             0.00790626277            0.000479634186           
       2.039695              0.0084811386            0.000493013831           
       2.042335             0.00701335257            0.000465910137           
       2.044975             0.00819666704             0.00049757548           
       2.047616             0.00826531055            0.000498413452           
       2.050256              0.0075789932            0.000481788659           
       2.052897             0.00800519138             0.00050427825           
       2.055537             0.00694019691            0.000453790133           
       2.058177             0.00722031696             0.00045326228           
       2.060818             0.00802153292             0.00050047948           
       2.063458             0.00846340826            0.000535721842           
       2.066098             0.00824435098             0.00049878213           
       2.068739             0.00777579255            0.000491930468           
       2.071379             0.00765798605            0.000500921916           
       2.074020             0.00670276232            0.000458455468           
       2.076660              0.0072197846            0.000479655103           
       2.079300             0.00771882448            0.000508107196           
       2.081941             0.00751050942            0.000458909287           
       2.084581             0.00771103728            0.000490807064           
       2.087222             0.00824700962            0.000489510315           
       2.089862             0.00818655706            0.000531193767           
       2.092502             0.00728726035            0.000485812099           
       2.095143              0.0079736066            0.000524767042           
       2.097783             0.00799843322            0.000508853162           
       2.100423             0.00735914789            0.000470323835           
       2.103064             0.00776042379            0.000501152957           
       2.105704             0.00761217095             0.00049388442           
       2.108345             0.00802059129            0.000487053627           
       2.110985             0.00843755618             0.00053355919           
       2.113625             0.00838012108            0.000536380304           
       2.116266             0.00745155369            0.000512966976           
       2.118906             0.00782000737            0.000489733007           
       2.121546             0.00825439635            0.000493544428           
       2.124187             0.00757420997            0.000496265177           
       2.126827             0.00731545756            0.000493157997           
       2.129468             0.00692245599            0.000480953793           
       2.132108             0.00704310504            0.000471991532           
       2.134748             0.00821583545            0.000507796549           
       2.137389              0.0076113757            0.000509897853           
       2.140029             0.00776099721            0.000460956612           
       2.142670               0.007539353            0.000485548805           
       2.145310             0.00835479756            0.000497494786           
       2.147950             0.00898318798            0.000530965356           
       2.150591             0.00705513486            0.000465792258           
       2.153231               0.008459568            0.000525018322           
       2.155871             0.00710716222            0.000464895674           
       2.158512             0.00646379465             0.00046260903           
       2.161152             0.00773836012            0.000490306032           
       2.163793             0.00739011419            0.000476989456           
       2.166433             0.00792971425            0.000507385283           
       2.169073             0.00727283441            0.000475097583           
       2.171714             0.00746327045            0.000477679724           
       2.174354             0.00808305378            0.000519442944           
       2.176995             0.00739131526            0.000494629163           
       2.179635             0.00703368256            0.000509880243           
       2.182275             0.00684131025            0.000474778926           
       2.184916             0.00763233513            0.000484361077           
       2.187556             0.00686605233            0.000454798733           
       2.190196             0.00832596793            0.000523351834           
       2.192837             0.00705812693            0.000479238551           
       2.195477             0.00727222071            0.000463774788           
       2.198118             0.00825363077            0.000506738741           
       2.200758              0.0078959656            0.000508494056           
       2.203398             0.00676107955            0.000473544466           
       2.206039             0.00736167338             0.00046765199           
       2.208679             0.00722490254            0.000474069409           
       2.211319             0.00757200406            0.000488121909           
       2.213960             0.00784099556            0.000503371555           
       2.216600             0.00781879656            0.000519988999           
       2.219241             0.00729869447            0.000480155505           
       2.221881             0.00748533999            0.000487255897           
       2.224521             0.00823451798            0.000517320711           
       2.227162             0.00737680124            0.000479833973           
       2.229802             0.00670573875            0.000471809802           
       2.232443             0.00675040923            0.000465912123           
       2.235083             0.00829817841            0.000531808828           
       2.237723             0.00659088223            0.000454827403           
       2.240364             0.00748647037            0.000496687127           
       2.243004             0.00701305288            0.000476888925           
       2.245644             0.00734267707            0.000492851773           
       2.248285             0.00743542944            0.000486019401           
       2.250925             0.00707122296            0.000476845873           
       2.253566             0.00778798951            0.000534998108           
       2.256206             0.00833415163             0.00054237358           
       2.258846             0.00674048592            0.000464002426           
       2.261487             0.00789547227            0.000527089704           
       2.264127             0.00746092587            0.000494848118           
       2.266767              0.0081358564             0.00053051362           
       2.269408             0.00810589073            0.000531704196           
       2.272048             0.00793602478            0.000522963161           
       2.274689               0.007393185            0.000511411406           
       2.277329             0.00728149334            0.000477875651           
       2.279969             0.00640408138            0.000477040659           
       2.282610             0.00680322791            0.000478007177           
       2.285250             0.00843247948            0.000509363891           
       2.287891             0.00722306619            0.000505437262           
       2.290531             0.00744528881            0.000520051588           
       2.293171              0.0070062715            0.000491414999           
       2.295812             0.00766214658            0.000511836107           
       2.298452             0.00751215303            0.000529979705           
       2.301092             0.00759530547            0.000495134058           
       2.303733             0.00674341389            0.000485365919           
       2.306373             0.00596262378            0.000463590221           
       2.309014             0.00765837029            0.000515143128           
       2.311654             0.00781670722            0.000543105071           
       2.314294             0.00693472775            0.000471291333           
       2.316935             0.00669285744            0.000464912358           
       2.319575             0.00752006278            0.000516346686           
       2.322215             0.00746723795            0.000536227065           
       2.324856             0.00737475437            0.000489942667           
       2.327496             0.00794709682            0.000540800734           
       2.330137              0.0068396747            0.000480096712           
       2.332777             0.00806413557            0.000537518592           
       2.335417              0.0070517951            0.000487644237           
       2.338058             0.00730531355            0.000511159002           
       2.340698             0.00820059973             0.00053732005           
       2.343339             0.00709698813            0.000510858584           
       2.345979             0.00664131959            0.000467539702           
       2.348619             0.00774486666            0.000523347355           
       2.351260             0.00648995202            0.000476284117           
       2.353900              0.0072379356            0.000501388969           
       2.356540             0.00696529871            0.000491157026           
       2.359181              0.0061820829            0.000456232508           
       2.361821             0.00706977663             0.00047128846           
       2.364462               0.007052465            0.000492304903           
       2.367102             0.00674779597            0.000494873387           
       2.369742             0.00563035676            0.000475807943           
       2.372383             0.00702841479            0.000481370747           
       2.375023             0.00777023566            0.000532059677           
       2.377663             0.00676027215            0.000474514986           
       2.380304             0.00732638014            0.000502220226           
       2.382944             0.00810301781            0.000503064214           
       2.385585             0.00678788627            0.000491060706           
       2.388225             0.00658776239            0.000481494498           
       2.390865             0.00689240099            0.000487442496           
       2.393506             0.00729476246            0.000492007755           
       2.396146             0.00699351848            0.000520880855           
       2.398787             0.00675476262            0.000471766924           
       2.401427               0.006904807            0.000460393593           
       2.404067              0.0062240911            0.000446860748           
       2.406708              0.0073943076            0.000481219944           
       2.409348             0.00661158598            0.000482656839           
       2.411988             0.00645254261             0.00046717448           
       2.414629             0.00698156572            0.000501082617           
       2.417269              0.0067786337            0.000499511096           
       2.419910             0.00729473214            0.000519380122           
       2.422550             0.00771831462            0.000511134348           
       2.425190             0.00659497484            0.000498039783           
       2.427831              0.0078404627            0.000539983018           
       2.430471             0.00668676817            0.000475084036           
       2.433112                0.00704187            0.000474743432           
       2.435752             0.00745717216            0.000517030132           
       2.438392             0.00691026601            0.000480391618           
       2.441033             0.00693745409            0.000510119122           
       2.443673             0.00756318874            0.000533037495           
       2.446313             0.00763430767            0.000536009967           
       2.448954             0.00790635048            0.000519369904           
       2.451594             0.00624636805            0.000496369846           
       2.454235             0.00799374931            0.000526851113           
       2.456875             0.00713986041            0.000521000299           
       2.459515             0.00816117118            0.000571437881           
       2.462156             0.00752594137            0.000518094832           
       2.464796             0.00744324796            0.000508593158           
       2.467436             0.00716219565            0.000515919836           
       2.470077             0.00827053077            0.000525473725           
       2.472717             0.00716012861            0.000491045725           
       2.475358             0.00845505349            0.000539168701           
       2.477998             0.00759778574            0.000502488366           
       2.480638             0.00731659093            0.000501864096           
       2.483279             0.00691998097            0.000510113393           
       2.485919              0.0068414275            0.000488812613           
       2.488560             0.00677204201            0.000484968663           
       2.491200             0.00759682893            0.000528927085           
       2.493840             0.00659362085             0.00052141202           
       2.496481             0.00689534638            0.000524486413           
       2.499121             0.00723747637            0.000522649697           
       2.501761             0.00657734076            0.000504845738           
       2.504402             0.00801544476            0.000549168364           
       2.507042             0.00733809333            0.000521559808           
       2.509683             0.00643584272            0.000480979346           
       2.512323             0.00741138591            0.000542082609           
       2.514963             0.00710461279            0.000524187995           
       2.517604             0.00750429007            0.000559015882           
       2.520244             0.00617808953            0.000475519753           
       2.522884             0.00662264116            0.000499371677           
       2.525525              0.0125528912            0.000695315227           
       2.528165             0.00913287955            0.000583835848           
       2.530806             0.00807633902            0.000558597263           
       2.533446              0.0124623931            0.000679081924           
       2.536086             0.00686704484            0.000499576256           
       2.538727             0.00685996036            0.000479020195           
       2.541367             0.00667532264            0.000477184386           
       2.544008             0.00778735273            0.000532283127           
       2.546648             0.00791196232            0.000545727743           
       2.549288             0.00771838264            0.000549993105           
       2.551929             0.00720728385            0.000522999669           
       2.554569             0.00672223484            0.000486616053           
       2.557209             0.00681413796            0.000494430568           
       2.559850             0.00790384189            0.000534209185           
       2.562490             0.00798268328            0.000554880831           
       2.565131             0.00671971732            0.000527854981           
       2.567771             0.00712043548            0.000523886333           
       2.570411             0.00757332819            0.000534444443           
       2.573052             0.00785318259            0.000551083243           
       2.575692             0.00668260934            0.000505277001           
       2.578332             0.00708516764            0.000522424789           
       2.580973             0.00741981265             0.00052953324           
       2.583613             0.00772180596            0.000527339297           
       2.586254             0.00636413548            0.000478075421           
       2.588894             0.00711543593            0.000524945242           
       2.591534             0.00684718871            0.000533075199           
       2.594175             0.00718362854            0.000535711015           
       2.596815             0.00828893719            0.000578843625           
       2.599456             0.00627766724            0.000477699294           
       2.602096             0.00753022548            0.000527171656           
       2.604736             0.00711432763            0.000524557216           
       2.607377             0.00659851909            0.000491870283           
       2.610017             0.00665075125             0.00048517165           
       2.612657               0.007370959            0.000543276759           
       2.615298             0.00682460583            0.000510373004           
       2.617938             0.00685167899            0.000547050538           
       2.620579             0.00598959184            0.000491014382           
       2.623219             0.00670545442            0.000518788318           
       2.625859             0.00591209873            0.000473629225           
       2.628500             0.00691979733            0.000509047538           
       2.631140             0.00745184501            0.000536394441           
       2.633780              0.0075918623            0.000540939653           
       2.636421              0.0069177147            0.000529062408           
       2.639061             0.00752168975            0.000519338585           
       2.641702             0.00795514843            0.000546457758           
       2.644342             0.00737552152            0.000528415326           
       2.646982             0.00760067191            0.000528400729           
       2.649623               0.007984448            0.000567550494           
       2.652263              0.0072669566            0.000536016549           
       2.654904             0.00673402097             0.00051650656           
       2.657544             0.00731005665            0.000506876387           
       2.660184              0.0071167549            0.000529282919           
       2.662825             0.00655074629             0.00051958036           
       2.665465             0.00766954655            0.000543741676           
       2.668105             0.00611813357            0.000511886483           
       2.670746             0.00795888064            0.000539339103           
       2.673386             0.00689342755            0.000517291451           
       2.676027             0.00817408639            0.000554256314           
       2.678667             0.00939780642            0.000579886304           
       2.681307              0.0115629239            0.000632005908           
       2.683948              0.0143794847            0.000724137775           
       2.686588                0.01165824            0.000641214725           
       2.689229             0.00947206687            0.000564773678           
       2.691869              0.0101485599            0.000617857625           
       2.694509             0.00933039151            0.000592754292           
       2.697150             0.00824292376            0.000548102316           
       2.699790             0.00692356377            0.000526616874           
       2.702430             0.00867597763            0.000563498045           
       2.705071             0.00804233616            0.000560603082           
       2.707711             0.00799829074            0.000542615302           
       2.710352              0.0067440341            0.000526470777           
       2.712992             0.00711935741            0.000550923844           
       2.715632              0.0067493049            0.000497686446           
       2.718273             0.00634968446            0.000500282456           
       2.720913             0.00677356855            0.000515241097           
       2.723553             0.00715184765            0.000532985053           
       2.726194             0.00663758893            0.000536740462           
       2.728834             0.00756183176             0.00057316066           
       2.731475             0.00653745615             0.00049184437           
       2.734115             0.00746149782            0.000541763706           
       2.736755             0.00820585152            0.000572820679           
       2.739396             0.00651106615            0.000507293574           
       2.742036             0.00627123801            0.000521045357           
       2.744677             0.00618115351            0.000501913402           
       2.747317             0.00630808216            0.000503424985           
       2.749957             0.00666958976            0.000521282104           
       2.752598              0.0065713722            0.000523045054           
       2.755238             0.00827345981            0.000597481852           
       2.757878             0.00775227132            0.000573299788           
       2.760519             0.00809235414            0.000579529072           
       2.763159             0.00800572606            0.000570658524           
       2.765800             0.00742553145            0.000523751777           
       2.768440             0.00809350407            0.000550830151           
       2.771080             0.00925321199              0.0005938896           
       2.773721             0.00749828347            0.000548405098           
       2.776361             0.00783604354            0.000568354817           
       2.779001             0.00810558445            0.000598626432           
       2.781642             0.00662011825            0.000537012267           
       2.784282             0.00717705466            0.000568339567           
       2.786923             0.00682174079            0.000558971295           
       2.789563             0.00645098774            0.000523521185           
       2.792203             0.00661254746            0.000506335953           
       2.794844             0.00701081333            0.000571403174           
       2.797484             0.00725015014            0.000548392724           
       2.800125             0.00701485673            0.000567201027           
       2.802765             0.00734581312            0.000570441611           
       2.805405             0.00632551514            0.000531137109           
       2.808046             0.00609047925            0.000530338052           
       2.810686             0.00635702736            0.000497868498           
       2.813326             0.00647591691            0.000521961432           
       2.815967             0.00635933922            0.000531948674           
       2.818607             0.00704393026            0.000534249855           
       2.821248             0.00718311135             0.00052830159           
       2.823888             0.00690327678            0.000537602425           
       2.826528             0.00725934856            0.000533899936           
       2.829169             0.00714371202            0.000554758297           
       2.831809             0.00669169145            0.000544223544           
       2.834449             0.00675721061            0.000550337462           
       2.837090             0.00710904604            0.000545201234           
       2.839730             0.00649531792            0.000518591942           
       2.842371             0.00623209744            0.000508708527           
       2.845011             0.00708545592            0.000546743757           
       2.847651             0.00736199632            0.000557995611           
       2.850292             0.00698489655            0.000548850949           
       2.852932             0.00688158726            0.000556649483           
       2.855573             0.00685960961            0.000539102763           
       2.858213             0.00649828077            0.000551011359           
       2.860853             0.00613516534            0.000498040511           
       2.863494             0.00638790137            0.000526165317           
       2.866134             0.00645018495            0.000549543282           
       2.868774             0.00732226599            0.000575441948           
       2.871415             0.00676739996            0.000561826621           
       2.874055             0.00741415957            0.000562113164           
       2.876696             0.00616006245            0.000526230895           
       2.879336             0.00761435438            0.000563885252           
       2.881976             0.00790616265            0.000592648611           
       2.884617             0.00726957498            0.000559942371           
       2.887257             0.00806264429            0.000592738919           
       2.889897             0.00596116076            0.000499181684           
       2.892538             0.00752485842            0.000614407091           
       2.895178             0.00729415762            0.000546500736           
       2.897819             0.00697289563            0.000545067917           
       2.900459             0.00684651257            0.000529598915           
       2.903099             0.00762402078            0.000553141207           
       2.905740             0.00671792525            0.000532665818           
       2.908380             0.00686952629            0.000544762756           
       2.911021             0.00749348249            0.000578215865           
       2.913661             0.00686819542            0.000553400243           
       2.916301             0.00674629271            0.000548990181           
       2.918942             0.00702945295            0.000536029746           
       2.921582             0.00625942761            0.000529232762           
       2.924222             0.00701303107            0.000542712547           
       2.926863             0.00698166432            0.000564032157           
       2.929503             0.00750412401            0.000591683444           
       2.932144             0.00760573002            0.000571812223           
       2.934784             0.00669932667            0.000527859503           
       2.937424             0.00598314709            0.000503968846           
       2.940065             0.00739127513            0.000534323034           
       2.942705             0.00624464028            0.000490515486           
       2.945346             0.00681989097            0.000544009757           
       2.947986               0.006315851            0.000533810009           
       2.950626               0.006775474            0.000549779413           
       2.953267             0.00612437953            0.000514251226           
       2.955907             0.00664343877            0.000555611632           
       2.958547             0.00637298547            0.000513738274           
       2.961188             0.00658112868            0.000544654633           
       2.963828             0.00654742577            0.000531406961           
       2.966469             0.00622970464            0.000508502567           
       2.969109             0.00709438483            0.000550686367           
       2.971749             0.00696263912            0.000542145843           
       2.974390             0.00714435298             0.00053966479           
       2.977030             0.00844438519            0.000599826287           
       2.979670             0.00851092989            0.000585740928           
       2.982311             0.00847916941            0.000605957191           
       2.984951             0.00702176042            0.000524455909           
       2.987592             0.00644339405            0.000512455216           
       2.990232             0.00744556419            0.000572896566           
       2.992872             0.00690094601            0.000519525148           
       2.995513             0.00912805546             0.00058455636           
       2.998153              0.0115259093            0.000667899218           
       3.000794              0.0118456211            0.000655840063           
       3.003434               0.010195462            0.000609365294           
       3.006074              0.0359007867             0.00112744703           
       3.008715               0.108549515             0.00189245916           
       3.011355               0.215277601             0.00257000836           
       3.013995               0.122518162             0.00194408546           
       3.016636              0.0718050339              0.0014574053           
       3.019276                0.13533647             0.00196677577           
       3.021917               0.479189027             0.00355854162           
       3.024557                  1.452412             0.00609106887           
       3.027197                1.17748488             0.00534696614           
       3.029838               0.551649029             0.00371174551           
       3.032478               0.265481542             0.00257753925           
       3.035118              0.0713602391             0.00135426625           
       3.037759              0.0824602588             0.00145391011           
       3.040399               0.116146016             0.00177990624           
       3.043040               0.463026835             0.00359740216           
       3.045680               0.406594725             0.00317169149           
       3.048320               0.102382967             0.00162618926           
       3.050961               0.111087295             0.00172375351           
       3.053601              0.0935589168             0.00152358441           
       3.056242              0.0710123254             0.00141127241           
       3.058882              0.0658315663             0.00145760752           
       3.061522              0.0505078127             0.00125263507           
       3.064163              0.0630470427             0.00138189203           
       3.066803               0.129773687             0.00208725076           
       3.069443               0.115460355              0.0020598509           
       3.072084              0.0373960069             0.00114148941           
       3.074724              0.0474030467             0.00143524743           
       3.077365              0.0684957036             0.00178594837           
       3.080005              0.0128449271            0.000777780471           
       3.082645              0.0138908901            0.000849692856           
       3.085286              0.0146109512              0.0008783127           
       3.087926              0.0109125876            0.000753205785           
       3.090566              0.0102672544            0.000715842489           
       3.093207              0.0116286751            0.000792758128           
       3.095847              0.0082288268            0.000639189624           
       3.098488             0.00755755878            0.000679228717           
       3.101128              0.0101386338             0.00079176998           
       3.103768             0.00963802451             0.00075745157           
       3.106409             0.00796245085            0.000732715952           
       3.109049             0.00782114649            0.000696884104           
       3.111690             0.00784875671             0.00068612868           
       3.114330             0.00859639734            0.000733339967           
       3.116970             0.00916406621            0.000762979072           
       3.119611             0.00988656649             0.00084354842           
       3.122251                0.01710169             0.00116051941           
       3.124891              0.0369454388             0.00172163036           
       3.127532              0.0214942917             0.00128466285           
       3.130172              0.0153418484             0.00110409561           
       3.132813              0.0105195245            0.000900049517           
       3.135453             0.00798674721            0.000777787815           
       3.138093             0.00763599695            0.000824047292           
       3.140734             0.00619991935            0.000685038375           
       3.143374              0.0061751891            0.000723011734           
       3.146014              0.0068638463            0.000820609273           
       3.148655             0.00863078518            0.000855402383           
       3.151295             0.00577590125            0.000745714081           
       3.153936             0.00493230386            0.000665657676           
       3.156576             0.00813716785            0.000843363567           
       3.159216             0.00625946968            0.000743385024           
       3.161857             0.00699185661             0.00078247452           
       3.164497             0.00724307086            0.000836794752           
       3.167138             0.00814170988            0.000916681167           
       3.169778             0.00736336758            0.000857387074           
       3.172418             0.00634601862            0.000787860385           
       3.175059             0.00598195076            0.000678140197           
       3.177699             0.00558225733             0.00069370392           
       3.180339             0.00622749265            0.000785030589           
       3.182980             0.00559911543            0.000769604389           
       3.185620             0.00658470081            0.000849964099           
       3.188261             0.00578843785             0.00081113857           
       3.190901             0.00682998748            0.000810354633           
       3.193541              0.0063530217            0.000821217856           
       3.196182             0.00692854805            0.000893751605           
       3.198822             0.00529580179            0.000781640619           
       3.201463             0.00534801952             0.00077195194           
       3.204103             0.00572582036            0.000793893525           
       3.206743             0.00704117404            0.000880288798           
       3.209384              0.0066625595            0.000925153161           
       3.212024             0.00557414397            0.000788940431           
       3.214664             0.00402665143            0.000762503819           
       3.217305             0.00611224632            0.000893005444           
       3.219945             0.00523516526            0.000850634864           
       3.222586             0.00550844569            0.000831093577           
       3.225226             0.00663442719             0.00101182041           
       3.227866             0.00669753164            0.000929181445           
       3.230507             0.00679116571            0.000969907613           
       3.233147             0.00562220842            0.000889619835           
       3.235787             0.00645851736            0.000975780707           
       3.238428             0.00512147536            0.000937682329           
       3.241068             0.00596938238            0.000946580553           
       3.243709             0.00655864019             0.00102510157           
       3.246349             0.00559013625            0.000862724806           
       3.248989             0.00536870229             0.00099830616           
       3.251630              0.0049952186            0.000927300139           
       3.254270             0.00630667947            0.000931213423           
       3.256911             0.00525381531             0.00092737455           
       3.259551             0.00605946916             0.00107222289           
       3.262191             0.00572351592             0.00106442819           
       3.264832             0.00452475889            0.000988864225           
       3.267472             0.00511305446            0.000986124551           
       3.270112             0.00322498648            0.000865501593           
       3.272753             0.00642386767             0.00111809061           
       3.275393             0.00527456048             0.00103376142           
       3.278034             0.00608214454             0.00111070823           
       3.280674              0.0069052438             0.00128424074           
       3.283314             0.00784468601             0.00122420552           
       3.285955             0.00466241218            0.000973776225           
       3.288595             0.00762492887             0.00138543569           
       3.291235              0.0045125246             0.00109563971           
       3.293876             0.00433863602              0.0010897602           
       3.296516             0.00705764595             0.00133433736           
       3.299157             0.00612578341             0.00122750985           
       3.301797             0.00668642425             0.00146287355           
       3.304437              0.0050385828              0.0011002032           
       3.307078             0.00665043041             0.00139236266           
       3.309718             0.00559870712             0.00131864128           
       3.312359             0.00433450934             0.00116052879           
       3.314999              0.0029858941            0.000948363803           
       3.317639              0.0055160219             0.00123276398           
       3.320280             0.00715510904             0.00149276912           
       3.322920             0.00740347321             0.00154401329           
       3.325560             0.00803165396             0.00160927671           
       3.328201             0.00809053245             0.00145465038           
       3.330841             0.00856560048             0.00182163712           
       3.333482             0.00414932226             0.00119841943           
       3.336122             0.00517869091              0.0013394603           
       3.338762              0.0050894043             0.00153388762           
       3.341403             0.00548893825              0.0015221348           
       3.344043             0.00465620952             0.00134596492           
       3.346683              0.0060583821              0.0015674254           
       3.349324             0.00563979594             0.00170033176           
       3.351964             0.00627575252             0.00189670563           
       3.354605               0.011283744             0.00290862581           
       3.357245             0.00483217475             0.00171707915           
       3.359885             0.00627704865             0.00156632658           
       3.362526             0.00484750822             0.00172132185           
       3.365166             0.00708892107             0.00196333182           
       3.367807             0.00532017065             0.00217674432           
       3.370447             0.00490609481             0.00173394865           
       3.373087             0.00272501689             0.00138191114           
       3.375728             0.00889370763             0.00281757946           
       3.378368             0.00601212726             0.00343810178           
       3.381008             0.00762960405             0.00288757839           
       3.383649             0.00846124576             0.00243940774           
       3.386289             0.00688600857             0.00260454319           
       3.388930             0.00239932525             0.00243184371           
       3.391570             0.00493476059              0.0024670993           
       3.394210             0.00595288965              0.0034291578           
       3.396851             0.00237393791             0.00242232287           
       3.399491             0.00717408851              0.0042121401           
       3.402131              0.0048158793             0.00488262902           
       3.404772              0.0193546644              0.0138461341           
       3.407412                       nan                       nan           
       3.410053           -2.65244382e-05                         0           
       3.412693                       nan                       nan           
       3.415333             0.00900441647             0.00946481745           
