################################################################################
# EDF_DataBlockID                     0.Image.Psd
# EDF_BinarySize                      4366944
# EDF_HeaderSize                      2560
# ByteOrder                           LowByteFirst
# DataType                            FloatValue
# Dim_1                               1028
# Dim_2                               1062
# Image                               0
# HeaderID                            EH:000000:000000:000000
# Size                                4366944
# Center_1                            607.5200
# Center_2                            651.5500
# Comment                             Xenocs_Cell_Window - 20251028_20perc_iodine_1.23mg
# DDummy                              0.6
# Date                                2025-10-31T23:13:00
# Delta                               0
# Dummy                               -1.5
# ExposureTime                        360
# Gamma                               0
# Intensity1                          8.60717e-10
# PSize_1                             7.5e-05
# PSize_2                             7.5e-05
# Pressure                            0.0327978
# SampleDistance                      0.450002
# SampleEnvKind                       large
# SampleEnvPN                         ElectroChemical cell
# SampleEnvSN                         1141
# Thickness                           0
# Wavelength                          1.541891e-10
# Wavelength                          1.54189e-10
# aux                                 0
# aux_dial                            0.002375
# beamx                               588.434
# beamx_dial                          588.434
# beamz                               657.808
# beamz_dial                          657.808
# det0x                               0
# det0x_dial                          6.36945
# det0xvd                             0
# det0xvd_dial                        0
# det0y                               450.002
# det0y_dial                          481.635
# det0z                               0
# det0z_dial                          1.23302
# det0zvd                             0
# det0zvd_dial                        0
# mag                                 1.818
# mag_dial                            1.818
# om                                  0.2499
# om_dial                             -0.610199
# phi                                 -0.0120535
# phi_dial                            0
# ry                                  0.599993
# ry_dial                             0.599993
# s1bot                               0.8
# s1bot_dial                          -1.66094
# s1hl                                0.8
# s1hl_dial                           -0.608437
# s1hr                                0.8
# s1hr_dial                           0.970938
# s1top                               0.8
# s1top_dial                          -0.461562
# s2bot                               0.45
# s2bot_dial                          1.36109
# s2hl                                0.45
# s2hl_dial                           -0.83375
# s2hr                                0.45
# s2hr_dial                           -0.118594
# s2top                               0.45
# s2top_dial                          1.44734
# w2theta                             32
# w2theta_dial                        32
# waxsch                              19.2605
# waxsch_dial                         -32.7355
# waxsh                               137.085
# waxsh_dial                          -43.5338
# waxsth                              26.0607
# waxsth_dial                         -19.4086
# waxsz                               67.0407
# waxsz_dial                          -23.7954
# wind                                65.9854
# wind_dial                           66.0041
# wpsi                                124
# wpsi_dial                           124
# wstod                               115
# wstod_dial                          115
# x                                   0
# x_dial                              1.00969
# z                                   0
# z_dial                              13.3172
# CountCutoff                         15302352
# DetectorModel                       Dectris EIGER2 Si 1M, S/N E-02-0362
# ThresholdSetting                    4023.88989258
# Saturation                          0
# FlatField                           Corrected
# BackgroundReductionExtra            0.02
# BackgroundCorrectionConstant        0.0026712
# Detector                            0
# Monitor                             0
# Pil_Roi0                            0
# SumForIntensity1                    3.09858e+08
# TransmittedFlux                     860717
# det                                 0
# mon                                 0
# pilai0                              3.09858e+08
# pilai1                              785905
# pilct0                              5.35785e+08
# pilct1                              785905
# pilroi0                             0
# pilroi1                             0
# sec                                 1
# title                               20251028_20perc_iodine_1.23mg_0_00735.edf
# usaxs0                              0
# Operation                           Azimuthal average I(q)
# Error_model                         ErrorModel.poisson
# Geometrical_correction              True
# Transmission_correction             True
# Thickness_correction                False
# Binning mode                        Uniform
# Binning factor                      1.0
# Psi                                 0.0
# Omega                               0.2499
# MaskInvalidPixels                   True
# DetectorEdge                        3
# MaskFiles                           ['20251028_20perc_iodine_1.23mg_0_00012_mask.edf']
################################################################################
    q(A⁻¹)                Intensity(a.u.)            Sigma_I(a.u.)            
       0.000340                372822.409                120.160609           
       0.001019                359912.228                72.2977976           
       0.001698                350207.166                50.4282988           
       0.002377                331106.697                43.8571929           
       0.003056                307572.262                35.7245268           
       0.003735                253359.879                28.5949722           
       0.004415                204644.895                25.6993014           
       0.005094                152467.746                19.2105857           
       0.005773                100416.464                14.4338049           
       0.006452                58354.3343                10.5425142           
       0.007131                32297.3328                7.59800161           
       0.007810                16300.9014                5.35681643           
       0.008490                8250.62868                3.37813512           
       0.009169                4032.12683                2.33394838           
       0.009848                1253.26524                1.25805962           
       0.010527                487.846161               0.784912838           
       0.011206                122.648635               0.375616668           
       0.011885                 56.412025               0.236683187           
       0.012564                25.2804985               0.162669507           
       0.013244                16.8782558               0.124261642           
       0.013923                12.3597218               0.108050633           
       0.014602                9.43671168              0.0875625169           
       0.015281                7.48744519               0.079396909           
       0.015960                5.98816078              0.0704951797           
       0.016639                4.93557243              0.0604360513           
       0.017319                4.08746166              0.0541435764           
       0.017998                3.45596141              0.0476294865           
       0.018677                2.84133323              0.0447298757           
       0.019356                 2.5203955              0.0416265155           
       0.020035                2.08173449              0.0354929124           
       0.020714                1.81155618              0.0334600902           
       0.021394                1.60352675              0.0297857926           
       0.022073                1.37465792              0.0286931174           
       0.022752                1.24692571              0.0261417244           
       0.023431                1.06263375              0.0234251856           
       0.024110                1.00889471              0.0237969265           
       0.024789               0.917991582              0.0210813051           
       0.025469               0.795810992              0.0202271726           
       0.026148               0.749410189              0.0184427189           
       0.026827               0.690639923              0.0179881231           
       0.027506               0.619240571              0.0172785677           
       0.028185               0.572567976              0.0158444759           
       0.028864               0.510223824              0.0148730838           
       0.029544               0.453645331              0.0135995533           
       0.030223               0.413159357              0.0131646273           
       0.030902               0.420775352              0.0134069857           
       0.031581                0.37425534              0.0120196558           
       0.032260               0.359197371              0.0119760116           
       0.032939               0.307572343              0.0106854907           
       0.033619               0.297601387              0.0106653366           
       0.034298               0.259975083              0.0097008131           
       0.034977               0.255648996              0.0094307132           
       0.035656               0.229929892             0.00918046657           
       0.036335               0.225598368             0.00881963542           
       0.037014               0.202117203             0.00837293679           
       0.037693               0.190640668             0.00782263512           
       0.038373               0.176593102             0.00760279532           
       0.039052               0.170109554             0.00749367153           
       0.039731               0.174283093             0.00740827529           
       0.040410               0.158433789             0.00701603655           
       0.041089               0.147777739              0.0066698442           
       0.041768               0.133214332             0.00636575219           
       0.042448               0.137540427             0.00641809841           
       0.043127               0.124501677             0.00596209079           
       0.043806               0.125463275             0.00602969685           
       0.044485               0.113666249             0.00562131803           
       0.045164               0.111828996             0.00568559469           
       0.045843               0.100815581             0.00517768994           
       0.046523               0.113004273             0.00550068455           
       0.047202               0.110509601             0.00547764068           
       0.047881              0.0929312877             0.00492626357           
       0.048560               0.101882935             0.00520508648           
       0.049239               0.086291335             0.00459953241           
       0.049918              0.0876846362             0.00472715585           
       0.050598              0.0825702276             0.00451840072           
       0.051277              0.0825949114             0.00450473616           
       0.051956              0.0841176504             0.00451752399           
       0.052635              0.0887659849             0.00454218012           
       0.053314              0.0795131869             0.00442462065           
       0.053993              0.0719948688             0.00409476865           
       0.054673              0.0705467812             0.00396308773           
       0.055352              0.0721219443             0.00406594549           
       0.056031              0.0678114367             0.00385973017           
       0.056710              0.0744229773             0.00414260044           
       0.057389              0.0717850884             0.00392332047           
       0.058068              0.0700177422             0.00391466545           
       0.058748              0.0605966764             0.00368721902           
       0.059427              0.0541599966             0.00342687209           
       0.060106              0.0569700856             0.00354791434           
       0.060785              0.0624899347             0.00360448581           
       0.061464              0.0605544151             0.00363375071           
       0.062143              0.0580360703             0.00352125119           
       0.062822              0.0576546477             0.00346847592           
       0.063502              0.0578593488             0.00346841999           
       0.064181              0.0581751113             0.00344114588           
       0.064860              0.0530443572             0.00333594553           
       0.065539              0.0538884149             0.00332950313           
       0.066218              0.0458998415             0.00300702675           
       0.066897              0.0475083896             0.00308287974           
       0.067577              0.0458735692             0.00305847644           
       0.068256              0.0519928538             0.00333606898           
       0.068935              0.0484749101             0.00316914426           
       0.069614              0.0467789684             0.00314420434           
       0.070293              0.0429312001             0.00303989287           
       0.070972              0.0414141903             0.00296384039           
       0.071652              0.0464581974             0.00314490307           
       0.072331              0.0368203927             0.00274985846           
       0.073010              0.0451341968              0.0031140854           
       0.073689              0.0398254135             0.00290914064           
       0.074368              0.0377261354              0.0028262799           
       0.075047              0.0396581173             0.00286659803           
       0.075727              0.0416053209              0.0029179946           
       0.076406              0.0379818868             0.00284366337           
       0.077085                0.03856417              0.0028118279           
       0.077764              0.0409562166              0.0028875679           
       0.078443              0.0359228221             0.00272105992           
       0.079122              0.0356580628             0.00268497019           
       0.079802              0.0314341349             0.00254767001           
       0.080481              0.0335580922             0.00254354098           
       0.081160              0.0265488601             0.00230879083           
       0.081839              0.0328841456             0.00252840007           
       0.082518              0.0397370433             0.00278173589           
       0.083197              0.0334089279             0.00251100979           
       0.083876              0.0352401656             0.00253605696           
       0.084556              0.0339955977             0.00256014572           
       0.085235              0.0361777732             0.00259000975           
       0.085914              0.0312164073             0.00242923999           
       0.086593               0.029883198               0.002361502           
       0.087272              0.0301053324             0.00233675848           
       0.087951              0.0297997209             0.00237738391           
       0.088631              0.0324062524             0.00239473546           
       0.089310              0.0345305394             0.00252440844           
       0.089989              0.0292640147             0.00229677108           
       0.090668              0.0332854494             0.00247654108           
       0.091347              0.0324868301             0.00246034923           
       0.092026              0.0353951949             0.00245470695           
       0.092706              0.0354902917             0.00254722073           
       0.093385              0.0288687207             0.00226206285           
       0.094064              0.0272535231             0.00222345121           
       0.094743               0.028899347             0.00225471204           
       0.095422              0.0300520222             0.00227359894           
       0.096101              0.0313920811             0.00237159553           
       0.096781              0.0301291889             0.00229013432           
       0.097460              0.0294384663             0.00220197957           
       0.098139              0.0278384646             0.00212482769           
       0.098818              0.0284543344             0.00212174809           
       0.099497               0.028678676             0.00213446929           
       0.100176                0.02569936             0.00196752867           
       0.100856              0.0287992978             0.00208148114           
       0.101535              0.0259771165             0.00197305229           
       0.102214              0.0291383023              0.0020896711           
       0.102893              0.0289259671             0.00205832093           
       0.103572              0.0242467483             0.00185665947           
       0.104251              0.0269484517             0.00196459865           
       0.104931              0.0275586725             0.00196863016           
       0.105610              0.0247008265              0.0018717134           
       0.106289               0.022377434             0.00175186476           
       0.106968              0.0271262178             0.00193453698           
       0.107647              0.0251642059             0.00186438074           
       0.108326              0.0260059155             0.00186994968           
       0.109005              0.0220979162             0.00171288582           
       0.109685              0.0246334315              0.0017882005           
       0.110364              0.0235343927             0.00176770643           
       0.111043              0.0230717885             0.00174330711           
       0.111722              0.0210978956             0.00164669004           
       0.112401              0.0209559669             0.00164570568           
       0.113080              0.0220771747             0.00166980029           
       0.113760              0.0246656998             0.00179445877           
       0.114439              0.0217402163             0.00166064156           
       0.115118              0.0250101936             0.00176772785           
       0.115797              0.0196488335             0.00158135759           
       0.116476              0.0201297421             0.00157663639           
       0.117155                0.02135799             0.00163712308           
       0.117835              0.0247239034             0.00172639044           
       0.118514              0.0228764442             0.00168169321           
       0.119193              0.0228703389             0.00168148092           
       0.119872              0.0195310271             0.00153444914           
       0.120551              0.0190248034             0.00150434516           
       0.121230              0.0221437281             0.00160664599           
       0.121910              0.0229417273             0.00165114444           
       0.122589              0.0214514881             0.00159826214           
       0.123268              0.0205173041             0.00153279171           
       0.123947              0.0225136373             0.00161601551           
       0.124626              0.0196725197             0.00149214115           
       0.125305              0.0204276831             0.00152797226           
       0.125985              0.0211359884             0.00154217676           
       0.126664               0.021829899             0.00155235872           
       0.127343              0.0202079714             0.00151088937           
       0.128022              0.0202314128              0.0015001702           
       0.128701              0.0174832153             0.00138729827           
       0.129380              0.0206799737             0.00148991159           
       0.130059              0.0211077863             0.00150873952           
       0.130739              0.0192117989             0.00144950704           
       0.131418              0.0192366725              0.0014463842           
       0.132097              0.0214862218              0.0015090129           
       0.132776              0.0182621589             0.00138491731           
       0.133455              0.0203604862             0.00147367908           
       0.134134              0.0173735871             0.00135696407           
       0.134814               0.020110092             0.00144488262           
       0.135493              0.0217490531             0.00150868904           
       0.136172              0.0196520131              0.0014232858           
       0.136851              0.0172084034             0.00133960691           
       0.137530              0.0184626991             0.00135460297           
       0.138209               0.018692943             0.00137902586           
       0.138889              0.0209044231             0.00146474774           
       0.139568              0.0168124837             0.00131302182           
       0.140247              0.0175833074              0.0013410247           
       0.140926              0.0178196752             0.00131140747           
       0.141605              0.0168354121             0.00130705957           
       0.142284              0.0184214129             0.00134458457           
       0.142964              0.0215029515             0.00145825545           
       0.143643              0.0187052847             0.00135836899           
       0.144322              0.0179195568             0.00130171244           
       0.145001              0.0208695428             0.00143361333           
       0.145680              0.0232359564             0.00147692216           
       0.146359              0.0182164274             0.00131248597           
       0.147039              0.0209057412              0.0014176098           
       0.147718              0.0180816068             0.00129663056           
       0.148397              0.0185530407              0.0013338348           
       0.149076              0.0206332563             0.00136298929           
       0.149755              0.0203748542             0.00137534085           
       0.150434              0.0204767367             0.00137933793           
       0.151114               0.019409477             0.00133548321           
       0.151793              0.0194116923             0.00133557179           
       0.152472              0.0163316843             0.00120340284           
       0.153151              0.0180281122             0.00127658343           
       0.153830              0.0165100524             0.00121275349           
       0.154509               0.015936046              0.0011865138           
       0.155188              0.0170795523             0.00122789208           
       0.155868              0.0177730411             0.00124365896           
       0.156547              0.0176753528              0.0012482031           
       0.157226              0.0203030256             0.00130509603           
       0.157905              0.0203059605              0.0013161534           
       0.158584              0.0165073799             0.00118452464           
       0.159263              0.0176445223             0.00122915037           
       0.159943              0.0203235076              0.0013201497           
       0.160622              0.0160119094             0.00114916454           
       0.161301              0.0168590074             0.00119494236           
       0.161980              0.0167836183             0.00117199829           
       0.162659              0.0204999166             0.00130962632           
       0.163338              0.0187556552             0.00124246225           
       0.164018              0.0174210848             0.00119115768           
       0.164697              0.0171335156             0.00119645368           
       0.165376              0.0181332625             0.00120397267           
       0.166055              0.0156996707             0.00112766138           
       0.166734               0.016777553             0.00116050746           
       0.167413              0.0181704425             0.00120856591           
       0.168093              0.0174415944             0.00119527959           
       0.168772              0.0162896216             0.00112135103           
       0.169451              0.0174267051             0.00118116727           
       0.170130              0.0190641583              0.0012191954           
       0.170809              0.0137268294             0.00104689179           
       0.171488              0.0165394369             0.00113867506           
       0.172168              0.0183494613              0.0011878423           
       0.172847              0.0186070453             0.00121186312           
       0.173526              0.0179784976             0.00116849451           
       0.174205              0.0166461809             0.00112954319           
       0.174884              0.0168202947             0.00112951815           
       0.175563              0.0187178075             0.00119661441           
       0.176243              0.0162038421             0.00112450249           
       0.176922              0.0167009571             0.00111187081           
       0.177601              0.0152651748             0.00107468529           
       0.178280              0.0168440417             0.00111629356           
       0.178959              0.0156104761             0.00108328452           
       0.179638              0.0168839211             0.00112335929           
       0.180317              0.0149371425             0.00104891522           
       0.180997              0.0150835378             0.00105976388           
       0.181676              0.0163770499             0.00109247905           
       0.182355              0.0146644905             0.00103999034           
       0.183034              0.0158899288             0.00106519758           
       0.183713              0.0141781638             0.00101844195           
       0.184392              0.0147318974             0.00103782526           
       0.185072              0.0162530029             0.00107766503           
       0.185751              0.0178504255             0.00113252496           
       0.186430              0.0174629443             0.00111231989           
       0.187109               0.017241857             0.00111756525           
       0.187788              0.0153864611             0.00105312087           
       0.188467              0.0155093894             0.00104480695           
       0.189147              0.0158561988             0.00106712229           
       0.189826              0.0152010007             0.00102636558           
       0.190505              0.0152094742             0.00104355169           
       0.191184              0.0158029818             0.00104838709           
       0.191863              0.0158093542             0.00105080751           
       0.192542              0.0155230355             0.00105106782           
       0.193222              0.0161985219             0.00104963132           
       0.193901              0.0158555758             0.00105237987           
       0.194580              0.0154037353             0.00101913197           
       0.195259              0.0162340092             0.00105825339           
       0.195938              0.0167287972             0.00107682384           
       0.196617              0.0161948391             0.00104471003           
       0.197297              0.0162471177             0.00105066746           
       0.197976               0.015690968             0.00101666831           
       0.198655               0.016577835             0.00105641929           
       0.199334              0.0154811595             0.00101187591           
       0.200013              0.0169856008             0.00105931495           
       0.200692              0.0149808773             0.00100082401           
       0.201371              0.0152397015            0.000998064191           
       0.202051              0.0163237872             0.00103616557           
       0.202730              0.0158025515              0.0010093059           
       0.203409              0.0160086194             0.00102268467           
       0.204088              0.0159027715             0.00101817067           
       0.204767               0.015943465             0.00101411432           
       0.205446              0.0160418933             0.00101922765           
       0.206126              0.0154865933            0.000987826101           
       0.206805              0.0150393072            0.000991302179           
       0.207484              0.0158928176             0.00100072329           
       0.208163              0.0175484163             0.00105787518           
       0.208842              0.0154108556            0.000988667777           
       0.209521              0.0157072852            0.000989835949           
       0.210201              0.0144761911            0.000960858324           
       0.210880              0.0153154153            0.000968923947           
       0.211559              0.0148865113            0.000969383964           
       0.212238              0.0148075757            0.000961890846           
       0.212917               0.015315346            0.000974609463           
       0.213596              0.0151725572            0.000975791377           
       0.214276              0.0140153344            0.000918302681           
       0.214955              0.0153746573            0.000982030659           
       0.215634              0.0134059547            0.000910431822           
       0.216313              0.0158212935            0.000986976103           
       0.216992              0.0144471285            0.000942904342           
       0.217671              0.0162526408            0.000993315264           
       0.218351              0.0130447115            0.000898605781           
       0.219030              0.0147857844            0.000941595236           
       0.219709               0.014619824            0.000942136327           
       0.220388              0.0156143397            0.000972402808           
       0.221067               0.013458342            0.000903492077           
       0.221746              0.0144499769            0.000935227039           
       0.222426              0.0164187079            0.000982004536           
       0.223105              0.0168794617             0.00100925282           
       0.223784               0.016000762            0.000972885332           
       0.224463              0.0152494316            0.000957332986           
       0.225142              0.0165684572            0.000982088587           
       0.225821               0.014826189            0.000932760694           
       0.226500               0.014730646            0.000935662071           
       0.227180              0.0156892841            0.000950750929           
       0.227859              0.0152566757            0.000941757545           
       0.228538              0.0146579142            0.000913823322           
       0.229217              0.0159380035            0.000960433363           
       0.229896              0.0155280323            0.000947543944           
       0.230575              0.0142491943            0.000893218237           
       0.231255              0.0150326923            0.000931182413           
       0.231934              0.0146945391            0.000914359748           
       0.232613              0.0141245433            0.000899757892           
       0.233292              0.0152659062            0.000926367398           
       0.233971              0.0153412539            0.000928217333           
       0.234650              0.0144045647            0.000910013536           
       0.235330              0.0152695644            0.000928756896           
       0.236009              0.0128503097            0.000850175105           
       0.236688              0.0162112262            0.000951486248           
       0.237367              0.0157900561            0.000940408916           
       0.238046              0.0140887669            0.000894559402           
       0.238725              0.0150451326            0.000910161082           
       0.239405              0.0156443585            0.000933864497           
       0.240084              0.0145171043             0.00089386251           
       0.240763              0.0145388321            0.000903096585           
       0.241442              0.0149864669            0.000903974414           
       0.242121              0.0154858337            0.000920646287           
       0.242800              0.0145885596             0.00089780683           
       0.243480              0.0141295971            0.000879434139           
       0.244159              0.0140748309            0.000878152847           
       0.244838              0.0152550553            0.000899186552           
       0.245517              0.0163130458            0.000943220169           
       0.246196              0.0152769391            0.000913215103           
       0.246875              0.0139063731            0.000859142653           
       0.247554              0.0158260578            0.000925840702           
       0.248234              0.0127985062            0.000819962215           
       0.248913              0.0140648046            0.000869211492           
       0.249592              0.0128406712             0.00082263257           
       0.250271              0.0124656497            0.000808177207           
       0.250950              0.0123008501            0.000807734388           
       0.251629              0.0119898408            0.000790679905           
       0.252309              0.0136470137            0.000845265892           
       0.252988              0.0137276841            0.000833157434           
       0.253667              0.0138072663            0.000845331596           
       0.254346              0.0130187935            0.000820671289           
       0.255025              0.0126031191            0.000805694697           
       0.255704              0.0151699141            0.000879892005           
       0.256384               0.013202366            0.000818010037           
       0.257063              0.0132090283            0.000822881427           
       0.257742              0.0124202518            0.000792405358           
       0.258421              0.0128757725            0.000805252511           
       0.259100               0.012067125            0.000780915476           
       0.259779              0.0118145728             0.00077204538           
       0.260459              0.0123861208            0.000792051639           
       0.261138              0.0120866902            0.000767128959           
       0.261817              0.0120857171            0.000782582601           
       0.262496               0.011808123            0.000765956677           
       0.263175               0.012302462            0.000783504684           
       0.263854              0.0127264602            0.000793189568           
       0.264534              0.0137166856            0.000816436908           
       0.265213              0.0116028317            0.000762729668           
       0.265892              0.0130623765            0.000798913416           
       0.266571              0.0140376852            0.000826318768           
       0.267250              0.0121181813            0.000769041146           
       0.267929              0.0117539869            0.000756620159           
       0.268609              0.0123305334            0.000779197669           
       0.269288              0.0143386132            0.000826294941           
       0.269967              0.0129095553            0.000792485531           
       0.270646              0.0116414941            0.000749304986           
       0.271325              0.0114920726             0.00074572411           
       0.272004              0.0119654253            0.000753341946           
       0.272683              0.0119045684            0.000752352199           
       0.273363              0.0123734589            0.000771917718           
       0.274042              0.0117198475            0.000746821004           
       0.274721              0.0127795567            0.000779391881           
       0.275400              0.0127562146            0.000773524108           
       0.276079               0.011184595             0.00072842044           
       0.276758              0.0113864048            0.000744237644           
       0.277438              0.0116579657            0.000744606993           
       0.278117              0.0108985748             0.00073303836           
       0.278796              0.0113657895             0.00074098752           
       0.279475              0.0119363785             0.00077190362           
       0.280154              0.0111900512            0.000736631768           
       0.280833              0.0114315123             0.00074906469           
       0.281513              0.0124214545            0.000793075095           
       0.282192              0.0102357375            0.000707643491           
       0.282871              0.0122019325            0.000778024837           
       0.283550              0.0100869393            0.000711180773           
       0.284229              0.0118484342            0.000782101369           
       0.284908              0.0115002581            0.000778651604           
       0.285588              0.0106343963            0.000739997371           
       0.286267              0.0104023763            0.000743598952           
       0.286946              0.0109546397            0.000758120201           
       0.287625               0.010675495            0.000761141477           
       0.288304             0.00980291515            0.000719609522           
       0.288983              0.0106106946            0.000758152206           
       0.289663              0.0109579414            0.000774967399           
       0.290342              0.0119276493            0.000804226516           
       0.291021             0.00986003268            0.000735146018           
       0.291700              0.0105552784            0.000750686239           
       0.292379             0.00982596366            0.000740871154           
       0.293058              0.0103269276            0.000756653594           
       0.293738              0.0109690921            0.000773275989           
       0.294417              0.0115922471            0.000804177249           
       0.295096              0.0115147503             0.00079267372           
       0.295775             0.00922426922            0.000720303575           
       0.296454               0.011075553            0.000779073267           
       0.297133             0.00918261193            0.000712735692           
       0.297812             0.00978874356            0.000739573984           
       0.298492             0.00938596148            0.000725597574           
       0.299171             0.00967228957            0.000735188427           
       0.299850              0.0106456878            0.000766028782           
       0.300529              0.0100379241            0.000752220089           
       0.301208             0.00817051042            0.000680304095           
       0.301887             0.00766323696            0.000658064147           
       0.302567              0.0100280502            0.000749013743           
       0.303246              0.0101525636            0.000758569898           
       0.303925             0.00955240484            0.000745254915           
       0.304604             0.00913384725            0.000713008934           
       0.305283             0.00895708097            0.000716547776           
       0.305962              0.0100866119            0.000755793169           
       0.306642             0.00892667532            0.000720665667           
       0.307321             0.00973581921            0.000750215801           
       0.308000             0.00943107725            0.000729628948           
       0.308679              0.0092642275              0.0007388062           
       0.309358             0.00826468075            0.000688373469           
       0.310037              0.0084717156            0.000698495035           
       0.310717             0.00879729024            0.000711105533           
       0.311396             0.00923914196            0.000733632146           
       0.312075             0.00880213202            0.000725152255           
       0.312754             0.00760171315            0.000660411492           
       0.313433             0.00906567342             0.00072747769           
       0.314112             0.00853582821             0.00070573682           
       0.314792              0.0102685296            0.000779525204           
       0.315471             0.00861069442            0.000705002871           
       0.316150             0.00908996165            0.000731061122           
       0.316829             0.00837042359            0.000706162816           
       0.317508             0.00868745541            0.000711338906           
       0.318187              0.0092480841            0.000743614326           
       0.318866              0.0102637286            0.000772830514           
       0.319546             0.00897329956             0.00073344813           
       0.320225             0.00865585978            0.000720372157           
       0.320904             0.00891740391            0.000719869018           
       0.321583             0.00853902808            0.000719952963           
       0.322262             0.00739710241            0.000659930476           
       0.322941             0.00770700299             0.00068224258           
       0.323621             0.00784778553            0.000684244168           
       0.324300             0.00696510851            0.000645121834           
       0.324979              0.0089767154            0.000733704141           
       0.325658             0.00755775954            0.000674444078           
       0.326337             0.00925592626            0.000747353124           
       0.327016             0.00838070811            0.000706627124           
       0.327696             0.00880405512             0.00073230969           
       0.328375             0.00698003754            0.000646549821           
       0.329054             0.00743776125            0.000671032195           
       0.329733             0.00791069817            0.000694564827           
       0.330412             0.00734820364            0.000663930927           
       0.331091             0.00737660999             0.00067727959           
       0.331771               0.007977586            0.000685872883           
       0.332450              0.0076438165            0.000684406492           
       0.333129             0.00815008194            0.000704884378           
       0.333808             0.00683074012            0.000646166456           
       0.334487             0.00752354829            0.000681359234           
       0.335166              0.0081166058            0.000697347134           
       0.335846             0.00637150618            0.000628707306           
       0.336525             0.00727949477            0.000665378788           
       0.337204             0.00677588777            0.000643633302           
       0.337883             0.00660870197            0.000636485894           
       0.338562             0.00669097023            0.000643989266           
       0.339241             0.00664442362            0.000642947889           
       0.339921             0.00671716866             0.00063561686           
       0.340600             0.00661824729            0.000642900702           
       0.341279             0.00695393079            0.000651946481           
       0.341958              0.0066036926              0.0006442798           
       0.342637             0.00573361663            0.000591856358           
       0.343316             0.00631561805            0.000622967642           
       0.343995             0.00774222294            0.000701041956           
       0.344675             0.00573619151            0.000592335006           
       0.345354             0.00537662335            0.000577252318           
       0.346033              0.0078164502            0.000694195947           
       0.346712              0.0056087717            0.000591798035           
       0.347391             0.00663939828            0.000647865372           
       0.348070             0.00552098324             0.00058239386           
       0.348750             0.00814614266            0.000717653829           
       0.349429              0.0062045133            0.000618229458           
       0.350108             0.00516227816            0.000570704644           
       0.350787             0.00670867937            0.000639539931           
       0.351466             0.00524520767            0.000575914379           
       0.352145             0.00644694442            0.000639019015           
       0.352825              0.0055801246            0.000591816606           
       0.353504             0.00707940824            0.000666434018           
       0.354183             0.00605939239            0.000609453559           
       0.354862             0.00603695627            0.000622460034           
       0.355541             0.00548650101            0.000585632121           
       0.356220             0.00607778933            0.000617546327           
       0.356900             0.00575731395            0.000606753547           
       0.357579             0.00754486395            0.000686072293           
       0.358258             0.00623254167             0.00063218699           
       0.358937             0.00678164954            0.000647050242           
       0.359616             0.00481847645             0.00055302895           
       0.360295             0.00443731136            0.000531146832           
       0.360975             0.00535965745            0.000581248444           
       0.361654             0.00527819322            0.000579787945           
       0.362333             0.00528839933            0.000577397289           
       0.363012             0.00537509499            0.000589600467           
       0.363691             0.00472533282            0.000541909872           
       0.364370             0.00584790052             0.00061033091           
       0.365050              0.0047715924            0.000548361408           
       0.365729             0.00557965483             0.00059863247           
       0.366408             0.00496403429            0.000565893286           
       0.367087             0.00547827945            0.000584947958           
       0.367766             0.00482123315            0.000560183264           
       0.368445             0.00521742877            0.000572399627           
       0.369124             0.00534725242            0.000584029494           
       0.369804             0.00583576293            0.000609147946           
       0.370483              0.0050097278            0.000566861675           
       0.371162             0.00429512381            0.000527920481           
       0.371841             0.00506957592            0.000563543617           
       0.372520             0.00601415536            0.000626106497           
       0.373199             0.00559705743            0.000596789057           
       0.373879             0.00482909023            0.000560754727           
       0.374558             0.00436030433            0.000525066871           
       0.375237             0.00533015775            0.000581483762           
       0.375916             0.00462134258             0.00055181422           
       0.376595              0.0049310499            0.000558864312           
       0.377274             0.00432509183             0.00053177881           
       0.377954             0.00443537676            0.000530056452           
       0.378633             0.00442568953            0.000536168435           
       0.379312             0.00499854331            0.000569669343           
       0.379991             0.00469345575            0.000549153582           
       0.380670              0.0039444587            0.000512330436           
       0.381349             0.00491896462            0.000563913322           
       0.382029             0.00373656708            0.000498528994           
       0.382708             0.00387987663            0.000496905791           
       0.383387             0.00354911428            0.000486023572           
       0.384066             0.00568409337            0.000609431246           
       0.384745             0.00435472136            0.000535523088           
       0.385424             0.00471870976            0.000559348135           
       0.386104             0.00493562521            0.000565738249           
       0.386783             0.00468442637            0.000563075005           
       0.387462             0.00361696798            0.000482469449           
       0.388141             0.00433476838            0.000536614051           
       0.388820             0.00445832148            0.000540273916           
       0.389499             0.00431876257            0.000534744081           
       0.390178             0.00394921116            0.000513390136           
       0.390858             0.00413950777            0.000521360617           
       0.391537             0.00404198764            0.000520443493           
       0.392216              0.0038511024            0.000501638309           
       0.392895             0.00382869274            0.000501861695           
       0.393574             0.00445782258            0.000540184767           
       0.394253             0.00351190351            0.000481616794           
       0.394933             0.00434683533            0.000541940457           
       0.395612             0.00414181174            0.000513639209           
       0.396291             0.00470837766            0.000558793702           
       0.396970              0.0039799693             0.00050920277           
       0.397649             0.00439553962            0.000536774741           
       0.398328             0.00475128637            0.000555620695           
       0.399008             0.00395145191            0.000505599097           
       0.399687             0.00437833434            0.000534278971           
       0.400366             0.00381857502            0.000497049923           
       0.401045             0.00502981768            0.000569381782           
       0.401724             0.00401431216            0.000509515422           
       0.402403             0.00336045362             0.00046981028           
       0.403083             0.00275302694            0.000419103066           
       0.403762             0.00367688691            0.000486734417           
       0.404441             0.00333669539            0.000466624421           
       0.405120             0.00382265244            0.000497811686           
       0.405799             0.00456462067            0.000541619395           
       0.406478             0.00404125478            0.000509636923           
       0.407158             0.00428076912             0.00052353755           
       0.407837             0.00344877033            0.000474062388           
       0.408516              0.0042667193            0.000522703921           
       0.409195             0.00477611665            0.000559300315           
       0.409874             0.00364955869            0.000495711011           
       0.410553             0.00331676461            0.000477652043           
       0.411233             0.00417244891            0.000532958817           
       0.411912              0.0035115881             0.00049586141           
       0.412591             0.00400146138            0.000532822623           
       0.413270             0.00261936404            0.000429045264           
       0.413949             0.00355270791            0.000505129346           
       0.414628             0.00254213032            0.000426521866           
       0.415307              0.0031099353            0.000477004292           
       0.415987             0.00312251093             0.00047402903           
       0.416666             0.00358918926            0.000505161544           
       0.417345             0.00349768096            0.000507007873           
       0.418024             0.00269086008            0.000444714436           
       0.418703             0.00201707521            0.000384324556           
       0.419382             0.00329755043            0.000488989317           
       0.420062             0.00288378684            0.000458564385           
       0.420741             0.00305916679            0.000474814308           
       0.421420             0.00301764502            0.000473369466           
       0.422099             0.00339616843            0.000502194629           
       0.422778             0.00267800756            0.000448362051           
       0.423457             0.00270861601            0.000453677012           
       0.424137             0.00297906283            0.000468033593           
       0.424816             0.00274907129            0.000459000426           
       0.425495             0.00274163184            0.000457945307           
       0.426174             0.00236737275            0.000425690941           
       0.426853             0.00255738612            0.000439757421           
       0.427532             0.00238158752            0.000427961496           
       0.428212             0.00241121344            0.000433457675           
       0.428891             0.00254749395             0.00044452534           
       0.429570              0.0032604767            0.000503242529           
       0.430249             0.00190985406            0.000383156473           
       0.430928              0.0023946442            0.000438420752           
       0.431607             0.00223440896            0.000416221849           
       0.432287             0.00275618798            0.000465658068           
       0.432966             0.00183700845            0.000383505551           
       0.433645             0.00199787317            0.000400362437           
       0.434324              0.0013391427            0.000325804426           
       0.435003             0.00167297937            0.000364779118           
       0.435682             0.00187245445            0.000389078913           
       0.436361             0.00265179656            0.000462402885           
       0.437041             0.00225640302            0.000425969791           
       0.437720              0.0026001124            0.000459469052           
       0.438399             0.00246440012            0.000449651655           
       0.439078             0.00218944592            0.000436116244           
       0.439757             0.00242628125            0.000456270085           
       0.440436             0.00253447703            0.000476841954           
       0.441116             0.00347188877            0.000567227552           
       0.441795             0.00255177958            0.000486876615           
       0.442474             0.00247679171            0.000481006999           
       0.443153             0.00232276445            0.000476677642           
       0.443832             0.00242028154            0.000487401164           
       0.444511             0.00278782292            0.000520744793           
       0.445191             0.00272589667            0.000527453343           
       0.445870             0.00284342992            0.000538719231           
       0.446549             0.00249454616            0.000509909006           
       0.447228             0.00204122131            0.000458649548           
       0.447907             0.00253413214            0.000517166974           
       0.448586             0.00244154118            0.000519845197           
       0.449266             0.00131333039            0.000377759835           
       0.449945             0.00259405021            0.000528740937           
       0.450624             0.00314522411            0.000591455557           
       0.451303             0.00196296311              0.0004733102           
       0.451982             0.00306832817            0.000588095153           
       0.452661             0.00179025337            0.000457583594           
       0.453341            0.000979733191            0.000339692847           
       0.454020             0.00216606507            0.000505859088           
       0.454699             0.00329081327             0.00062920757           
       0.455378             0.00267632811            0.000567734123           
       0.456057             0.00255414785            0.000564487302           
       0.456736             0.00178325776             0.00047019914           
       0.457416             0.00166710805            0.000454641394           
       0.458095             0.00208824627            0.000516200042           
       0.458774             0.00242516112            0.000563636883           
       0.459453             0.00179874897            0.000487864525           
       0.460132             0.00183222266            0.000481749503           
       0.460811             0.00213229737            0.000539093913           
       0.461490             0.00101959319            0.000368989846           
       0.462170             0.00229095701            0.000561738801           
       0.462849              0.0024588466            0.000585732564           
       0.463528             0.00149834985            0.000456175538           
       0.464207             0.00184850464            0.000516162791           
       0.464886             0.00166013898            0.000485348523           
       0.465565             0.00141237553            0.000452586242           
       0.466245              0.0011351746            0.000407008206           
       0.466924             0.00288029072            0.000663635399           
       0.467603             0.00158850892            0.000482386742           
       0.468282            0.000580980825            0.000298648061           
       0.468961             0.00122504271            0.000436513913           
       0.469640              0.0017117565            0.000518051057           
       0.470320             0.00185798398            0.000540098067           
       0.470999            0.000958035416            0.000391488909           
       0.471678             0.00161755556            0.000513585572           
       0.472357             0.00229935344            0.000614040215           
       0.473036             0.00150448453            0.000499827916           
       0.473715              0.0005274439            0.000298262726           
       0.474395             0.00124287607            0.000464180581           
       0.475074             0.00106883967            0.000430469103           
       0.475753             0.00104622131            0.000422215148           
       0.476432             0.00112529458            0.000453821476           
       0.477111            0.000393743286            0.000265200683           
       0.477790            0.000579521156            0.000323457298           
       0.478470             0.00097990739            0.000426167602           
       0.479149            0.000615500994            0.000341248885           
       0.479828            0.000621663076            0.000342145497           
       0.480507             0.00102556887             0.00044299932           
       0.481186            0.000677278766            0.000368116832           
       0.481865            0.000839718233            0.000404815541           
       0.482545            0.000864966462            0.000415682404           
       0.483224            0.000879084749            0.000421924584           
       0.483903            0.000512392712            0.000327196383           
       0.484582            0.000533658456             0.00033934726           
       0.485261            0.000493524229            0.000318069445           
       0.485940            0.000334094707            0.000272256369           
       0.486619             0.00075935725            0.000405940598           
       0.487299            -9.7029686e-05                         0           
       0.487978           -0.000317121177                         0           
       0.488657            0.000628100319            0.000386577608           
       0.489336           -8.43248269e-05                         0           
       0.490015            0.000853227757            0.000446141261           
       0.490694            0.000154248213            0.000194938896           
       0.491374            0.000624765734            0.000387543241           
       0.492053           -0.000317236353                         0           
       0.492732           -0.000317255537                         0           
       0.493411            -6.7079432e-05                         0           
       0.494090            0.000199320787            0.000226377569           
       0.494769           -0.000317313714                         0           
       0.495449           -0.000317333167                         0           
       0.496128            -0.00031735268                         0           
       0.496807             0.00024019087             0.00025912831           
       0.497486           -0.000317391455                         0           
       0.498165           -3.93388764e-05                         0           
       0.498844           -0.000317430671                         0           
       0.499524           -0.000317450222                         0           
       0.500203           -0.000317470083                         0           
       0.500882           -0.000317489553                         0           
       0.501561           -0.000317509085                         0           
       0.502240           -0.000317528877                         0           
       0.502919           -0.000317548581                         0           
       0.503599            0.000258059699            0.000277990687           
       0.504278           -3.90148454e-06                         0           
       0.504957           -0.000317608252                         0           
       0.505636            -0.00031762795                         0           
       0.506315           -0.000317647973                         0           
       0.506994           -0.000317667638                         0           
       0.507673           -0.000317687263                         0           
       0.508353           -0.000317707301                         0           
       0.509032            3.81428996e-05            0.000117431046           
       0.509711           -0.000317747216                         0           
       0.510390            -0.00031776749                         0           
       0.511069            0.000397922981            0.000378754561           
       0.511748            4.49103176e-05            0.000128024576           
       0.512428           -0.000317828095                         0           
       0.513107           -0.000317848052                         0           
       0.513786           -0.000317868073                         0           
       0.514465            6.14977553e-05            0.000151705116           
       0.515144           -0.000317908783                         0           
       0.515823            7.45670992e-05            0.000171998564           
       0.516503           -0.000317949298                         0           
       0.517182           -0.000317969647                         0           
       0.517861           -0.000317989948                         0           
       0.518540           -0.000318010363                         0           
       0.519219            -0.00031803066                         0           
       0.519898           -0.000318051162                         0           
       0.520578            0.000567252794            0.000501096704           
       0.521257            0.000171304439            0.000289737318           
       0.521936            0.000133310654            0.000246631969           
       0.522615           -0.000318133206                         0           
       0.523294            0.000154752782             0.00027207272           
       0.523973           -0.000318174377                         0           
       0.524653           -0.000318194672                         0           
       0.525332           -0.000318215262                         0           
       0.526011           -0.000318236223                         0           
       0.526690            0.000170383256            0.000287850034           
       0.527369            0.000208828764            0.000331811142           
       0.528048           -0.000318298787                         0           
       0.528728           -0.000318319658                         0           
       0.529407           -0.000318340433                         0           
       0.530086            0.000205591718            0.000327825078           
       0.530765           -0.000318381797                         0           
       0.531444           -0.000318402717                         0           
       0.532123           -0.000318424007                         0           
       0.532802           -0.000318445123                         0           
       0.533482            0.000261400141            0.000388953549           
       0.534161             0.00138476329            0.000884584562           
       0.534840           -0.000318508143                         0           
       0.535519           -0.000318529427                         0           
       0.536198           -0.000318550491                         0           
       0.536877           -0.000318571265                         0           
       0.537557            0.000227432241             0.00036112607           
       0.538236           -0.000318613718                         0           
       0.538915           -0.000318635031                         0           
       0.539594           -0.000318656316                         0           
       0.540273             0.00028580814            0.000419236628           
       0.540952           -0.000318699311                         0           
       0.541632           -0.000318720297                         0           
       0.542311           -0.000318741476                         0           
       0.542990           -0.000318762892                         0           
       0.543669           -0.000318784487                         0           
       0.544348           -0.000318806056                         0           
       0.545027           -0.000318827579                         0           
       0.545707           -0.000318849167                         0           
       0.546386           -0.000318870815                         0           
       0.547065           -0.000318892203                         0           
       0.547744           -0.000318913689                         0           
       0.548423            0.000388706936            0.000525599164           
       0.549102           -0.000318957157                         0           
       0.549782           -0.000318978792                         0           
       0.550461           -0.000319000683                         0           
       0.551140           -0.000319022707                         0           
       0.551819            -0.00031904447                         0           
       0.552498            -0.00031906642                         0           
       0.553177           -0.000319087993                         0           
       0.553856            0.000571417448            0.000716419968           
       0.554536           -0.000319131364                         0           
       0.555215             0.00157351003             0.00121668859           
       0.555894             0.00135458233              0.0010676282           
       0.556573           -0.000319197548                         0           
       0.557252           -0.000319219661                         0           
       0.557931           -0.000319241673                         0           
       0.558611             -0.0003192642                         0           
       0.559290           -0.000319286154                         0           
       0.559969           -0.000319307569                         0           
       0.560648           -0.000319329551                         0           
       0.561327            0.000861812199             0.00100505044           
       0.562006            -0.00031937439                         0           
       0.562686            -0.00031939677                         0           
       0.563365           -0.000319419233                         0           
       0.564044           -0.000319441582                         0           
       0.564723           -0.000319463882                         0           
       0.565402           -0.000319485767                         0           
       0.566081           -0.000319507797                         0           
       0.566761            0.000813022113             0.00095785749           
       0.567440           -0.000319552784                         0           
       0.568119           -0.000319575323                         0           
       0.568798            -0.00031959818                         0           
       0.569477           -0.000319620891                         0           
       0.570156           -0.000319643711                         0           
       0.570836           -0.000319666446                         0           
       0.571515             0.00117336755              0.0013248981           
       0.572194           -0.000319711598                         0           
       0.572873           -0.000319733973                         0           
       0.573552           -0.000319756217                         0           
       0.574231           -0.000319778911                         0           
       0.574911           -0.000319802178                         0           
       0.575590           -0.000319824997                         0           
       0.576269           -0.000319847746                         0           
       0.576948           -0.000319870932                         0           
       0.577627           -0.000319893411                         0           
       0.578306           -0.000319916207                         0           
       0.578985           -0.000319939198                         0           
       0.579665           -0.000319962056                         0           
       0.580344           -0.000319985261                         0           
       0.581023            -0.00032000844                         0           
       0.581702           -0.000320031405                         0           
       0.582381           -0.000320054161                         0           
       0.583060           -0.000320077597                         0           
       0.583740           -0.000320100664                         0           
       0.584419           -0.000320123807                         0           
       0.585098           -0.000320146923                         0           
       0.585777            -0.00032017022                         0           
       0.586456           -0.000320193895                         0           
       0.587135            -0.00032021694                         0           
       0.587815           -0.000320239737                         0           
       0.588494           -0.000320263245                         0           
       0.589173           -0.000320287292                         0           
       0.589852           -0.000320310061                         0           
       0.590531           -0.000320333689                         0           
       0.591210           -0.000320356771                         0           
       0.591890             -0.0003203803                         0           
       0.592569           -0.000320403041                         0           
       0.593248           -0.000320427904                         0           
       0.593927           -0.000320451543                         0           
       0.594606           -0.000320475668                         0           
       0.595285           -0.000320498356                         0           
       0.595965           -0.000320519527                         0           
       0.596644           -0.000320541313                         0           
