################################################################################
# EDF_DataBlockID                     0.Image.Psd
# EDF_BinarySize                      4366944
# EDF_HeaderSize                      2560
# ByteOrder                           LowByteFirst
# DataType                            FloatValue
# Dim_1                               1028
# Dim_2                               1062
# Image                               0
# HeaderID                            EH:000000:000000:000000
# Size                                4366944
# Center_1                            607.5200
# Center_2                            651.5500
# Comment                             Xenocs_Cell_Window - 20251028_20perc_iodine_1.23mg
# DDummy                              0.6
# Date                                2025-10-31T05:23:37
# Delta                               0
# Dummy                               -1.5
# ExposureTime                        360
# Gamma                               0
# Intensity1                          8.57241e-10
# PSize_1                             7.5e-05
# PSize_2                             7.5e-05
# Pressure                            0.0328236
# SampleDistance                      0.450002
# SampleEnvKind                       large
# SampleEnvPN                         ElectroChemical cell
# SampleEnvSN                         1141
# Thickness                           0
# Wavelength                          1.541891e-10
# Wavelength                          1.54189e-10
# aux                                 0
# aux_dial                            0.002375
# beamx                               588.434
# beamx_dial                          588.434
# beamz                               657.808
# beamz_dial                          657.808
# det0x                               0
# det0x_dial                          6.36945
# det0xvd                             0
# det0xvd_dial                        0
# det0y                               450.002
# det0y_dial                          481.635
# det0z                               0
# det0z_dial                          1.23302
# det0zvd                             0
# det0zvd_dial                        0
# mag                                 1.818
# mag_dial                            1.818
# om                                  0.2499
# om_dial                             -0.610199
# phi                                 -0.0120535
# phi_dial                            0
# ry                                  0.599993
# ry_dial                             0.599993
# s1bot                               0.8
# s1bot_dial                          -1.66094
# s1hl                                0.8
# s1hl_dial                           -0.608437
# s1hr                                0.8
# s1hr_dial                           0.970938
# s1top                               0.8
# s1top_dial                          -0.461562
# s2bot                               0.45
# s2bot_dial                          1.36109
# s2hl                                0.45
# s2hl_dial                           -0.83375
# s2hr                                0.45
# s2hr_dial                           -0.118594
# s2top                               0.45
# s2top_dial                          1.44734
# w2theta                             32
# w2theta_dial                        32
# waxsch                              19.2605
# waxsch_dial                         -32.7355
# waxsh                               137.085
# waxsh_dial                          -43.5338
# waxsth                              26.0607
# waxsth_dial                         -19.4086
# waxsz                               67.0407
# waxsz_dial                          -23.7954
# wind                                65.9854
# wind_dial                           66.0041
# wpsi                                124
# wpsi_dial                           124
# wstod                               115
# wstod_dial                          115
# x                                   0
# x_dial                              1.00969
# z                                   0
# z_dial                              13.3172
# CountCutoff                         15302352
# DetectorModel                       Dectris EIGER2 Si 1M, S/N E-02-0362
# ThresholdSetting                    4023.88989258
# Saturation                          0
# FlatField                           Corrected
# BackgroundReductionExtra            0.02
# BackgroundCorrectionConstant        0.0026712
# Detector                            0
# Monitor                             0
# Pil_Roi0                            0
# SumForIntensity1                    3.08607e+08
# TransmittedFlux                     857241
# det                                 0
# mon                                 0
# pilai0                              3.08607e+08
# pilai1                              780262
# pilct0                              5.34379e+08
# pilct1                              780262
# pilroi0                             0
# pilroi1                             0
# sec                                 1
# title                               20251028_20perc_iodine_1.23mg_0_00573.edf
# usaxs0                              0
# Operation                           Azimuthal average I(q)
# Error_model                         ErrorModel.poisson
# Geometrical_correction              True
# Transmission_correction             True
# Thickness_correction                False
# Binning mode                        Uniform
# Binning factor                      1.0
# Psi                                 0.0
# Omega                               0.2499
# MaskInvalidPixels                   True
# DetectorEdge                        3
# MaskFiles                           ['20251028_20perc_iodine_1.23mg_0_00012_mask.edf']
################################################################################
    q(A⁻¹)                Intensity(a.u.)            Sigma_I(a.u.)            
       0.000340                372216.704                120.306134           
       0.001019                359203.108                72.3728262           
       0.001698                349695.457                50.4935055           
       0.002377                330816.753                43.9267749           
       0.003056                308018.422                35.8228365           
       0.003735                253562.596                28.6643484           
       0.004415                205049.015                25.7767659           
       0.005094                153115.176                19.2903211           
       0.005773                101164.839                14.5168333           
       0.006452                59020.9433                10.6240335           
       0.007131                32408.1999                7.62644653           
       0.007810                16178.0197                5.34739612           
       0.008490                8086.28935                3.35109591           
       0.009169                3861.14897                2.28855396           
       0.009848                1193.09075                1.22997189           
       0.010527                 461.93834               0.765333484           
       0.011206                116.848222               0.367369649           
       0.011885                54.1686313                0.23239898           
       0.012564                 25.171657               0.162647712           
       0.013244                16.7840027               0.124165174           
       0.013923                12.5753271               0.109209731           
       0.014602                9.27556175              0.0869874754           
       0.015281                7.59203273              0.0801114378           
       0.015960                6.12667666              0.0714502741           
       0.016639                4.93961241              0.0605832373           
       0.017319                4.21098413              0.0550668988           
       0.017998                3.51923243              0.0481608514           
       0.018677                2.90080094              0.0452870773           
       0.019356                2.48203579              0.0413921946           
       0.020035                2.15948852              0.0362228938           
       0.020714                1.91667216              0.0344868751           
       0.021394                1.59154883                0.02973444           
       0.022073                1.37348186              0.0287389305           
       0.022752                1.31508059              0.0269010263           
       0.023431                1.13663962              0.0242762362           
       0.024110               0.984428888              0.0235542263           
       0.024789               0.872727201              0.0205966279           
       0.025469               0.833382421              0.0207410675           
       0.026148               0.724418885              0.0181693234           
       0.026827               0.660397327              0.0176254976           
       0.027506               0.611417781              0.0172038558           
       0.028185               0.573051281              0.0158832663           
       0.028864               0.528874658              0.0151731503           
       0.029544               0.462765298              0.0137633938           
       0.030223               0.442767535              0.0136557759           
       0.030902               0.416103798              0.0133593573           
       0.031581               0.376770576              0.0120844041           
       0.032260               0.336544443              0.0116157049           
       0.032939               0.307406577              0.0107042472           
       0.033619                0.28950635              0.0105405886           
       0.034298               0.273594364             0.00997182323           
       0.034977               0.261491827             0.00955719122           
       0.035656               0.246019675             0.00951547954           
       0.036335                0.21983174             0.00872381763           
       0.037014               0.203818166             0.00842512477           
       0.037693               0.180372464             0.00762446089           
       0.038373               0.174227251             0.00756699062           
       0.039052               0.167527175             0.00745163642           
       0.039731               0.154762498             0.00699521509           
       0.040410               0.145483679             0.00673680223           
       0.041089               0.140875446             0.00652540628           
       0.041768               0.147457075             0.00671097752           
       0.042448                 0.1392744             0.00647150901           
       0.043127               0.125281986             0.00599285848           
       0.043806               0.114922336             0.00578253293           
       0.044485               0.116412294             0.00570033709           
       0.045164               0.108820085             0.00561994335           
       0.045843               0.113273734             0.00549940295           
       0.046523               0.094329303             0.00503583328           
       0.047202               0.105292887             0.00535761837           
       0.047881               0.100125126             0.00512373816           
       0.048560              0.0950736645             0.00503832369           
       0.049239               0.104618387             0.00507472861           
       0.049918              0.0849757419             0.00466298882           
       0.050598              0.0945884492             0.00484585907           
       0.051277              0.0894685334             0.00469793059           
       0.051956              0.0747175891             0.00426625734           
       0.052635              0.0779160099             0.00426415654           
       0.053314               0.079276649             0.00442698272           
       0.053993              0.0789315394             0.00429618136           
       0.054673              0.0753304449              0.0041035438           
       0.055352              0.0715346034             0.00405755718           
       0.056031               0.071411325             0.00396887792           
       0.056710              0.0670344296             0.00393955537           
       0.057389              0.0707118389              0.0039017681           
       0.058068              0.0693538154             0.00390395231           
       0.058748              0.0693866104             0.00395358511           
       0.059427              0.0582551285             0.00356126577           
       0.060106              0.0600229853             0.00364911214           
       0.060785              0.0600440528             0.00354039735           
       0.061464              0.0569770349             0.00353192008           
       0.062143              0.0602893564             0.00359622665           
       0.062822              0.0513456823             0.00327983662           
       0.063502              0.0612324301             0.00357531557           
       0.064181              0.0539905056             0.00332178785           
       0.064860              0.0480045499             0.00317994259           
       0.065539               0.054513434             0.00335553843           
       0.066218               0.047604263               0.003068551           
       0.066897              0.0524789688             0.00324670477           
       0.067577              0.0475459973              0.0031200358           
       0.068256              0.0507196434             0.00330164225           
       0.068935              0.0464504596             0.00310854554           
       0.069614              0.0490484778             0.00322609337           
       0.070293              0.0424296254             0.00302820371           
       0.070972              0.0432625708             0.00303539427           
       0.071652               0.047544308             0.00318789549           
       0.072331              0.0408681999             0.00290293699           
       0.073010               0.039811218             0.00293061735           
       0.073689              0.0425472462             0.00301299923           
       0.074368              0.0370172072             0.00280526929           
       0.075047              0.0410236605             0.00292143804           
       0.075727              0.0351817498             0.00268873182           
       0.076406              0.0387290796             0.00287731379           
       0.077085              0.0389301652             0.00283086128           
       0.077764              0.0356588153             0.00269981787           
       0.078443              0.0362662966             0.00273957509           
       0.079122              0.0355597823             0.00268669808           
       0.079802               0.037532859             0.00278950384           
       0.080481                0.03580442             0.00263261379           
       0.081160              0.0417724154             0.00290191821           
       0.081839              0.0367349615             0.00267775618           
       0.082518              0.0334774265             0.00255842609           
       0.083197                0.03105956             0.00242601515           
       0.083876              0.0326470311             0.00244591073           
       0.084556               0.038557915             0.00273205123           
       0.085235              0.0333515206             0.00249182206           
       0.085914              0.0289197845             0.00234290788           
       0.086593              0.0294574338             0.00234936752           
       0.087272              0.0347992881             0.00251742197           
       0.087951              0.0325961881             0.00249146821           
       0.088631              0.0346333259             0.00248066982           
       0.089310              0.0298109154             0.00235030553           
       0.089989              0.0270300811             0.00221183719           
       0.090668              0.0322594096             0.00244301005           
       0.091347              0.0310768783             0.00241124037           
       0.092026              0.0290286389             0.00222750946           
       0.092706              0.0293954258             0.00232289937           
       0.093385              0.0309599135             0.00234730482           
       0.094064              0.0275028048             0.00223812065           
       0.094743               0.032176826             0.00238395138           
       0.095422              0.0317724558             0.00234250822           
       0.096101              0.0266196819             0.00218831946           
       0.096781              0.0248406471             0.00208366267           
       0.097460              0.0237042594             0.00197991987           
       0.098139              0.0302288678             0.00221865994           
       0.098818              0.0291473557              0.0021517802           
       0.099497              0.0297587587             0.00217869527           
       0.100176              0.0261047687             0.00198700318           
       0.100856              0.0278343959              0.0020504593           
       0.101535              0.0246154566             0.00192453492           
       0.102214              0.0265440738              0.0019985192           
       0.102893              0.0262218493             0.00196371984           
       0.103572              0.0283106644             0.00201029253           
       0.104251              0.0234979179              0.0018382321           
       0.104931              0.0247080208             0.00186780997           
       0.105610               0.024765602             0.00187796189           
       0.106289              0.0246503206             0.00184240644           
       0.106968              0.0262022597             0.00190515586           
       0.107647              0.0241833335             0.00183138561           
       0.108326              0.0229933872             0.00176187075           
       0.109005              0.0212104291             0.00168153613           
       0.109685              0.0238918051             0.00176464341           
       0.110364               0.025235593             0.00183418917           
       0.111043               0.026602763             0.00187575178           
       0.111722              0.0242734347             0.00176985069           
       0.112401              0.0230718104             0.00173028593           
       0.113080              0.0220746288              0.0016730858           
       0.113760              0.0219984965             0.00169809502           
       0.114439              0.0234597631             0.00172856019           
       0.115118              0.0239984812             0.00173511186           
       0.115797              0.0225187222             0.00169633763           
       0.116476              0.0228438866             0.00168296917           
       0.117155              0.0239692146             0.00173782791           
       0.117835              0.0237092003             0.00169401667           
       0.118514              0.0213669618             0.00162855571           
       0.119193              0.0238150074             0.00171933192           
       0.119872              0.0245945023             0.00172539168           
       0.120551              0.0220053439             0.00162117616           
       0.121230              0.0205962326              0.0015526281           
       0.121910              0.0242041457             0.00169939999           
       0.122589              0.0206957033             0.00157303403           
       0.123268               0.024354691             0.00167337405           
       0.123947              0.0209277429             0.00156121462           
       0.124626              0.0190805025             0.00147249402           
       0.125305              0.0217953807             0.00158149152           
       0.125985              0.0218267053             0.00157034721           
       0.126664              0.0198226025             0.00148226304           
       0.127343                0.01846988             0.00144737833           
       0.128022               0.022196976             0.00157453768           
       0.128701               0.017448183             0.00138871465           
       0.129380              0.0194908128             0.00144936979           
       0.130059               0.020020606             0.00147234727           
       0.130739              0.0200641225             0.00148431173           
       0.131418              0.0211714664              0.0015204526           
       0.132097              0.0189203908             0.00141891605           
       0.132776              0.0199886246             0.00145183735           
       0.133455              0.0191583362              0.0014324071           
       0.134134              0.0176573284             0.00137077072           
       0.134814              0.0169690737             0.00132994392           
       0.135493              0.0187536164             0.00140378564           
       0.136172              0.0176682471             0.00135227198           
       0.136851              0.0212396777               0.001491282           
       0.137530              0.0197391374             0.00140348325           
       0.138209              0.0189631789             0.00139177126           
       0.138889              0.0164706887             0.00130280178           
       0.139568               0.021599342             0.00149126556           
       0.140247              0.0193036135             0.00140794121           
       0.140926              0.0164185663             0.00126134561           
       0.141605              0.0193430332             0.00140386232           
       0.142284              0.0190706471             0.00137084418           
       0.142964              0.0196272315             0.00139602378           
       0.143643              0.0197689526             0.00139928491           
       0.144322              0.0204860738             0.00139463164           
       0.145001              0.0185576926             0.00135461623           
       0.145680              0.0196564738               0.001361159           
       0.146359              0.0170478247             0.00127226118           
       0.147039              0.0185786906             0.00133909133           
       0.147718              0.0186127434             0.00131820107           
       0.148397              0.0192148533              0.0013601655           
       0.149076              0.0201637893             0.00135012306           
       0.149755              0.0185719498             0.00131574146           
       0.150434              0.0176568807             0.00128344133           
       0.151114              0.0176591339             0.00127642393           
       0.151793              0.0171008812             0.00125609795           
       0.152472               0.018531301             0.00128447964           
       0.153151              0.0186460275             0.00130090613           
       0.153830              0.0164828772             0.00121420927           
       0.154509              0.0198012327             0.00132527909           
       0.155188              0.0185605333             0.00128261379           
       0.155868              0.0183766357             0.00126716204           
       0.156547                0.01799084             0.00126184397           
       0.157226              0.0167891383              0.0011892003           
       0.157905              0.0188523769             0.00127073947           
       0.158584               0.018969513             0.00127236537           
       0.159263              0.0179808569             0.00124332303           
       0.159943              0.0160339997             0.00117496115           
       0.160622              0.0165734172             0.00117150841           
       0.161301              0.0176000979             0.00122339646           
       0.161980              0.0183917004             0.00122934519           
       0.162659              0.0151309676             0.00112741399           
       0.163338              0.0183617977             0.00123183746           
       0.164018              0.0168404602             0.00117351152           
       0.164697              0.0161087671             0.00116247206           
       0.165376               0.016688017             0.00115733675           
       0.166055              0.0173777295             0.00118879966           
       0.166734              0.0178937529             0.00120091721           
       0.167413              0.0170247868             0.00117221467           
       0.168093              0.0171798406              0.0011886793           
       0.168772              0.0178302573              0.0011755568           
       0.169451              0.0181019718              0.0012062725           
       0.170130              0.0169679626             0.00115254547           
       0.170809              0.0173134993             0.00117811538           
       0.171488              0.0176977312             0.00118025805           
       0.172168              0.0180348571             0.00118000053           
       0.172847              0.0151397998             0.00109535186           
       0.173526              0.0173679741             0.00115080908           
       0.174205               0.015690408              0.0010988575           
       0.174884              0.0175158803             0.00115497111           
       0.175563              0.0164158034             0.00112288824           
       0.176243              0.0171539464              0.0011593436           
       0.176922              0.0150729551             0.00105842862           
       0.177601               0.015632983               0.001089758           
       0.178280              0.0157056812             0.00108009605           
       0.178959              0.0144677156             0.00104499248           
       0.179638              0.0142431365             0.00103386437           
       0.180317              0.0159307349             0.00108543358           
       0.180997               0.017764136             0.00115241334           
       0.181676               0.016718743             0.00110605269           
       0.182355              0.0171608028             0.00112730995           
       0.183034              0.0159630294             0.00106980734           
       0.183713               0.017028711             0.00111839675           
       0.184392              0.0170865592              0.0011199559           
       0.185072              0.0158800765             0.00106738723           
       0.185751              0.0156973219             0.00106417978           
       0.186430              0.0162347708             0.00107466418           
       0.187109              0.0161653784             0.00108430768           
       0.187788              0.0163112916             0.00108650505           
       0.188467              0.0165599076             0.00108179852           
       0.189147              0.0168276372             0.00110155185           
       0.189826              0.0149319815             0.00101930331           
       0.190505              0.0164366576             0.00108703203           
       0.191184              0.0153997381             0.00103702096           
       0.191863              0.0162956749             0.00106900812           
       0.192542              0.0180451061             0.00113553587           
       0.193222              0.0168756937             0.00107351627           
       0.193901              0.0176054971             0.00111117994           
       0.194580              0.0163781784             0.00105300134           
       0.195259              0.0171506034             0.00108992144           
       0.195938              0.0150501856             0.00102343899           
       0.196617              0.0157792082             0.00103330558           
       0.197297              0.0173359597              0.0010875013           
       0.197976               0.017069172             0.00106252551           
       0.198655              0.0156234758             0.00102763756           
       0.199334              0.0158794002             0.00102688376           
       0.200013              0.0156661967             0.00101940124           
       0.200692              0.0145839908            0.000989477696           
       0.201371              0.0162802198              0.0010336633           
       0.202051              0.0173829606             0.00107141887           
       0.202730              0.0153529848            0.000996860386           
       0.203409               0.014775662            0.000984502909           
       0.204088              0.0151792656            0.000996754666           
       0.204767              0.0159337377             0.00101585826           
       0.205446              0.0169051511             0.00104841116           
       0.206126              0.0161196522              0.0010098552           
       0.206805              0.0150347217            0.000993158502           
       0.207484              0.0154939484            0.000990086945           
       0.208163              0.0167699723             0.00103624001           
       0.208842              0.0147832732            0.000970288824           
       0.209521              0.0138980097            0.000932970015           
       0.210201              0.0157521565             0.00100434041           
       0.210880              0.0157473113            0.000984480752           
       0.211559              0.0140158487            0.000942513954           
       0.212238              0.0152351568            0.000977655839           
       0.212917              0.0146201655             0.00095416193           
       0.213596              0.0141138539            0.000943037833           
       0.214276              0.0155711869            0.000969892725           
       0.214955              0.0149192336            0.000969335916           
       0.215634              0.0156277812            0.000984976662           
       0.216313              0.0169828366              0.0010246357           
       0.216992              0.0184639435             0.00106811453           
       0.217671              0.0141267793            0.000927951853           
       0.218351              0.0138600123            0.000928137884           
       0.219030              0.0158070914              0.0009755438           
       0.219709              0.0172485129             0.00102540925           
       0.220388              0.0159725975            0.000985486976           
       0.221067              0.0155619237            0.000973506671           
       0.221746              0.0159181979            0.000983578782           
       0.222426              0.0143593508            0.000920216744           
       0.223105              0.0153681468            0.000964961857           
       0.223784              0.0144102334            0.000925135943           
       0.224463              0.0151184461            0.000955143217           
       0.225142               0.014360585            0.000916166524           
       0.225821              0.0135337421              0.0008929829           
       0.226500              0.0134041408            0.000894347591           
       0.227180              0.0135621712            0.000885744633           
       0.227859               0.014509702            0.000920273932           
       0.228538              0.0155708784            0.000943759703           
       0.229217               0.015373129            0.000945170457           
       0.229896              0.0130387374            0.000870036836           
       0.230575              0.0149091849            0.000915520558           
       0.231255              0.0162826852            0.000971086948           
       0.231934              0.0149239083            0.000923334629           
       0.232613              0.0133159107            0.000875392089           
       0.233292               0.015089669            0.000922870038           
       0.233971              0.0142059913            0.000895022062           
       0.234650              0.0136352858            0.000887173639           
       0.235330              0.0125007199            0.000842044342           
       0.236009              0.0148625578            0.000916172153           
       0.236688              0.0160385729            0.000948322745           
       0.237367              0.0152504954            0.000926073806           
       0.238046              0.0144962014            0.000909239979           
       0.238725              0.0131607666            0.000852981413           
       0.239405              0.0137133342            0.000876103144           
       0.240084              0.0135402952            0.000865014752           
       0.240763              0.0155538801            0.000935982086           
       0.241442              0.0148880813            0.000902827124           
       0.242121               0.013906931            0.000874218279           
       0.242800              0.0153103097            0.000921610488           
       0.243480              0.0151325436            0.000911954395           
       0.244159              0.0138031901            0.000871398844           
       0.244838              0.0133586982            0.000843147784           
       0.245517              0.0146095905            0.000894423696           
       0.246196              0.0140262954            0.000876809255           
       0.246875              0.0134432805            0.000846427367           
       0.247554              0.0134880659            0.000856452848           
       0.248234              0.0126069458            0.000815450989           
       0.248913              0.0129928946            0.000837124957           
       0.249592              0.0128479625            0.000824532715           
       0.250271              0.0150250486             0.00088906969           
       0.250950              0.0136296381            0.000851965278           
       0.251629              0.0131309829            0.000829127531           
       0.252309              0.0144480523            0.000871480966           
       0.252988              0.0145425722            0.000859266286           
       0.253667              0.0131323251            0.000826081294           
       0.254346              0.0142306719            0.000859756162           
       0.255025              0.0134426679            0.000833782821           
       0.255704               0.012892354            0.000812798032           
       0.256384              0.0126924828            0.000803682965           
       0.257063              0.0146081609            0.000867118237           
       0.257742              0.0127241288            0.000803664813           
       0.258421              0.0141891824            0.000847037911           
       0.259100              0.0126121315            0.000799972561           
       0.259779              0.0126880639            0.000801696926           
       0.260459              0.0126496812            0.000802055376           
       0.261138              0.0133502413            0.000807863458           
       0.261817              0.0118295927             0.00077581397           
       0.262496              0.0131467672            0.000809845144           
       0.263175              0.0130548139            0.000808741348           
       0.263854              0.0136644739            0.000823565912           
       0.264534              0.0119775411             0.00076447026           
       0.265213              0.0135179377            0.000824940427           
       0.265892              0.0124371453            0.000781137868           
       0.266571               0.011290349            0.000742561237           
       0.267250              0.0136870196            0.000818962511           
       0.267929              0.0124284836            0.000779602282           
       0.268609              0.0125703411            0.000788331658           
       0.269288              0.0126248244            0.000776913943           
       0.269967              0.0122307139            0.000772930289           
       0.270646              0.0130789045               0.000795827           
       0.271325              0.0122113576            0.000770264182           
       0.272004              0.0125802166            0.000774017647           
       0.272683              0.0129498815            0.000786277752           
       0.273363              0.0118448751            0.000756779599           
       0.274042              0.0115242017            0.000742061143           
       0.274721              0.0122359167             0.00076417876           
       0.275400              0.0103595453            0.000698492931           
       0.276079              0.0108448432            0.000718724342           
       0.276758              0.0110447758             0.00073447243           
       0.277438              0.0122716519             0.00076550135           
       0.278117              0.0114906769            0.000754211895           
       0.278796              0.0119400913            0.000761015734           
       0.279475              0.0125462128            0.000792979271           
       0.280154              0.0110588159            0.000733782659           
       0.280833              0.0111466549            0.000741171109           
       0.281513              0.0122774544            0.000790061637           
       0.282192              0.0108986501            0.000731678047           
       0.282871              0.0122218293            0.000780235994           
       0.283550              0.0114275932            0.000758501446           
       0.284229              0.0106984302            0.000744682791           
       0.284908              0.0115790938            0.000782898388           
       0.285588              0.0118192227            0.000781712287           
       0.286267               0.010440527            0.000746470109           
       0.286946              0.0119221781            0.000792493201           
       0.287625              0.0121460351            0.000813518376           
       0.288304             0.00990407306            0.000724777863           
       0.288983              0.0116797712            0.000797040498           
       0.289663               0.011386384            0.000791572289           
       0.290342              0.0122236152            0.000815792139           
       0.291021             0.00875710055             0.00069421393           
       0.291700                0.01022121            0.000740207508           
       0.292379              0.0092034364            0.000718470333           
       0.293058             0.00907964407            0.000710926444           
       0.293738              0.0101845176            0.000746617451           
       0.294417             0.00952498491            0.000730430397           
       0.295096              0.0103626344            0.000753496101           
       0.295775              0.0124810627            0.000839564548           
       0.296454              0.0097446444            0.000732246515           
       0.297133             0.00972958958            0.000735142238           
       0.297812             0.00988540197            0.000744721754           
       0.298492             0.00924990009             0.00072177807           
       0.299171              0.0103786636            0.000763103524           
       0.299850             0.00985114851            0.000738380776           
       0.300529              0.0115584495            0.000808819266           
       0.301208              0.0100367793            0.000755534676           
       0.301887              0.0100067443             0.00075350689           
       0.302567             0.00967195188            0.000737084577           
       0.303246             0.00951603729            0.000735892772           
       0.303925              0.0097756963            0.000755441889           
       0.304604             0.00916431756            0.000715643758           
       0.305283             0.00974215497            0.000748803977           
       0.305962             0.00985210283            0.000748468449           
       0.306642              0.0084307179            0.000701778349           
       0.307321             0.00988969351            0.000757652562           
       0.308000             0.00903170732            0.000715459502           
       0.308679             0.00907159186            0.000732565397           
       0.309358             0.00941378711             0.00073615962           
       0.310037             0.00978462715            0.000752191642           
       0.310717             0.00677543735            0.000625326722           
       0.311396             0.00921996789            0.000734354838           
       0.312075             0.00866010139            0.000720734771           
       0.312754             0.00934862286            0.000733856975           
       0.313433             0.00852617258            0.000706928396           
       0.314112             0.00695078065            0.000638139251           
       0.314792              0.0078112969            0.000681265393           
       0.315471             0.00801820813            0.000681693547           
       0.316150             0.00958355903            0.000752167904           
       0.316829             0.00823731558            0.000701944383           
       0.317508             0.00774443089            0.000672982461           
       0.318187              0.0071140665            0.000653520998           
       0.318866             0.00989930007            0.000760523518           
       0.319546              0.0101418956            0.000781324806           
       0.320225             0.00780057225            0.000685241674           
       0.320904              0.0067417465            0.000627190102           
       0.321583             0.00888174749            0.000735745876           
       0.322262             0.00772626394            0.000675819723           
       0.322941             0.00896269469            0.000737214862           
       0.323621             0.00775545113            0.000681584644           
       0.324300             0.00806921704            0.000695780446           
       0.324979             0.00823024206            0.000703958844           
       0.325658             0.00656386105            0.000629807493           
       0.326337             0.00713193019            0.000657352284           
       0.327016             0.00821412743            0.000700986069           
       0.327696             0.00842315714            0.000717744014           
       0.328375             0.00730818693            0.000662913195           
       0.329054             0.00897440157            0.000738590493           
       0.329733             0.00794367825            0.000697420848           
       0.330412             0.00755977644            0.000674785135           
       0.331091             0.00666956246            0.000645307886           
       0.331771             0.00791209706            0.000684435318           
       0.332450             0.00766702745            0.000686833116           
       0.333129             0.00702118098            0.000655572466           
       0.333808             0.00746434639            0.000676838639           
       0.334487             0.00779875713            0.000695114281           
       0.335166             0.00861732384             0.00071999043           
       0.335846             0.00813149229             0.00071169072           
       0.336525              0.0085805985            0.000723862113           
       0.337204             0.00765645975            0.000685564199           
       0.337883             0.00717431063            0.000664506926           
       0.338562             0.00665320444            0.000643469902           
       0.339241             0.00773493316             0.00069511094           
       0.339921             0.00727888341            0.000662999783           
       0.340600              0.0055719186            0.000591089861           
       0.341279              0.0074658219             0.00067688408           
       0.341958             0.00642833474            0.000636955447           
       0.342637              0.0074770065            0.000677243108           
       0.343316             0.00689112621            0.000652050731           
       0.343995             0.00763161645             0.00069742605           
       0.344675             0.00673726874             0.00064324473           
       0.345354             0.00608901266            0.000615549582           
       0.346033             0.00538224207            0.000577215025           
       0.346712              0.0067024902            0.000648240938           
       0.347391             0.00563796763            0.000598219299           
       0.348070             0.00565827946            0.000590785046           
       0.348750             0.00632780161            0.000633788203           
       0.349429              0.0062966231            0.000624062961           
       0.350108             0.00582423167            0.000607419527           
       0.350787             0.00645646396            0.000628673619           
       0.351466             0.00728888951            0.000680277309           
       0.352145             0.00744510002            0.000688098815           
       0.352825             0.00596838523            0.000613299125           
       0.353504             0.00616752181            0.000623293717           
       0.354183              0.0056559025            0.000590005092           
       0.354862             0.00477562837            0.000554748891           
       0.355541              0.0053315864             0.00057847435           
       0.356220             0.00623196391            0.000626596421           
       0.356900             0.00565323906            0.000602462148           
       0.357579             0.00625362383            0.000625876686           
       0.358258             0.00603638801            0.000623419318           
       0.358937             0.00537194054            0.000577051607           
       0.359616               0.005614702             0.00059818439           
       0.360295              0.0046567815            0.000545225673           
       0.360975             0.00474183049            0.000547829005           
       0.361654             0.00601047873            0.000619954468           
       0.362333             0.00625935149            0.000629442427           
       0.363012             0.00532481763            0.000588025066           
       0.363691              0.0054747097            0.000584480642           
       0.364370               0.005617205            0.000599382747           
       0.365050              0.0042974129            0.000521455772           
       0.365729             0.00496801385            0.000566013416           
       0.366408             0.00486248949             0.00056120976           
       0.367087             0.00594873444            0.000610781891           
       0.367766             0.00457898685            0.000547034206           
       0.368445             0.00492025632            0.000556985213           
       0.369124             0.00620848853            0.000630581321           
       0.369804             0.00485203086            0.000556563171           
       0.370483             0.00488160962            0.000560699641           
       0.371162             0.00502527258            0.000572188602           
       0.371841             0.00546809419            0.000586460054           
       0.372520             0.00492176417            0.000567544622           
       0.373199             0.00497491512             0.00056378372           
       0.373879             0.00438777289            0.000535600627           
       0.374558             0.00457126464            0.000538707623           
       0.375237             0.00452852808            0.000537062485           
       0.375916             0.00404078388            0.000517035473           
       0.376595             0.00425023259            0.000519902313           
       0.377274              0.0046721929            0.000553824886           
       0.377954             0.00553158911            0.000593144554           
       0.378633             0.00568266904            0.000608787428           
       0.379312              0.0049525296            0.000568189732           
       0.379991             0.00451263133            0.000539561691           
       0.380670             0.00449905861            0.000548271914           
       0.381349             0.00415385242             0.00051925389           
       0.382029              0.0044141526            0.000542945733           
       0.382708             0.00491057963            0.000560157561           
       0.383387             0.00321919774            0.000463820449           
       0.384066             0.00525757813            0.000587307716           
       0.384745             0.00390648227            0.000508240964           
       0.385424               0.003809207            0.000503577795           
       0.386104             0.00358703858             0.00048327152           
       0.386783             0.00491088001            0.000577692096           
       0.387462             0.00567833766            0.000605740786           
       0.388141              0.0042039786            0.000529526944           
       0.388820             0.00407578236            0.000517621761           
       0.389499             0.00479891562              0.0005648285           
       0.390178             0.00323530166              0.0004656166           
       0.390858             0.00396270505            0.000511138352           
       0.391537             0.00432176979            0.000539244383           
       0.392216             0.00413758713            0.000521015282           
       0.392895             0.00509645065            0.000580191586           
       0.393574              0.0040084445            0.000513272036           
       0.394253             0.00372886734            0.000497276029           
       0.394933             0.00394442611            0.000517291825           
       0.395612             0.00505995996            0.000568872913           
       0.396291             0.00500554199            0.000577324695           
       0.396970             0.00314509583            0.000453572339           
       0.397649             0.00500080822            0.000573699927           
       0.398328             0.00399657326             0.00051061718           
       0.399008             0.00364578938            0.000486634001           
       0.399687             0.00471643458            0.000555647354           
       0.400366             0.00422822374            0.000524091421           
       0.401045             0.00395028321            0.000505615391           
       0.401724             0.00369783347            0.000490009118           
       0.402403             0.00317935229            0.000457901022           
       0.403083             0.00424033036            0.000521187723           
       0.403762             0.00420673265            0.000521678694           
       0.404441             0.00374777274            0.000495535223           
       0.405120             0.00494707452            0.000567460492           
       0.405799             0.00477605138            0.000555143272           
       0.406478             0.00411938949            0.000515582206           
       0.407158             0.00372983429            0.000489677812           
       0.407837             0.00423890166            0.000526633834           
       0.408516             0.00441197791            0.000532603614           
       0.409195             0.00438278108            0.000536860206           
       0.409874             0.00251310931            0.000412185588           
       0.410553             0.00366727747            0.000503274496           
       0.411233             0.00424298007            0.000538533044           
       0.411912             0.00277212426            0.000441462274           
       0.412591             0.00321336446            0.000478445041           
       0.413270              0.0034264763            0.000491708563           
       0.413949             0.00385821864             0.00052746663           
       0.414628             0.00305764338            0.000468721133           
       0.415307             0.00306456965            0.000474471446           
       0.415987             0.00372727855            0.000518952494           
       0.416666             0.00296624086            0.000460165475           
       0.417345             0.00322495507            0.000487826247           
       0.418024             0.00313855226            0.000481259233           
       0.418703             0.00341942847            0.000501409517           
       0.419382             0.00265431017            0.000439600529           
       0.420062             0.00288949888            0.000459947997           
       0.420741             0.00315721482            0.000483340302           
       0.421420             0.00288762913            0.000463997452           
       0.422099               0.003177085            0.000486710364           
       0.422778             0.00246510025             0.00043104138           
       0.423457             0.00371561095            0.000532435364           
       0.424137             0.00218847687            0.000401963758           
       0.424816             0.00191030724            0.000383398511           
       0.425495             0.00275605219            0.000460078022           
       0.426174             0.00282203705            0.000465716007           
       0.426853             0.00218228311            0.000407051439           
       0.427532              0.0030685687            0.000486763576           
       0.428212             0.00273353467            0.000462455433           
       0.428891             0.00334244911            0.000510212468           
       0.429570             0.00255664437            0.000446530028           
       0.430249             0.00307265278            0.000486980467           
       0.430928             0.00298092411            0.000490145239           
       0.431607             0.00131892239            0.000320429052           
       0.432287             0.00376271521            0.000545182759           
       0.432966             0.00225711549            0.000425962817           
       0.433645             0.00201030485             0.00040241953           
       0.434324             0.00189651419            0.000388508319           
       0.435003             0.00207928802            0.000407493537           
       0.435682             0.00218898872             0.00042153394           
       0.436361             0.00324040056            0.000512186947           
       0.437041             0.00266526829            0.000463894961           
       0.437720              0.0015550313            0.000356047953           
       0.438399             0.00215679241             0.00042150573           
       0.439078             0.00237485781            0.000455127085           
       0.439757              0.0025940043            0.000472732537           
       0.440436             0.00227982788            0.000453168832           
       0.441116             0.00200027934            0.000431418201           
       0.441795             0.00312585514            0.000539958627           
       0.442474             0.00238618608            0.000473083205           
       0.443153             0.00213638334            0.000458079136           
       0.443832             0.00234703654            0.000480941514           
       0.444511             0.00192850346            0.000433991555           
       0.445191             0.00295244767            0.000550046217           
       0.445870             0.00162671919            0.000408297041           
       0.446549             0.00229168907            0.000489726359           
       0.447228             0.00206088244            0.000461786525           
       0.447907             0.00265150194            0.000530079309           
       0.448586             0.00299856065            0.000577267558           
       0.449266             0.00207679747            0.000475997399           
       0.449945             0.00173273068            0.000433010076           
       0.450624             0.00296675791            0.000575593785           
       0.451303             0.00219828805            0.000501892629           
       0.451982             0.00284409374            0.000567345184           
       0.452661             0.00191263667            0.000473923404           
       0.453341             0.00334703199            0.000629131088           
       0.454020             0.00205743396            0.000494009706           
       0.454699             0.00209404581             0.00050293763           
       0.455378             0.00221510221            0.000517548351           
       0.456057             0.00167240267            0.000457699364           
       0.456736             0.00191614017            0.000488390413           
       0.457416             0.00314191879            0.000625407812           
       0.458095             0.00197828575            0.000503443124           
       0.458774            0.000994173462            0.000361608734           
       0.459453             0.00125887992            0.000408963772           
       0.460132            0.000568981002            0.000269004631           
       0.460811             0.00104363875            0.000377915203           
       0.461490             0.00235393025            0.000561793191           
       0.462170             0.00134235396            0.000430862007           
       0.462849             0.00163964953            0.000479278437           
       0.463528             0.00148181631             0.00045457054           
       0.464207             0.00169567667            0.000495366539           
       0.464886             0.00136976151            0.000441756239           
       0.465565             0.00157980044            0.000479629729           
       0.466245             0.00231748397            0.000582718659           
       0.466924            0.000901914871            0.000372111317           
       0.467603             0.00129825257            0.000436977276           
       0.468282             0.00183341782            0.000531604009           
       0.468961             0.00123251615            0.000438730177           
       0.469640             0.00156502814            0.000496353822           
       0.470320            0.000152622764            0.000155110079           
       0.470999            0.000801178534              0.0003587336           
       0.471678                0.00131334            0.000463714334           
       0.472357             0.00195626444            0.000567526901           
       0.473036             0.00167474099            0.000528419935           
       0.473715             0.00154542024            0.000511579186           
       0.474395             0.00122908305            0.000462532648           
       0.475074            0.000724766917            0.000355192353           
       0.475753            0.000536450387            0.000302946217           
       0.476432            0.000940188929            0.000415659988           
       0.477111            0.000742276125             0.00036486275           
       0.477790             0.00128301728            0.000482255604           
       0.478470             0.00152069871            0.000531971329           
       0.479149             0.00192668018            0.000604979139           
       0.479828             0.00154504072            0.000540482928           
       0.480507             0.00100925502            0.000440351853           
       0.481186             0.00107407691            0.000464513521           
       0.481865            6.20147955e-05            0.000110234304           
       0.482545            0.000279778788             0.00023689076           
       0.483224             0.00027627209            0.000237010009           
       0.483903             0.00197056007             0.00064295501           
       0.484582            0.000313647304            0.000260682665           
       0.485261            0.000481547198            0.000314822574           
       0.485940            0.000125908497             0.00016747481           
       0.486619            9.86858364e-05             0.00014663767           
       0.487299            0.000801825851            0.000424645948           
       0.487978           -0.000106271991                         0           
       0.488657           -8.39553634e-05                         0           
       0.489336            0.000136075288            0.000177136714           
       0.490015           -0.000318464813                         0           
       0.490694            -0.00031848411                         0           
       0.491374            0.000168727434            0.000201805566           
       0.492053           -6.48424218e-05                         0           
       0.492732           -0.000318541967                         0           
       0.493411           -0.000318561479                         0           
       0.494090           -8.02611016e-05                         0           
       0.494769            -0.00031860038                         0           
       0.495449           -5.49904824e-05                         0           
       0.496128            0.000216484117            0.000240896013           
       0.496807           -3.38002976e-05                         0           
       0.497486            0.000216893157            0.000240867732           
       0.498165            0.000252910018            0.000267401252           
       0.498844            0.000246437675            0.000264278882           
       0.499524           -0.000318737441                         0           
       0.500203           -0.000318757383                         0           
       0.500882           -2.35076951e-05                         0           
       0.501561           -2.16471031e-05                         0           
       0.502240             0.00056203806            0.000407482824           
       0.502919           -3.48951321e-06                         0           
       0.503599           -1.66109828e-05                         0           
       0.504278           -0.000318876206                         0           
       0.504957           -0.000318896111                         0           
       0.505636            -0.00031891589                         0           
       0.506315           -0.000318935994                         0           
       0.506994            0.000699496261            0.000486426634           
       0.507673           -0.000318975443                         0           
       0.508353           -0.000318995563                         0           
       0.509032           -0.000319015597                         0           
       0.509711           -0.000319035639                         0           
       0.510390           -0.000319055996                         0           
       0.511069           -0.000319076286                         0           
       0.511748           -0.000319096494                         0           
       0.512428           -0.000319116846                         0           
       0.513107           -0.000319136885                         0           
       0.513786           -0.000319156986                         0           
       0.514465           -0.000319177431                         0           
       0.515144           -0.000319197861                         0           
       0.515823            0.000470292835            0.000432826759           
       0.516503            0.000514527531            0.000464500651           
       0.517182            0.000494224878            0.000456864518           
       0.517861            0.000107646766            0.000213983133           
       0.518540           -0.000319299853                         0           
       0.519219           -0.000319320232                         0           
       0.519898           -0.000319340818                         0           
       0.520578            0.000124378436             0.00023511725           
       0.521257           -0.000319381968                         0           
       0.521936           -0.000319402458                         0           
       0.522615           -0.000319423194                         0           
       0.523294           -0.000319444007                         0           
       0.523973           -0.000319464532                         0           
       0.524653           -0.000319484909                         0           
       0.525332           -0.000319505583                         0           
       0.526011           -0.000319526629                         0           
       0.526690           -0.000319547635                         0           
       0.527369            0.000211641805            0.000334715064           
       0.528048            0.000185682719            0.000306164319           
       0.528728           -0.000319610403                         0           
       0.529407           -0.000319631261                         0           
       0.530086           -0.000319652013                         0           
       0.530765            0.000250940826            0.000379063656           
       0.531444            0.000196880542            0.000319381167           
       0.532123           -0.000319715174                         0           
       0.532802            0.000211699207            0.000338615079           
       0.533482           -0.000319757506                         0           
       0.534161            0.000819499186            0.000681874691           
       0.534840           -0.000319799651                         0           
       0.535519           -0.000319821022                         0           
       0.536198           -0.000319842172                         0           
       0.536877            -0.00031986303                         0           
       0.537557           -0.000319884246                         0           
       0.538236           -0.000319905654                         0           
       0.538915           -0.000319927055                         0           
       0.539594           -0.000319948426                         0           
       0.540273           -0.000319970131                         0           
       0.540952           -0.000319991595                         0           
       0.541632           -0.000320012666                         0           
       0.542311           -0.000320033931                         0           
       0.542990           -0.000320055434                         0           
       0.543669           -0.000320077116                         0           
       0.544348           -0.000320098773                         0           
       0.545027           -0.000320120383                         0           
       0.545707           -0.000320142058                         0           
       0.546386           -0.000320163794                         0           
       0.547065            -0.00032018527                         0           
       0.547744            0.000450214694            0.000588179153           
       0.548423            0.000396999371            0.000532251817           
       0.549102           -0.000320250486                         0           
       0.549782           -0.000320272209                         0           
       0.550461            0.000491498915            0.000635339964           
       0.551140            0.000441244796            0.000582389867           
       0.551819            0.000510870896            0.000654543759           
       0.552498           -0.000320360192                         0           
       0.553177           -0.000320381853                         0           
       0.553856            -0.00032040359                         0           
       0.554536             -0.0003204254                         0           
       0.555215           -0.000320447541                         0           
       0.555894           -0.000320469631                         0           
       0.556573           -0.000320491852                         0           
       0.557252           -0.000320514055                         0           
       0.557931           -0.000320536156                         0           
       0.558611           -0.000320558775                         0           
       0.559290           -0.000320580818                         0           
       0.559969           -0.000320602319                         0           
       0.560648            -0.00032062439                         0           
       0.561327           -0.000320646953                         0           
       0.562006           -0.000320669412                         0           
       0.562686           -0.000320691882                         0           
       0.563365           -0.000320714436                         0           
       0.564044           -0.000320736876                         0           
       0.564723           -0.000320759267                         0           
       0.565402            -0.00032078124                         0           
       0.566081           -0.000320803359                         0           
       0.566761           -0.000320825716                         0           
       0.567440           -0.000320848528                         0           
       0.568119            -0.00032087116                         0           
       0.568798           -0.000320894109                         0           
       0.569477           -0.000320916911                         0           
       0.570156           -0.000320939824                         0           
       0.570836           -0.000320962651                         0           
       0.571515           -0.000320984995                         0           
       0.572194           -0.000321007987                         0           
       0.572873           -0.000321030453                         0           
       0.573552           -0.000321052786                         0           
       0.574231           -0.000321075573                         0           
       0.574911           -0.000321098934                         0           
       0.575590           -0.000321121845                         0           
       0.576269           -0.000321144686                         0           
       0.576948              0.0015372919             0.00168629826           
       0.577627           -0.000321190537                         0           
       0.578306           -0.000321213425                         0           
       0.578985           -0.000321236509                         0           
       0.579665           -0.000321259461                         0           
       0.580344           -0.000321282759                         0           
       0.581023           -0.000321306032                         0           
       0.581702           -0.000321329091                         0           
       0.582381           -0.000321351939                         0           
       0.583060           -0.000321375469                         0           
       0.583740            -0.00032139863                         0           
       0.584419           -0.000321421867                         0           
       0.585098           -0.000321445077                         0           
       0.585777           -0.000321468468                         0           
       0.586456           -0.000321492239                         0           
       0.587135           -0.000321515378                         0           
       0.587815           -0.000321538268                         0           
       0.588494             0.00349773798             0.00368546128           
       0.589173           -0.000321586015                         0           
       0.589852           -0.000321608876                         0           
       0.590531             -0.0003216326                         0           
       0.591210           -0.000321655776                         0           
       0.591890             -0.0003216794                         0           
       0.592569           -0.000321702234                         0           
       0.593248           -0.000321727197                         0           
       0.593927           -0.000321750932                         0           
       0.594606           -0.000321775155                         0           
       0.595285           -0.000321797934                         0           
       0.595965           -0.000321819191                         0           
       0.596644           -0.000321841066                         0           
