################################################################################
# EDF_DataBlockID                     0.Image.Psd
# EDF_BinarySize                      4366944
# EDF_HeaderSize                      2560
# ByteOrder                           LowByteFirst
# DataType                            FloatValue
# Dim_1                               1028
# Dim_2                               1062
# Image                               0
# HeaderID                            EH:000000:000000:000000
# Size                                4366944
# Center_1                            607.5200
# Center_2                            651.5500
# Comment                             Xenocs_Cell_Window - 20251028_20perc_iodine_1.23mg
# DDummy                              0.6
# Date                                2025-10-29T06:26:44
# Delta                               0
# Dummy                               -1.5
# ExposureTime                        360
# Gamma                               0
# Intensity1                          8.48647e-10
# PSize_1                             7.5e-05
# PSize_2                             7.5e-05
# Pressure                            0.0333557
# SampleDistance                      0.450002
# SampleEnvKind                       large
# SampleEnvPN                         ElectroChemical cell
# SampleEnvSN                         1141
# Thickness                           0
# Wavelength                          1.541891e-10
# Wavelength                          1.54189e-10
# aux                                 0
# aux_dial                            0.002375
# beamx                               588.434
# beamx_dial                          588.434
# beamz                               657.808
# beamz_dial                          657.808
# det0x                               0
# det0x_dial                          6.36945
# det0xvd                             0
# det0xvd_dial                        0
# det0y                               450.002
# det0y_dial                          481.635
# det0z                               0
# det0z_dial                          1.23302
# det0zvd                             0
# det0zvd_dial                        0
# mag                                 1.818
# mag_dial                            1.818
# om                                  0.2499
# om_dial                             -0.610199
# phi                                 -0.0120535
# phi_dial                            0
# ry                                  0.599993
# ry_dial                             0.599993
# s1bot                               0.8
# s1bot_dial                          -1.66094
# s1hl                                0.8
# s1hl_dial                           -0.608437
# s1hr                                0.8
# s1hr_dial                           0.970938
# s1top                               0.8
# s1top_dial                          -0.461562
# s2bot                               0.45
# s2bot_dial                          1.36109
# s2hl                                0.45
# s2hl_dial                           -0.83375
# s2hr                                0.45
# s2hr_dial                           -0.118594
# s2top                               0.45
# s2top_dial                          1.44734
# w2theta                             32
# w2theta_dial                        32
# waxsch                              19.2605
# waxsch_dial                         -32.7355
# waxsh                               137.085
# waxsh_dial                          -43.5338
# waxsth                              26.0607
# waxsth_dial                         -19.4086
# waxsz                               67.0407
# waxsz_dial                          -23.7954
# wind                                65.9854
# wind_dial                           66.0041
# wpsi                                124
# wpsi_dial                           124
# wstod                               115
# wstod_dial                          115
# x                                   0
# x_dial                              1.00969
# z                                   0
# z_dial                              13.3172
# CountCutoff                         15302352
# DetectorModel                       Dectris EIGER2 Si 1M, S/N E-02-0362
# ThresholdSetting                    4023.88989258
# Saturation                          0
# FlatField                           Corrected
# BackgroundReductionExtra            0.02
# BackgroundCorrectionConstant        0.0026712
# Detector                            0
# Monitor                             0
# Pil_Roi0                            0
# SumForIntensity1                    3.05513e+08
# TransmittedFlux                     848647
# det                                 0
# mon                                 0
# pilai0                              3.05513e+08
# pilai1                              771021
# pilct0                              5.29696e+08
# pilct1                              771021
# pilroi0                             0
# pilroi1                             0
# sec                                 1
# title                               20251028_20perc_iodine_1.23mg_0_00146.edf
# usaxs0                              0
# Operation                           Azimuthal average I(q)
# Error_model                         ErrorModel.poisson
# Geometrical_correction              True
# Transmission_correction             True
# Thickness_correction                False
# Binning mode                        Uniform
# Binning factor                      1.0
# Psi                                 0.0
# Omega                               0.2499
# MaskInvalidPixels                   True
# DetectorEdge                        3
# MaskFiles                           ['20251028_20perc_iodine_1.23mg_0_00012_mask.edf']
################################################################################
    q(A⁻¹)                Intensity(a.u.)            Sigma_I(a.u.)            
       0.000340                  371383.5                120.778344           
       0.001019                359349.354                72.7531583           
       0.001698                350332.345                50.7947202           
       0.002377                330741.285                44.1435954           
       0.003056                307232.742                35.9578155           
       0.003735                253644.889                28.8137952           
       0.004415                205640.995                 25.944324           
       0.005094                153877.973                19.4359822           
       0.005773                101659.679                14.6257918           
       0.006452                59215.2757                10.6952555           
       0.007131                32390.2558                7.66284235           
       0.007810                 16183.827                 5.3753682           
       0.008490                 8059.3086                3.36239738           
       0.009169                3844.64322                2.29519097           
       0.009848                1178.52535                1.22861507           
       0.010527                453.491234               0.762133558           
       0.011206                115.567874               0.367196649           
       0.011885                53.6327787               0.232414577           
       0.012564                25.0001378               0.162911291           
       0.013244                16.9160353               0.125282165           
       0.013923                12.7950331               0.110715984           
       0.014602                9.51750771              0.0885597052           
       0.015281                7.44022751              0.0797070113           
       0.015960                 6.0404006              0.0713037247           
       0.016639                5.06959861              0.0616851684           
       0.017319                4.33376283              0.0561460637           
       0.017998                3.42796914              0.0477723449           
       0.018677                2.93316346              0.0457689964           
       0.019356                2.63581486              0.0428706247           
       0.020035                2.21628081              0.0368814521           
       0.020714                1.91517933              0.0346475537           
       0.021394                1.64057601              0.0303414188           
       0.022073                 1.4744463              0.0299268871           
       0.022752                1.33647466               0.027255927           
       0.023431                1.16495642              0.0247008971           
       0.024110                1.06000275              0.0245650748           
       0.024789                0.90407281              0.0210691249           
       0.025469               0.833048282              0.0208416429           
       0.026148                0.77724752              0.0189152233           
       0.026827               0.705713692              0.0183122173           
       0.027506               0.638830328              0.0176741058           
       0.028185               0.534537814              0.0154177222           
       0.028864               0.540884575              0.0154219612           
       0.029544               0.485458851               0.014168024           
       0.030223               0.465858171              0.0140780752           
       0.030902               0.423260826              0.0135418091           
       0.031581               0.395977816              0.0124511684           
       0.032260               0.348762548              0.0118843985           
       0.032939               0.325239742              0.0110659648           
       0.033619               0.286056101              0.0105305087           
       0.034298               0.299512215              0.0104861531           
       0.034977               0.260314248             0.00958380816           
       0.035656               0.237702763              0.0094004967           
       0.036335               0.223351612             0.00883779355           
       0.037014               0.217848612             0.00875427574           
       0.037693               0.202141722             0.00811222389           
       0.038373               0.201698065             0.00818283789           
       0.039052               0.181639353             0.00779833565           
       0.039731               0.174327952             0.00746173201           
       0.040410                0.17620728             0.00745154814           
       0.041089               0.145561682             0.00666655343           
       0.041768               0.136332748             0.00648546317           
       0.042448               0.138199899             0.00647905551           
       0.043127               0.133839653             0.00622543977           
       0.043806               0.137217584             0.00635051145           
       0.044485               0.123728701             0.00590641923           
       0.045164               0.114879809             0.00580346256           
       0.045843               0.107390229             0.00538172182           
       0.046523               0.116849156              0.0056331167           
       0.047202               0.104995212             0.00537706061           
       0.047881               0.106394231             0.00530838433           
       0.048560               0.101698693             0.00523722897           
       0.049239               0.093962212             0.00483362947           
       0.049918              0.0905028874             0.00483655395           
       0.050598              0.0950715775             0.00488275579           
       0.051277              0.0783923246             0.00441973403           
       0.051956              0.0865693629             0.00461536085           
       0.052635              0.0852235681             0.00448216222           
       0.053314              0.0841147691             0.00458309902           
       0.053993              0.0729567747             0.00415124208           
       0.054673              0.0771420223              0.0041735656           
       0.055352              0.0680176797             0.00397654037           
       0.056031              0.0741524401             0.00406475941           
       0.056710              0.0803718133             0.00433548872           
       0.057389              0.0699803162             0.00390113757           
       0.058068              0.0692474545             0.00392065979           
       0.058748              0.0769313295             0.00418401086           
       0.059427              0.0639079378             0.00374888944           
       0.060106              0.0629267843             0.00375520897           
       0.060785                0.06611431             0.00373381392           
       0.061464              0.0713152088             0.00397136635           
       0.062143              0.0598994117             0.00360268205           
       0.062822              0.0603428863              0.0035735611           
       0.063502              0.0578500132             0.00349271614           
       0.064181              0.0524374474             0.00329019694           
       0.064860               0.056517022             0.00346781276           
       0.065539              0.0521357859             0.00329811911           
       0.066218              0.0520456082             0.00322470799           
       0.066897              0.0499214481             0.00318259713           
       0.067577              0.0444058819             0.00303047547           
       0.068256              0.0462076805             0.00316728343           
       0.068935               0.046285167             0.00311868183           
       0.069614              0.0518613189             0.00333406353           
       0.070293              0.0482523815              0.0032456209           
       0.070972              0.0396524899             0.00292066743           
       0.071652              0.0401726078             0.00294515225           
       0.072331              0.0427156715             0.00298281556           
       0.073010              0.0409853184             0.00298853583           
       0.073689               0.038620171             0.00288508303           
       0.074368              0.0444527508             0.00308965495           
       0.075047               0.044573265             0.00306058627           
       0.075727              0.0399445252             0.00287942206           
       0.076406              0.0345567379             0.00273163668           
       0.077085              0.0420927355             0.00295846862           
       0.077764              0.0366168522             0.00274966283           
       0.078443              0.0364133103             0.00275898674           
       0.079122              0.0371650338             0.00276054297           
       0.079802              0.0387919249             0.00285022886           
       0.080481              0.0355726446             0.00263733218           
       0.081160              0.0340572229             0.00263349754           
       0.081839              0.0358533622             0.00265879044           
       0.082518              0.0385208327              0.0027582435           
       0.083197                 0.0371577             0.00266690901           
       0.083876              0.0398146103             0.00271473797           
       0.084556              0.0328676985             0.00253515573           
       0.085235              0.0327545954             0.00248189413           
       0.085914              0.0356900799             0.00261588937           
       0.086593              0.0312588164             0.00243235913           
       0.087272              0.0356921621             0.00256238978           
       0.087951              0.0288640456              0.0023563428           
       0.088631              0.0360263968             0.00254284685           
       0.089310              0.0360874228             0.00259897754           
       0.089989              0.0373147273               0.002611906           
       0.090668              0.0314524883              0.0024244458           
       0.091347              0.0299106271              0.0023775108           
       0.092026               0.033491546             0.00240470466           
       0.092706              0.0304203334             0.00237498259           
       0.093385              0.0310786977              0.0023636815           
       0.094064              0.0318833457             0.00242194832           
       0.094743              0.0294297611              0.0022914326           
       0.095422              0.0276969537             0.00219816182           
       0.096101              0.0302196981             0.00234337763           
       0.096781              0.0261520948             0.00214875611           
       0.097460              0.0254340059             0.00206124554           
       0.098139              0.0325359737             0.00231339415           
       0.098818              0.0242568319             0.00197289192           
       0.099497              0.0236120809             0.00195049187           
       0.100176              0.0277023834             0.00205724082           
       0.100856              0.0308474325              0.0021694902           
       0.101535              0.0254271951             0.00196588904           
       0.102214              0.0234602304             0.00188833308           
       0.102893              0.0276707356              0.0020274313           
       0.103572              0.0251554831             0.00190453293           
       0.104251              0.0254314691             0.00192202621           
       0.104931              0.0238353913             0.00184379562           
       0.105610              0.0233318719             0.00183199822           
       0.106289               0.026271285             0.00191162518           
       0.106968              0.0229850247             0.00179337682           
       0.107647              0.0252312745             0.00188009259           
       0.108326              0.0209157366             0.00168887333           
       0.109005              0.0277808067             0.00193415747           
       0.109685              0.0238735543             0.00177287838           
       0.110364              0.0241579218             0.00180366169           
       0.111043              0.0218085347             0.00170691999           
       0.111722              0.0241432735             0.00177401389           
       0.112401              0.0258137589             0.00183946103           
       0.113080              0.0268023462              0.0018528738           
       0.113760              0.0215292683             0.00168837164           
       0.114439              0.0198352303             0.00159745726           
       0.115118              0.0262670008             0.00182443657           
       0.115797              0.0231364092             0.00172812968           
       0.116476              0.0228346445             0.00169112698           
       0.117155              0.0226958551             0.00169957787           
       0.117835              0.0215343796             0.00162260696           
       0.118514              0.0221768503             0.00166751248           
       0.119193              0.0243323821             0.00174668506           
       0.119872              0.0242005735             0.00172016234           
       0.120551              0.0221861271             0.00163604334           
       0.121230                0.02199108             0.00161244442           
       0.121910               0.021246483             0.00160022918           
       0.122589              0.0184844695             0.00149413365           
       0.123268              0.0210018743             0.00156177574           
       0.123947              0.0231540196             0.00165045064           
       0.124626              0.0216688611             0.00157711952           
       0.125305              0.0209761427             0.00155932046           
       0.125985              0.0229335839             0.00161780244           
       0.126664              0.0206899371             0.00152199231           
       0.127343              0.0200251215              0.0015146962           
       0.128022              0.0227787189             0.00160309304           
       0.128701               0.019849972             0.00148869521           
       0.129380              0.0186014707             0.00142306848           
       0.130059              0.0204285853             0.00149478496           
       0.130739              0.0214656224             0.00154303119           
       0.131418              0.0203885908             0.00149961214           
       0.132097              0.0195238857             0.00144864744           
       0.132776              0.0200978132             0.00146314995           
       0.133455              0.0215914014             0.00152832568           
       0.134134              0.0197625794             0.00145751175           
       0.134814              0.0211357485             0.00149176703           
       0.135493              0.0210939599             0.00149632271           
       0.136172              0.0193190392             0.00142117646           
       0.136851              0.0208395817             0.00148463002           
       0.137530               0.018544371               0.001367216           
       0.138209                0.02040724             0.00145108334           
       0.138889              0.0189008275              0.0014026548           
       0.139568              0.0165165848             0.00131063807           
       0.140247              0.0194725702             0.00142123136           
       0.140926               0.019713774             0.00138911851           
       0.141605              0.0189302329             0.00139581588           
       0.142284              0.0212673568             0.00145495668           
       0.142964              0.0187143653             0.00137005743           
       0.143643              0.0193623385             0.00139181384           
       0.144322               0.020475463             0.00140131232           
       0.145001              0.0191436328             0.00138278414           
       0.145680              0.0224089714             0.00146067952           
       0.146359              0.0207514759             0.00141076349           
       0.147039              0.0190695423             0.00136351747           
       0.147718              0.0198374887              0.0013677532           
       0.148397              0.0180432166              0.0013247018           
       0.149076              0.0212167809             0.00139192218           
       0.149755              0.0206535684             0.00139452815           
       0.150434              0.0181195882             0.00130671573           
       0.151114              0.0199679615             0.00136415912           
       0.151793              0.0179292607             0.00129265723           
       0.152472              0.0159454044             0.00119751225           
       0.153151              0.0176444001             0.00127187426           
       0.153830              0.0203551857             0.00135613366           
       0.154509              0.0167794978             0.00122613598           
       0.155188              0.0178220416             0.00126318609           
       0.155868              0.0186586045             0.00128329546           
       0.156547               0.017555111             0.00125276512           
       0.157226              0.0154225773             0.00114553197           
       0.157905              0.0194794787             0.00129822526           
       0.158584              0.0182974873              0.0012559357           
       0.159263              0.0171158543             0.00121917488           
       0.159943              0.0190534451             0.00128729255           
       0.160622              0.0182973392             0.00123714691           
       0.161301              0.0170151312             0.00120896925           
       0.161980              0.0180000727             0.00122232857           
       0.162659              0.0183104965             0.00124648787           
       0.163338              0.0183860616             0.00123887671           
       0.164018              0.0187615398              0.0012448945           
       0.164697              0.0178834147             0.00123101834           
       0.165376               0.016209008              0.0011463666           
       0.166055              0.0163469592             0.00115882692           
       0.166734              0.0178066731             0.00120404209           
       0.167413               0.016058432             0.00114421018           
       0.168093              0.0151007905             0.00112006417           
       0.168772              0.0158786823             0.00111496175           
       0.169451              0.0146187471             0.00108949562           
       0.170130              0.0176845553             0.00118257371           
       0.170809              0.0172398828             0.00118154558           
       0.171488               0.016136413             0.00113268618           
       0.172168              0.0160347678             0.00111826599           
       0.172847              0.0164021809             0.00114586198           
       0.173526              0.0172973947             0.00115426885           
       0.174205              0.0188222639             0.00120961765           
       0.174884              0.0169868951              0.0011431417           
       0.175563              0.0172792906             0.00115786078           
       0.176243              0.0174834166             0.00117633556           
       0.176922              0.0173231415             0.00114041685           
       0.177601              0.0170920281             0.00114523303           
       0.178280              0.0175447666             0.00114734945           
       0.178959              0.0172805278              0.0011478354           
       0.179638              0.0169614057             0.00113391264           
       0.180317              0.0168442395             0.00112175749           
       0.180997              0.0177251958             0.00115696356           
       0.181676              0.0155531036             0.00107218681           
       0.182355              0.0159065249             0.00109081254           
       0.183034              0.0179195682             0.00113919905           
       0.183713               0.017626477             0.00114360408           
       0.184392              0.0150178921             0.00105527593           
       0.185072              0.0169080845             0.00110695722           
       0.185751              0.0154821741             0.00106219957           
       0.186430              0.0153485763             0.00105019916           
       0.187109              0.0166875456             0.00110724507           
       0.187788              0.0167079242             0.00110518949           
       0.188467               0.015172924              0.0010407346           
       0.189147               0.014261072             0.00101919524           
       0.189826              0.0158336058             0.00105492735           
       0.190505              0.0168085455             0.00110481251           
       0.191184              0.0172448359             0.00110293096           
       0.191863              0.0158867419              0.0010608407           
       0.192542              0.0154075237             0.00105457018           
       0.193222              0.0167816764              0.0010759285           
       0.193901              0.0170122902             0.00109781603           
       0.194580               0.015618203             0.00103347407           
       0.195259              0.0177941222             0.00111578805           
       0.195938               0.017408143             0.00110625483           
       0.196617              0.0158756414             0.00104169298           
       0.197297              0.0155260786               0.001034367           
       0.197976              0.0163986098             0.00104670568           
       0.198655              0.0158512815             0.00104033032           
       0.199334              0.0142890111            0.000979023808           
       0.200013              0.0132164544            0.000941041502           
       0.200692              0.0170945989             0.00107667642           
       0.201371              0.0159173699             0.00102724148           
       0.202051              0.0154193895             0.00101418909           
       0.202730              0.0153010011             0.00100019753           
       0.203409              0.0155267871             0.00101431362           
       0.204088              0.0161337089             0.00103280405           
       0.204767              0.0153822905             0.00100316579           
       0.205446              0.0167562507             0.00104905549           
       0.206126              0.0158958538             0.00100788535           
       0.206805              0.0159150217             0.00102698101           
       0.207484              0.0156020493            0.000998552794           
       0.208163               0.015840382             0.00101219675           
       0.208842              0.0148615814            0.000977768782           
       0.209521              0.0173318483             0.00104713276           
       0.210201              0.0135892812            0.000937555737           
       0.210880              0.0154632141            0.000980486987           
       0.211559              0.0143452464            0.000958340895           
       0.212238              0.0159592891             0.00100567402           
       0.212917              0.0161524758             0.00100798349           
       0.213596              0.0148217315             0.00097127834           
       0.214276               0.013663548            0.000913129795           
       0.214955              0.0141714757            0.000949503376           
       0.215634              0.0156636015            0.000991085265           
       0.216313               0.016708675             0.00102146455           
       0.216992              0.0131526509            0.000906045827           
       0.217671              0.0148842107            0.000957314629           
       0.218351              0.0153655412            0.000982183309           
       0.219030              0.0160289776              0.0009873284           
       0.219709              0.0162329302            0.000999787697           
       0.220388              0.0163762428             0.00100290126           
       0.221067              0.0143718875            0.000940269011           
       0.221746              0.0166290448             0.00101037776           
       0.222426              0.0131817381            0.000886129094           
       0.223105              0.0145603677            0.000944003261           
       0.223784              0.0140696123            0.000918753568           
       0.224463               0.015396938            0.000968768539           
       0.225142              0.0170917843             0.00100454635           
       0.225821              0.0164608436            0.000989801631           
       0.226500              0.0130189345            0.000885854713           
       0.227180              0.0130459934            0.000873112935           
       0.227859              0.0148830905             0.00093674711           
       0.228538              0.0160654525            0.000963472409           
       0.229217              0.0157040691            0.000960114497           
       0.229896              0.0151702978            0.000943202299           
       0.230575              0.0166964428            0.000973735615           
       0.231255              0.0145900632              0.0009238716           
       0.231934              0.0143874021            0.000911164847           
       0.232613              0.0158322069            0.000959347252           
       0.233292              0.0141109219             0.00089694603           
       0.233971               0.012720706             0.00085121938           
       0.234650              0.0165705736            0.000982954023           
       0.235330              0.0134248139            0.000877020035           
       0.236009              0.0141115276            0.000897233027           
       0.236688              0.0140237379            0.000891236831           
       0.237367              0.0143336311            0.000902338863           
       0.238046              0.0161798968            0.000965444286           
       0.238725              0.0149087112            0.000912445542           
       0.239405              0.0146930415            0.000911438748           
       0.240084              0.0147465019            0.000907281136           
       0.240763              0.0141054696            0.000895838791           
       0.241442              0.0147156947            0.000902118405           
       0.242121              0.0138231326            0.000875982436           
       0.242800              0.0130624949            0.000855571708           
       0.243480               0.013867778            0.000877422005           
       0.244159              0.0128901706            0.000846339294           
       0.244838              0.0127884484            0.000829122094           
       0.245517              0.0140521935            0.000881625741           
       0.246196              0.0144599002            0.000894755153           
       0.246875              0.0128167096             0.00083064081           
       0.247554              0.0148348076             0.00090272923           
       0.248234              0.0141554083             0.00086844446           
       0.248913              0.0152456228            0.000911376536           
       0.249592              0.0138320624            0.000859848935           
       0.250271              0.0147682736            0.000885891743           
       0.250950               0.011355623            0.000781579469           
       0.251629              0.0139368145             0.00085850416           
       0.252309              0.0143220136            0.000872053684           
       0.252988              0.0137205811            0.000838844261           
       0.253667              0.0132982528            0.000835482187           
       0.254346              0.0147774233              0.0008805416           
       0.255025               0.013676198            0.000845241524           
       0.255704              0.0124475233            0.000802686454           
       0.256384              0.0130406014            0.000818744147           
       0.257063              0.0131393052            0.000826522491           
       0.257742              0.0133743557            0.000828104772           
       0.258421               0.012952132            0.000813359832           
       0.259100               0.012783837            0.000809467443           
       0.259779              0.0124614353            0.000798517613           
       0.260459              0.0137497616            0.000840427152           
       0.261138              0.0126064951            0.000789002743           
       0.261817              0.0139104336            0.000845533773           
       0.262496              0.0111568526            0.000749810075           
       0.263175              0.0129342686            0.000809064543           
       0.263854              0.0124076395            0.000788740998           
       0.264534              0.0139726417             0.00082985831           
       0.265213              0.0118261466            0.000775491286           
       0.265892              0.0126302157            0.000791153308           
       0.266571              0.0132325665            0.000807957581           
       0.267250                0.01241183            0.000783818326           
       0.267929              0.0104885009            0.000719794737           
       0.268609              0.0127396985            0.000797632677           
       0.269288              0.0117031403              0.0007517949           
       0.269967              0.0123087877            0.000779309539           
       0.270646              0.0128622436            0.000793193739           
       0.271325              0.0118859865            0.000763771188           
       0.272004              0.0119358233            0.000757741232           
       0.272683              0.0125384172            0.000777593059           
       0.273363              0.0102230958            0.000706615751           
       0.274042              0.0126581628             0.00078164136           
       0.274721              0.0118169937            0.000754776093           
       0.275400              0.0126103936            0.000774540115           
       0.276079              0.0123001702             0.00076929729           
       0.276758              0.0115094834            0.000753551413           
       0.277438              0.0108526321            0.000723518955           
       0.278117              0.0115746295            0.000760785185           
       0.278796              0.0117206925            0.000757799609           
       0.279475              0.0106513264            0.000734336785           
       0.280154              0.0114679495            0.000751006929           
       0.280833              0.0123059398            0.000782693133           
       0.281513              0.0108793654            0.000747474734           
       0.282192              0.0115132296            0.000755823134           
       0.282871              0.0117140814            0.000767714814           
       0.283550              0.0119540117            0.000779693281           
       0.284229              0.0115950811            0.000779176975           
       0.284908               0.010731804             0.00075751704           
       0.285588              0.0113038812            0.000768341337           
       0.286267             0.00963399707            0.000720679873           
       0.286946              0.0109172885            0.000762189677           
       0.287625              0.0107269672            0.000768380802           
       0.288304             0.00955069264            0.000715324935           
       0.288983             0.00956265895            0.000724837211           
       0.289663             0.00956104642            0.000729018098           
       0.290342              0.0103322948            0.000753817132           
       0.291021              0.0108976857            0.000778337977           
       0.291700              0.0120381981            0.000807367014           
       0.292379              0.0110608861            0.000791619932           
       0.293058              0.0113677433            0.000799494193           
       0.293738             0.00961924074            0.000729266443           
       0.294417              0.0101284216            0.000757016772           
       0.295096              0.0107366664            0.000770847693           
       0.295775              0.0117124927            0.000817411798           
       0.296454              0.0102250043            0.000753865716           
       0.297133              0.0109871061            0.000785151927           
       0.297812             0.00940582629            0.000730101561           
       0.298492              0.0100720188             0.00075697468           
       0.299171              0.0105057836            0.000771640286           
       0.299850             0.00985404351            0.000742219077           
       0.300529             0.00991371021            0.000752848752           
       0.301208             0.00994689069             0.00075594259           
       0.301887             0.00890334214            0.000714340518           
       0.302567             0.00999907501            0.000753230853           
       0.303246             0.00938412572            0.000734465339           
       0.303925             0.00869202526            0.000715938354           
       0.304604             0.00909750383            0.000716631466           
       0.305283             0.00961760929            0.000747759807           
       0.305962             0.00897353481            0.000717924431           
       0.306642             0.00945933274            0.000747112262           
       0.307321             0.00947128247            0.000745196835           
       0.308000              0.0081546174            0.000683266063           
       0.308679             0.00934261274              0.0007471826           
       0.309358             0.00874557159            0.000713135132           
       0.310037             0.00860277981             0.00070886526           
       0.310717             0.00877389977            0.000715191892           
       0.311396              0.0092446046            0.000739049204           
       0.312075              0.0104524382             0.00079581243           
       0.312754              0.0101957718            0.000770256879           
       0.313433             0.00802439642            0.000689274929           
       0.314112             0.00914590658            0.000735698675           
       0.314792             0.00729951933            0.000661896087           
       0.315471             0.00908981777            0.000729484445           
       0.316150             0.00865207238            0.000718289281           
       0.316829             0.00745695703            0.000671241189           
       0.317508             0.00953539497            0.000750526899           
       0.318187             0.00821299062            0.000705730971           
       0.318866             0.00835036854            0.000702022696           
       0.319546             0.00794619909            0.000695087845           
       0.320225             0.00769983788            0.000684241251           
       0.320904             0.00833924409            0.000701074638           
       0.321583             0.00679583269             0.00064682663           
       0.322262             0.00875214952            0.000722921903           
       0.322941             0.00854381653            0.000723416924           
       0.323621             0.00754091322            0.000675485705           
       0.324300             0.00778794798            0.000686998784           
       0.324979             0.00897491671            0.000738829292           
       0.325658             0.00943405261            0.000758866197           
       0.326337             0.00768990446            0.000686029883           
       0.327016             0.00794248036            0.000692778931           
       0.327696             0.00708192387             0.00066144796           
       0.328375             0.00775844261            0.000686478663           
       0.329054             0.00839386063            0.000717909612           
       0.329733             0.00788973273            0.000698559134           
       0.330412             0.00763734434            0.000681663663           
       0.331091             0.00812879423            0.000716010337           
       0.331771             0.00696906567            0.000645597461           
       0.332450             0.00631750799            0.000626611764           
       0.333129              0.0072123314            0.000667792267           
       0.333808              0.0065574084            0.000637592639           
       0.334487              0.0074323461            0.000682015748           
       0.335166             0.00769450413            0.000683783729           
       0.335846             0.00628921651            0.000629060442           
       0.336525             0.00657790178            0.000636984222           
       0.337204             0.00742098616            0.000678348495           
       0.337883             0.00737404554            0.000677096015           
       0.338562             0.00766515239            0.000694162465           
       0.339241             0.00641253662            0.000636104836           
       0.339921             0.00680649554            0.000644363177           
       0.340600             0.00767001788            0.000697007166           
       0.341279             0.00760347001            0.000686545512           
       0.341958              0.0070694833            0.000671338536           
       0.342637              0.0064932464            0.000634307116           
       0.343316             0.00733917385            0.000676313098           
       0.343995             0.00597594317            0.000620270396           
       0.344675             0.00557171031            0.000587917642           
       0.345354             0.00746822022             0.00068515067           
       0.346033             0.00686529462             0.00065519946           
       0.346712             0.00550667133            0.000590542102           
       0.347391             0.00813860198             0.00072237376           
       0.348070             0.00752142986            0.000684581926           
       0.348750             0.00769193142            0.000702301106           
       0.349429             0.00678959927            0.000651305216           
       0.350108             0.00485834264            0.000557572603           
       0.350787             0.00589857063            0.000603933597           
       0.351466             0.00532064646             0.00058415141           
       0.352145             0.00603395464            0.000622593366           
       0.352825             0.00705998399            0.000670399538           
       0.353504              0.0058514991            0.000610181309           
       0.354183             0.00545529628            0.000582373896           
       0.354862             0.00643747403            0.000647331666           
       0.355541             0.00582274258            0.000607585783           
       0.356220             0.00545620125            0.000589262173           
       0.356900             0.00499377939             0.00056909359           
       0.357579              0.0059972104            0.000616006744           
       0.358258             0.00578659057             0.00061346669           
       0.358937             0.00611462892            0.000618759723           
       0.359616             0.00514840911            0.000575699923           
       0.360295             0.00631454632            0.000638105327           
       0.360975             0.00511925528            0.000572088648           
       0.361654             0.00613095448             0.00062929928           
       0.362333             0.00567322875            0.000602274419           
       0.363012             0.00536701392            0.000593331981           
       0.363691             0.00629240272            0.000629775507           
       0.364370             0.00477621182            0.000555486895           
       0.365050              0.0050381074            0.000567460419           
       0.365729             0.00542155242            0.000594271747           
       0.366408             0.00509653976            0.000577459477           
       0.367087             0.00626088984            0.000629766884           
       0.367766             0.00574948863            0.000616073208           
       0.368445             0.00439589517             0.00052912879           
       0.369124             0.00496783264            0.000566917112           
       0.369804             0.00483608334            0.000558454124           
       0.370483             0.00592165185            0.000620666231           
       0.371162             0.00560398239            0.000607289397           
       0.371841             0.00506564816            0.000567317109           
       0.372520             0.00581553684            0.000620043908           
       0.373199             0.00547670566            0.000594521166           
       0.373879             0.00522017986            0.000587150813           
       0.374558             0.00455242982            0.000540311855           
       0.375237             0.00417932812            0.000518546188           
       0.375916             0.00482045091            0.000567569812           
       0.376595             0.00486967778            0.000559311103           
       0.377274             0.00444985716            0.000543216617           
       0.377954             0.00514026712            0.000574667136           
       0.378633             0.00429597782            0.000531996085           
       0.379312             0.00360118544            0.000486956885           
       0.379991             0.00501674385            0.000571774879           
       0.380670              0.0040009205            0.000519640583           
       0.381349             0.00341753305            0.000473367586           
       0.382029             0.00358189854            0.000491560888           
       0.382708             0.00438285708            0.000531876013           
       0.383387             0.00440741266            0.000545451134           
       0.384066             0.00444450192            0.000542715612           
       0.384745             0.00428698458            0.000535106991           
       0.385424             0.00430982921            0.000538353129           
       0.386104             0.00468396511            0.000555031882           
       0.386783             0.00447815955            0.000554439895           
       0.387462             0.00483662541            0.000561869377           
       0.388141             0.00392577861            0.000514290668           
       0.388820              0.0037267586            0.000497462779           
       0.389499             0.00391026926            0.000512432073           
       0.390178             0.00442064301            0.000547018123           
       0.390858             0.00353955252            0.000485517291           
       0.391537              0.0038966986             0.00051462532           
       0.392216             0.00378473796            0.000500821219           
       0.392895             0.00454416561            0.000550620679           
       0.393574             0.00385874467            0.000506139946           
       0.394253             0.00368789651            0.000497034286           
       0.394933             0.00440305969            0.000549299136           
       0.395612             0.00360330423             0.00048248088           
       0.396291             0.00425225167            0.000534800726           
       0.396970             0.00324616007            0.000463129571           
       0.397649             0.00392644495            0.000510919382           
       0.398328             0.00441441591            0.000539356708           
       0.399008             0.00427268455            0.000529474446           
       0.399687             0.00438183498            0.000538280043           
       0.400366             0.00387724737            0.000504403107           
       0.401045             0.00411871234            0.000518889433           
       0.401724             0.00505537506            0.000575831083           
       0.402403             0.00413313676               0.000524723           
       0.403083             0.00362086643            0.000484048089           
       0.403762             0.00321115887            0.000458088582           
       0.404441             0.00391429804            0.000508982416           
       0.405120             0.00362754043            0.000488377292           
       0.405799               0.004296181            0.000529175583           
       0.406478             0.00456467422            0.000545474325           
       0.407158             0.00414240441            0.000518656509           
       0.407837             0.00329247679            0.000466478224           
       0.408516             0.00436144058            0.000532218972           
       0.409195             0.00403925785            0.000517994371           
       0.409874             0.00288123267            0.000443572083           
       0.410553             0.00280360859             0.00044226203           
       0.411233             0.00379141592            0.000511641192           
       0.411912             0.00329012989            0.000483372233           
       0.412591             0.00291074727            0.000457659246           
       0.413270             0.00223982936             0.00039955751           
       0.413949             0.00279306939            0.000451055893           
       0.414628             0.00285677458            0.000455351774           
       0.415307             0.00353848039             0.00051241479           
       0.415987             0.00397875605            0.000538881484           
       0.416666              0.0032759103            0.000486031876           
       0.417345             0.00406350993            0.000550353736           
       0.418024             0.00279819999            0.000456711235           
       0.418703             0.00286999394            0.000461683366           
       0.419382             0.00343594223            0.000502681874           
       0.420062             0.00285390324            0.000459414836           
       0.420741             0.00317906832            0.000487459793           
       0.421420              0.0027560038            0.000455588468           
       0.422099              0.0028466277            0.000463030329           
       0.422778             0.00286835919            0.000467311389           
       0.423457             0.00244914405            0.000434457069           
       0.424137             0.00243877671            0.000426471353           
       0.424816              0.0028579209            0.000471315628           
       0.425495             0.00316822845             0.00049577422           
       0.426174             0.00292975409            0.000476917568           
       0.426853             0.00274346853            0.000458703091           
       0.427532             0.00248731567            0.000440457011           
       0.428212             0.00314634124            0.000498652994           
       0.428891              0.0022868031            0.000424151472           
       0.429570             0.00299155019            0.000485457911           
       0.430249             0.00146018139            0.000337400817           
       0.430928             0.00212956811            0.000416373444           
       0.431607             0.00249896058               0.000443292           
       0.432287             0.00246602898            0.000443586636           
       0.432966             0.00292328325            0.000487212223           
       0.433645             0.00212018986            0.000415358779           
       0.434324             0.00184429575            0.000385057409           
       0.435003             0.00265953357            0.000463184549           
       0.435682             0.00188816002            0.000393475877           
       0.436361              0.0026245914            0.000463284675           
       0.437041             0.00171875543             0.00037440717           
       0.437720             0.00173546408            0.000378037313           
       0.438399             0.00226039065             0.00043368958           
       0.439078             0.00249245203            0.000468613943           
       0.439757              0.0012496821            0.000329775092           
       0.440436             0.00213683806            0.000440943287           
       0.441116             0.00342144664            0.000567082117           
       0.441795             0.00278481716            0.000512226839           
       0.442474             0.00223123708            0.000459775858           
       0.443153              0.0025640134            0.000504369704           
       0.443832             0.00245971628            0.000494837696           
       0.444511             0.00204893802               0.000449597           
       0.445191             0.00288174387            0.000546164784           
       0.445870             0.00194805607            0.000449064363           
       0.446549              0.0031594748             0.00057792437           
       0.447228             0.00165897938            0.000416411838           
       0.447907             0.00159381282            0.000413048893           
       0.448586             0.00291699572            0.000572237817           
       0.449266             0.00275050005            0.000550555698           
       0.449945             0.00229691131            0.000501063203           
       0.450624             0.00253256759            0.000534494809           
       0.451303             0.00245121744            0.000532656663           
       0.451982             0.00230209572            0.000513009059           
       0.452661             0.00203962234            0.000491874971           
       0.453341             0.00254056666            0.000550889428           
       0.454020             0.00290793638            0.000590272986           
       0.454699             0.00306812691            0.000611850937           
       0.455378             0.00234624388            0.000535338585           
       0.456057             0.00119375921            0.000388647767           
       0.456736              0.0020592789             0.00050886081           
       0.457416             0.00206000934            0.000508965501           
       0.458095             0.00135295731            0.000418442584           
       0.458774             0.00271189235            0.000600249738           
       0.459453             0.00248265904            0.000577217049           
       0.460132             0.00159889709            0.000453219989           
       0.460811             0.00188320189            0.000510217833           
       0.461490             0.00223571795            0.000550270347           
       0.462170             0.00246778945            0.000587146741           
       0.462849             0.00149986987            0.000460709421           
       0.463528             0.00205382139            0.000537865099           
       0.464207             0.00153983211            0.000474438318           
       0.464886             0.00182752015            0.000512836853           
       0.465565             0.00274814286             0.00063578834           
       0.466245             0.00205000267            0.000550827603           
       0.466924            0.000455737603            0.000265849265           
       0.467603             0.00191012126            0.000532718345           
       0.468282             0.00138067608            0.000463651161           
       0.468961            0.000769116079            0.000348325341           
       0.469640            0.000784163019            0.000353119256           
       0.470320              0.0014249645            0.000476343575           
       0.470999            0.000963258607            0.000395336379           
       0.471678             0.00117336648            0.000440521085           
       0.472357             0.00167456872            0.000527730368           
       0.473036             0.00135798265            0.000478233952           
       0.473715             0.00224190181            0.000619278196           
       0.474395             0.00125572478            0.000469879975           
       0.475074             0.00178784601            0.000560683027           
       0.475753             0.00175023852            0.000549967845           
       0.476432             0.00114842548            0.000461710754           
       0.477111             0.00111720085            0.000449883782           
       0.477790             0.00132058546            0.000491736236           
       0.478470             0.00116610783            0.000468191925           
       0.479149             0.00100716621            0.000439616602           
       0.479828             0.00060719901            0.000340537913           
       0.480507             0.00159489976            0.000556357558           
       0.481186            0.000880593219            0.000422723377           
       0.481865            6.52566687e-05            0.000113650012           
       0.482545             0.00048359957            0.000313019656           
       0.483224            0.000492383827            0.000318007965           
       0.483903             0.00114572415            0.000492735335           
       0.484582           -0.000105252932                         0           
       0.485261            9.54991983e-05            0.000140907538           
       0.485940             0.00124728226            0.000529775992           
       0.486619            0.000774729236            0.000412934375           
       0.487299            0.000556094715            0.000355426061           
       0.487978            0.000333994469            0.000272644705           
       0.488657            0.000159007528            0.000195883422           
       0.489336           -9.24019814e-05                         0           
       0.490015           -8.92204193e-05                         0           
       0.490694            0.000417540423            0.000323001356           
       0.491374            0.000163515714            0.000199667768           
       0.492053           -0.000321748291                         0           
       0.492732           -0.000321767748                         0           
       0.493411            -6.5266061e-05                         0           
       0.494090           -0.000321807297                         0           
       0.494769           -0.000321826753                         0           
       0.495449            0.000216355409            0.000239622241           
       0.496128            0.000485018399            0.000362396193           
       0.496807           -0.000321885846                         0           
       0.497486            -5.0931114e-05                         0           
       0.498165           -0.000321925638                         0           
       0.498844           -0.000321945373                         0           
       0.499524           -0.000321965202                         0           
       0.500203           -0.000321985346                         0           
       0.500882           -0.000322005093                         0           
       0.501561           -1.93351978e-05                         0           
       0.502240            -2.3568628e-05                         0           
       0.502919            -0.00032206496                         0           
       0.503599           -0.000322085025                         0           
       0.504278           -0.000322105372                         0           
       0.504957           -0.000322125479                         0           
       0.505636            2.31009065e-06            2.75146123e-05           
       0.506315           -0.000322165765                         0           
       0.506994            -0.00032218571                         0           
       0.507673            2.40419807e-05            9.16830213e-05           
       0.508353           -0.000322225938                         0           
       0.509032            4.43335936e-05            0.000127499709           
       0.509711            -0.00032226642                         0           
       0.510390           -0.000322286983                         0           
       0.511069            4.35743056e-05            0.000126223509           
       0.511748            -0.00032232789                         0           
       0.512428           -0.000322348449                         0           
       0.513107            -0.00032236869                         0           
       0.513786           -0.000322388996                         0           
       0.514465           -0.000322409647                         0           
       0.515144           -0.000322430285                         0           
       0.515823            7.90332746e-05            0.000178329354           
       0.516503           -0.000322471376                         0           
       0.517182           -0.000322492015                         0           
       0.517861           -0.000322512604                         0           
       0.518540           -0.000322533309                         0           
       0.519219           -0.000322553895                         0           
       0.519898           -0.000322574689                         0           
       0.520578           -0.000322595607                         0           
       0.521257             0.00116843061            0.000762058372           
       0.521936           -0.000322636954                         0           
       0.522615           -0.000322657899                         0           
       0.523294           -0.000322678923                         0           
       0.523973            0.000664790723            0.000571374643           
       0.524653            -0.00032272024                         0           
       0.525332            0.000649817144            0.000557069351           
       0.526011           -0.000322762382                         0           
       0.526690             -0.0003227836                         0           
       0.527369           -0.000322804643                         0           
       0.528048           -0.000322825836                         0           
       0.528728           -0.000322847004                         0           
       0.529407            0.000770122907            0.000648997801           
       0.530086           -0.000322889035                         0           
       0.530765           -0.000322910026                         0           
       0.531444           -0.000322931244                         0           
       0.532123           -0.000322952836                         0           
       0.532802           -0.000322974253                         0           
       0.533482           -0.000322995597                         0           
       0.534161           -0.000323016974                         0           
       0.534840           -0.000323038169                         0           
       0.535519            0.000266201592            0.000396293194           
       0.536198            -0.00032308112                         0           
       0.536877            0.000316768532            0.000452654616           
       0.537557           -0.000323123621                         0           
       0.538236           -0.000323145245                         0           
       0.538915           -0.000323166862                         0           
       0.539594            -0.00032318845                         0           
       0.540273           -0.000323210375                         0           
       0.540952           -0.000323232056                         0           
       0.541632           -0.000323253341                         0           
       0.542311           -0.000323274821                         0           
       0.542990           -0.000323296542                         0           
       0.543669           -0.000323318443                         0           
       0.544348            -0.00032334032                         0           
       0.545027           -0.000323362148                         0           
       0.545707           -0.000323384043                         0           
       0.546386           -0.000323405999                         0           
       0.547065           -0.000323427692                         0           
       0.547744           -0.000323449484                         0           
       0.548423           -0.000323471515                         0           
       0.549102           -0.000323493569                         0           
       0.549782           -0.000323515512                         0           
       0.550461           -0.000323537715                         0           
       0.551140           -0.000323560052                         0           
       0.551819           -0.000323582125                         0           
       0.552498           -0.000323604386                         0           
       0.553177            0.000527166176            0.000670653612           
       0.553856            0.000583882494            0.000729323673           
       0.554536           -0.000323670254                         0           
       0.555215            -0.00032369262                         0           
       0.555894           -0.000323714933                         0           
       0.556573           -0.000323737379                         0           
       0.557252           -0.000323759807                         0           
       0.557931             0.00063966532            0.000787579903           
       0.558611            -0.00032380498                         0           
       0.559290           -0.000323827246                         0           
       0.559969           -0.000323848965                         0           
       0.560648            -0.00032387126                         0           
       0.561327           -0.000323894051                         0           
       0.562006           -0.000323916737                         0           
       0.562686           -0.000323939435                         0           
       0.563365           -0.000323962217                         0           
       0.564044           -0.000323984885                         0           
       0.564723           -0.000324007502                         0           
       0.565402           -0.000324029698                         0           
       0.566081           -0.000324052041                         0           
       0.566761           -0.000324074625                         0           
       0.567440           -0.000324097667                         0           
       0.568119           -0.000324120528                         0           
       0.568798             0.00111489765             0.00127671524           
       0.569477             0.00093143729             0.00108510612           
       0.570156           -0.000324189888                         0           
       0.570836           -0.000324212946                         0           
       0.571515           -0.000324235516                         0           
       0.572194           -0.000324258741                         0           
       0.572873           -0.000324281434                         0           
       0.573552           -0.000324303994                         0           
       0.574231           -0.000324327011                         0           
       0.574911           -0.000324350609                         0           
       0.575590           -0.000324373752                         0           
       0.576269           -0.000324396825                         0           
       0.576948           -0.000324420341                         0           
       0.577627           -0.000324443139                         0           
       0.578306            -0.00032446626                         0           
       0.578985           -0.000324489578                         0           
       0.579665             0.00202181608             0.00219456483           
       0.580344           -0.000324536296                         0           
       0.581023           -0.000324559804                         0           
       0.581702           -0.000324583096                         0           
       0.582381           -0.000324606176                         0           
       0.583060           -0.000324629945                         0           
       0.583740            -0.00032465334                         0           
       0.584419           -0.000324676813                         0           
       0.585098              0.0028105943             0.00295974901           
       0.585777           -0.000324723885                         0           
       0.586456           -0.000324747897                         0           
       0.587135            -0.00032477127                         0           
       0.587815             0.00406875003             0.00428055097           
       0.588494             0.00338427926              0.0036435039           
       0.589173           -0.000324842622                         0           
       0.589852           -0.000324865715                         0           
       0.590531           -0.000324889679                         0           
       0.591210            -0.00032491309                         0           
       0.591890           -0.000324936953                         0           
       0.592569           -0.000324960018                         0           
       0.593248           -0.000324985235                         0           
       0.593927           -0.000325009209                         0           
       0.594606           -0.000325033678                         0           
       0.595285           -0.000325056688                         0           
       0.595965            -0.00032507816                         0           
       0.596644           -0.000325100256                         0           
