################################################################################
# EDF_DataBlockID                     0.Image.Psd
# EDF_BinarySize                      2105344
# EDF_HeaderSize                      2560
# ByteOrder                           LowByteFirst
# DataType                            FloatValue
# Dim_1                               512
# Dim_2                               1028
# Image                               0
# HeaderID                            EH:000000:000000:000000
# Size                                2105344
# Center_1                            304.9000
# Center_2                            588.7000
# Comment                             Xenocs_Cell_Window - 20251028_20perc_iodine_1.23mg
# DDummy                              0.6
# Date                                2025-11-01T08:54:40
# Delta                               21.910000
# Dummy                               -1.5
# ExposureTime                        360
# Gamma                               15.360000
# Intensity1                          8.59103e-10
# PSize_1                             7.5e-05
# PSize_2                             7.5e-05
# Pressure                            0.0326633
# SampleDistance                      0.115750
# SampleEnvKind                       large
# SampleEnvPN                         ElectroChemical cell
# SampleEnvSN                         1141
# Thickness                           0
# Wavelength                          1.541891e-10
# Wavelength                          1.54189e-10
# aux                                 0
# aux_dial                            0.002375
# beamx                               588.434
# beamx_dial                          588.434
# beamz                               657.808
# beamz_dial                          657.808
# det0x                               0
# det0x_dial                          6.36945
# det0xvd                             0
# det0xvd_dial                        0
# det0y                               450.002
# det0y_dial                          481.635
# det0z                               0
# det0z_dial                          1.23302
# det0zvd                             0
# det0zvd_dial                        0
# mag                                 1.818
# mag_dial                            1.818
# om                                  0.2499
# om_dial                             -0.610199
# phi                                 -0.0120535
# phi_dial                            0
# ry                                  0.599993
# ry_dial                             0.599993
# s1bot                               0.8
# s1bot_dial                          -1.66094
# s1hl                                0.8
# s1hl_dial                           -0.608437
# s1hr                                0.8
# s1hr_dial                           0.970938
# s1top                               0.8
# s1top_dial                          -0.461562
# s2bot                               0.45
# s2bot_dial                          1.36109
# s2hl                                0.45
# s2hl_dial                           -0.83375
# s2hr                                0.45
# s2hr_dial                           -0.118594
# s2top                               0.45
# s2top_dial                          1.44734
# w2theta                             32
# w2theta_dial                        32
# waxsch                              19.2605
# waxsch_dial                         -32.7355
# waxsh                               137.085
# waxsh_dial                          -43.5338
# waxsth                              26.0607
# waxsth_dial                         -19.4086
# waxsz                               67.0407
# waxsz_dial                          -23.7954
# wind                                65.9854
# wind_dial                           66.0041
# wpsi                                124
# wpsi_dial                           124
# wstod                               115
# wstod_dial                          115
# x                                   0
# x_dial                              1.00969
# z                                   0
# z_dial                              13.3172
# CountCutoff                         6807993
# DetectorModel                       Dectris EIGER2 Si 500K, S/N E-01-0554
# ThresholdSetting                    4023.88989258
# Saturation                          0
# FlatField                           Corrected
# BackgroundReductionExtra            0.02
# BackgroundCorrectionConstant        0.0026712
# Detector                            0
# Monitor                             0
# Pil_Roi0                            0
# SumForIntensity1                    3.09277e+08
# TransmittedFlux                     859103
# det                                 0
# mon                                 0
# pilai0                              3.09277e+08
# pilai1                              783891
# pilct0                              5.34979e+08
# pilct1                              783891
# pilroi0                             0
# pilroi1                             0
# sec                                 1
# title                               20251028_20perc_iodine_1.23mg_1_00823.edf
# usaxs0                              0
# Operation                           Azimuthal average I(q)
# Error_model                         ErrorModel.poisson
# Geometrical_correction              True
# Transmission_correction             True
# Thickness_correction                False
# Binning mode                        Uniform
# Binning factor                      1.0
# Psi                                 0.0
# Omega                               0.2499
# MaskInvalidPixels                   True
# DetectorEdge                        3
# MaskFiles                           ['WAXS_corrected.edf']
################################################################################
    q(A⁻¹)                Intensity(a.u.)            Sigma_I(a.u.)            
       0.693100             0.00823698149             0.00603636505           
       0.695741           -2.36061963e-05                         0           
       0.698381              0.0127015879             0.00749274644           
       0.701021           -2.35958074e-05                         0           
       0.703662             0.00847444309             0.00499412327           
       0.706302             0.00849644643             0.00387150202           
       0.708942             0.00571332243             0.00409756877           
       0.711583             0.00435244995             0.00309695269           
       0.714223              0.0058469784             0.00414412973           
       0.716864             0.00628329615             0.00281081425           
       0.719504             0.00872819058             0.00357493662           
       0.722144             0.00747775171             0.00306435146           
       0.724785             0.00236560774              0.0013748516           
       0.727425             0.00878662577             0.00358455766           
       0.730065             0.00945317493             0.00262999286           
       0.732706              0.0081554316             0.00205134138           
       0.735346             0.00873624366             0.00276758487           
       0.737987             0.00614364992               0.001640019           
       0.740627             0.00776776173             0.00275150357           
       0.743267             0.00828384218             0.00190318147           
       0.745908             0.00670688755             0.00185794789           
       0.748548             0.00614759213             0.00163960779           
       0.751189             0.00717901863             0.00238746228           
       0.753829             0.00672857423             0.00212466571           
       0.756469             0.00823623869             0.00189551355           
       0.759110             0.00627889907              0.0017441134           
       0.761750             0.00645779305              0.0015639962           
       0.764390             0.00619602283             0.00160345066           
       0.767031             0.00648911608             0.00142099002           
       0.769671             0.00388435435             0.00137142581           
       0.772312             0.00501612595             0.00118644734           
       0.774952              0.0118004952             0.00245738996           
       0.777592             0.00732310364             0.00141003128           
       0.780233             0.00985328051             0.00197331015           
       0.782873             0.00574220001             0.00144074365           
       0.785513             0.00991523354             0.00202396411           
       0.788154             0.00520234908             0.00122640792           
       0.790794             0.00614394538             0.00159337468           
       0.793435             0.00630846749             0.00145046212           
       0.796075             0.00805620478             0.00157897723           
       0.798715             0.00820565415             0.00188312855           
       0.801356             0.00664953585             0.00145899883           
       0.803996             0.00765883295             0.00159636902           
       0.806637             0.00671750964             0.00118978465           
       0.809277             0.00542669449              0.0011574793           
       0.811917             0.00495490233             0.00103395287           
       0.814558             0.00858838502             0.00141477966           
       0.817198             0.00650551233             0.00116981946           
       0.819838             0.00774643977             0.00129193713           
       0.822479              0.0056479158             0.00129539886           
       0.825119             0.00558972111             0.00109685241           
       0.827760             0.00375025108            0.000910072802           
       0.830400             0.00507271516            0.000996188229           
       0.833040             0.00642157961             0.00117429108           
       0.835681             0.00666126729             0.00135965382           
       0.838321             0.00586402256             0.00107073365           
       0.840961             0.00926864472             0.00146668801           
       0.843602             0.00563585108               0.001048813           
       0.846242             0.00756143109             0.00121466222           
       0.848883             0.00839776578              0.0013099725           
       0.851523             0.00736597787             0.00121162151           
       0.854163             0.00676245058             0.00123459068           
       0.856804             0.00675973391             0.00110984334           
       0.859444             0.00887254478             0.00124583757           
       0.862085             0.00894835569             0.00130401016           
       0.864725             0.00658125082             0.00114447847           
       0.867365             0.00754359628             0.00113620978           
       0.870006             0.00632737272            0.000991605433           
       0.872646             0.00615325067             0.00102542818           
       0.875286             0.00759186466             0.00109579718           
       0.877927             0.00675845112            0.000997667601           
       0.880567              0.0074447836             0.00108481727           
       0.883208             0.00632881053            0.000990788053           
       0.885848              0.0059686815            0.000999038333           
       0.888488             0.00661546506            0.000986500705           
       0.891129             0.00849551869             0.00114787433           
       0.893769             0.00978170316             0.00117877353           
       0.896410             0.00773179658            0.000977107863           
       0.899050             0.00626686202            0.000967414737           
       0.901690             0.00619323919             0.00104758749           
       0.904331             0.00640607727            0.000944567884           
       0.906971             0.00898567086             0.00119010898           
       0.909611             0.00782072079             0.00101071563           
       0.912252             0.00821590709             0.00107001414           
       0.914892             0.00715247272             0.00109100142           
       0.917533             0.00665082548            0.000995232261           
       0.920173             0.00691830809            0.000941765067           
       0.922813             0.00790307088             0.00105627351           
       0.925454             0.00639843518            0.000855826574           
       0.928094             0.00700833077            0.000956221186           
       0.930734             0.00862658303             0.00114216571           
       0.933375             0.00783078515             0.00107751136           
       0.936015             0.00914847372             0.00105774664           
       0.938656             0.00845600971             0.00109092312           
       0.941296             0.00798183719            0.000960556717           
       0.943936             0.00676072756            0.000866931028           
       0.946577             0.00777266864            0.000923404914           
       0.949217             0.00742318595            0.000829844734           
       0.951858             0.00823316917            0.000914848292           
       0.954498             0.00708018089            0.000981978801           
       0.957138             0.00671313876            0.000905856131           
       0.959779             0.00688601284            0.000904412812           
       0.962419             0.00876328308             0.00101348606           
       0.965059             0.00543461311            0.000839414341           
       0.967700             0.00840909157             0.00106942595           
       0.970340             0.00733654563            0.000883927593           
       0.972981             0.00785374521            0.000833246312           
       0.975621             0.00741139603            0.000861105366           
       0.978261             0.00803099643            0.000851716364           
       0.980902             0.00732127758            0.000972967443           
       0.983542             0.00902794839            0.000956797281           
       0.986182             0.00646231625            0.000794766977           
       0.988823             0.00829879496            0.000874527019           
       0.991463              0.0082779347            0.000931855694           
       0.994104             0.00796996027            0.000891969229           
       0.996744             0.00862955816            0.000946701012           
       0.999384             0.00864853471            0.000847597802           
       1.002025             0.00973210493             0.00100354662           
       1.004665              0.0077959015            0.000820832857           
       1.007306             0.00667701294            0.000755760173           
       1.009946             0.00799742634              0.0008435457           
       1.012586             0.00768703392            0.000805462985           
       1.015227              0.0086546314            0.000918166271           
       1.017867             0.00566987651            0.000714230654           
       1.020507             0.00837360235            0.000840752974           
       1.023148             0.00657698836            0.000804004041           
       1.025788             0.00742428955            0.000783256727           
       1.028429             0.00916115194            0.000911536238           
       1.031069             0.00932762536            0.000865549296           
       1.033709             0.00896478931            0.000902008385           
       1.036350             0.00878688867            0.000802048332           
       1.038990             0.00781832493            0.000770456557           
       1.041630             0.00876633139            0.000850920048           
       1.044271             0.00803442967             0.00076612453           
       1.046911             0.00816549199            0.000812409331           
       1.049552             0.00823677172            0.000857256421           
       1.052192             0.00811489623            0.000776970962           
       1.054832             0.00961620854             0.00085348932           
       1.057473             0.00677665288            0.000706297529           
       1.060113               0.008834659            0.000786503543           
       1.062754             0.00648246952             0.00068785084           
       1.065394             0.00692003564            0.000751379568           
       1.068034             0.00877528598            0.000769860082           
       1.070675             0.00816487807            0.000774624943           
       1.073315             0.00899969218            0.000824918988           
       1.075955              0.0086829459            0.000764943422           
       1.078596             0.00980831724             0.00086406263           
       1.081236             0.00970448845            0.000823005385           
       1.083877             0.00822311478            0.000750794451           
       1.086517             0.00772416666            0.000780264816           
       1.089157             0.00840655481              0.0008446178           
       1.091798             0.00831650916            0.000736513838           
       1.094438              0.0077071593            0.000706730059           
       1.097078             0.00984464175            0.000766077095           
       1.099719             0.00774732953            0.000735083119           
       1.102359             0.00900003285            0.000741986171           
       1.105000             0.00886759732            0.000823558103           
       1.107640             0.00818480095            0.000756531614           
       1.110280             0.00889286132            0.000719515828           
       1.112921             0.00886361546             0.00077164359           
       1.115561             0.00795104952            0.000694604182           
       1.118202             0.00924629152            0.000749752608           
       1.120842             0.00846368598            0.000753909744           
       1.123482              0.0078547361            0.000723110048           
       1.126123               0.010274032            0.000793238035           
       1.128763             0.00931750034            0.000760589423           
       1.131403             0.00880419244            0.000712419272           
       1.134044             0.00799865544            0.000698740302           
       1.136684             0.00826310628            0.000757193382           
       1.139325             0.00894596239            0.000725775114           
       1.141965             0.00931102946            0.000745330701           
       1.144605             0.00900032952            0.000698717161           
       1.147246             0.00884841049            0.000709015905           
       1.149886              0.0108454719            0.000782173518           
       1.152527             0.00935346804            0.000736945288           
       1.155167             0.00819293535            0.000656022513           
       1.157807             0.00952949663             0.00075857918           
       1.160448             0.00985099751            0.000753164214           
       1.163088             0.00973937582            0.000714326093           
       1.165728             0.00944968812            0.000722422473           
       1.168369             0.00893146889            0.000708823001           
       1.171009             0.00972961409            0.000717972095           
       1.173650              0.0109355641            0.000781139552           
       1.176290             0.00949457839            0.000711279258           
       1.178930             0.00839998697            0.000655704296           
       1.181571             0.00877570433            0.000683498634           
       1.184211             0.00996282346            0.000730844492           
       1.186851             0.00942535701            0.000694995318           
       1.189492             0.00930680171            0.000685964448           
       1.192132             0.00893562535            0.000664604869           
       1.194773              0.0103579544            0.000718673202           
       1.197413              0.0100344469            0.000677752082           
       1.200053             0.00949300997            0.000675963136           
       1.202694             0.00966700931            0.000648666539           
       1.205334             0.00944117255            0.000690845676           
       1.207975             0.00980372618            0.000671973935           
       1.210615             0.00935740861            0.000724230892           
       1.213255              0.0098877502             0.00066665696           
       1.215896             0.00842978505            0.000626701109           
       1.218536              0.0091526995            0.000627907158           
       1.221176              0.0104391979            0.000729064424           
       1.223817             0.00922396283            0.000643318116           
       1.226457              0.0104449408            0.000698364977           
       1.229098              0.0102154205            0.000690615664           
       1.231738               0.010890472            0.000716578627           
       1.234378              0.0109800135            0.000676095728           
       1.237019              0.0100763325            0.000667424286           
       1.239659             0.00929208822            0.000635342205           
       1.242299             0.00971648795            0.000641434893           
       1.244940              0.0109710856            0.000662888268           
       1.247580              0.0100848885            0.000654988293           
       1.250221              0.0104425712            0.000662389825           
       1.252861              0.0108023466            0.000641369237           
       1.255501               0.010701536            0.000693147264           
       1.258142              0.0107365433            0.000652400684           
       1.260782             0.00966649916            0.000632431506           
       1.263423             0.00962122337             0.00060627032           
       1.266063              0.0100681363            0.000635678353           
       1.268703              0.0109243874            0.000656663067           
       1.271344              0.0104952471            0.000665449372           
       1.273984              0.0106655749            0.000647886974           
       1.276624              0.0108698495            0.000641774385           
       1.279265              0.0107502459            0.000648832689           
       1.281905              0.0111648744            0.000664161419           
       1.284546             0.00974817611            0.000599861531           
       1.287186              0.0106892299             0.00061628063           
       1.289826              0.0105737074            0.000645990046           
       1.292467              0.0102307526            0.000621431637           
       1.295107              0.0106831424             0.00062871439           
       1.297747             0.00961969479            0.000570898344           
       1.300388              0.0119466577            0.000693550581           
       1.303028              0.0108120727             0.00062988047           
       1.305669             0.00995791682             0.00061888174           
       1.308309              0.0110843851            0.000646518932           
       1.310949              0.0108903722             0.00064019184           
       1.313590              0.0118510622            0.000646956602           
       1.316230             0.00906866422            0.000603933478           
       1.318871              0.0107825598            0.000644953463           
       1.321511              0.0105550515            0.000626285436           
       1.324151              0.0106629226            0.000610815881           
       1.326792              0.0113742434            0.000634760897           
       1.329432             0.00990589711            0.000588193497           
       1.332072              0.0114846504            0.000623894522           
       1.334713              0.0106701595            0.000620667773           
       1.337353              0.0115465378            0.000619194759           
       1.339994              0.0123810429            0.000672854579           
       1.342634              0.0121673492            0.000639632835           
       1.345274              0.0111174669            0.000632756481           
       1.347915              0.0108211658            0.000607028403           
       1.350555              0.0116024617            0.000639568968           
       1.353195              0.0117695485            0.000647321495           
       1.355836               0.010964009            0.000615034472           
       1.358476              0.0107943109            0.000592651459           
       1.361117              0.0108627009            0.000595341998           
       1.363757               0.011622895            0.000634625216           
       1.366397              0.0114056512            0.000609642137           
       1.369038              0.0118169413            0.000626715526           
       1.371678              0.0103272923            0.000580718162           
       1.374319              0.0103244825            0.000575639357           
       1.376959               0.011472408            0.000600694997           
       1.379599              0.0116203229            0.000647899891           
       1.382240              0.0115262909            0.000606459899           
       1.384880             0.00955139549            0.000584762951           
       1.387520               0.010694533            0.000587662389           
       1.390161              0.0112022616            0.000571233423           
       1.392801               0.012278246            0.000623097829           
       1.395442              0.0112754901            0.000605267164           
       1.398082              0.0108806993            0.000556795066           
       1.400722              0.0108754593            0.000583089593           
       1.403363              0.0107259453            0.000609539018           
       1.406003              0.0116190962            0.000593722377           
       1.408644              0.0108399691            0.000600747892           
       1.411284              0.0109975844             0.00057297566           
       1.413924              0.0105374926            0.000558782927           
       1.416565              0.0103157523             0.00055070069           
       1.419205              0.0113276754             0.00060198589           
       1.421845              0.0106525215            0.000583427693           
       1.424486              0.0114474583            0.000581356617           
       1.427126              0.0107546965            0.000585358421           
       1.429767               0.010984808            0.000556611973           
       1.432407              0.0112965999            0.000590716512           
       1.435047              0.0109711377            0.000546730651           
       1.437688               0.010559505            0.000544395802           
       1.440328              0.0110150569            0.000567475526           
       1.442968              0.0104700508            0.000565654651           
       1.445609              0.0107590631            0.000555218533           
       1.448249               0.011587996            0.000590799392           
       1.450890              0.0100421571            0.000546393424           
       1.453530              0.0114798969            0.000611189856           
       1.456170              0.0104731717            0.000566568325           
       1.458811              0.0101219314            0.000532602587           
       1.461451              0.0109465765            0.000555326636           
       1.464092              0.0104487731            0.000546099896           
       1.466732              0.0108046195            0.000550549097           
       1.469372              0.0105034838            0.000530118982           
       1.472013                0.01119671            0.000590309922           
       1.474653              0.0121310803            0.000604968624           
       1.477293              0.0110018934            0.000588267937           
       1.479934              0.0113643937            0.000570503172           
       1.482574               0.010078552            0.000519714501           
       1.485215              0.0119011107            0.000575272932           
       1.487855             0.00981456851            0.000529306709           
       1.490495              0.0107569604            0.000552095437           
       1.493136              0.0106218115            0.000541096431           
       1.495776              0.0106681885             0.00053980725           
       1.498416               0.011583321            0.000580886538           
       1.501057              0.0101903954            0.000532834129           
       1.503697              0.0108528451            0.000537595896           
       1.506338               0.010845719            0.000547239906           
       1.508978              0.0107414406             0.00053924699           
       1.511618              0.0111697111             0.00058563234           
       1.514259              0.0103891094            0.000545286127           
       1.516899              0.0103477074            0.000529868963           
       1.519540               0.010477053             0.00054176811           
       1.522180             0.00985057429             0.00052993553           
       1.524820             0.00999740333             0.00053087517           
       1.527461              0.0106433965            0.000550467283           
       1.530101              0.0114787458            0.000565943837           
       1.532741             0.00959170904            0.000514335378           
       1.535382               0.010665277            0.000551087292           
       1.538022              0.0103963916            0.000512567364           
       1.540663             0.00983995974            0.000536341802           
       1.543303              0.0109291231             0.00052484031           
       1.545943              0.0100555716            0.000532842029           
       1.548584              0.0106736617            0.000558828466           
       1.551224              0.0102554284            0.000506465673           
       1.553864              0.0105471989            0.000542735196           
       1.556505              0.0110921269            0.000537669745           
       1.559145              0.0099929269            0.000516585585           
       1.561786              0.0104359974            0.000528320247           
       1.564426              0.0109938325            0.000525390162           
       1.567066              0.0114501383            0.000561816456           
       1.569707              0.0094199389            0.000500427214           
       1.572347              0.0104325518            0.000544069651           
       1.574988               0.010718247            0.000524906028           
       1.577628             0.00924631611            0.000508376746           
       1.580268             0.00994699204            0.000510885098           
       1.582909             0.00990258222            0.000540307692           
       1.585549             0.00919422713            0.000505509673           
       1.588189             0.00980340441            0.000510595174           
       1.590830              0.0100015973            0.000515083336           
       1.593470             0.00979939537            0.000530038003           
       1.596111              0.0101034197            0.000525447821           
       1.598751             0.00902555671            0.000481217212           
       1.601391             0.00905387813            0.000492605252           
       1.604032              0.0097320249            0.000521397234           
       1.606672             0.00989656452            0.000510851402           
       1.609312             0.00938571707             0.00051932345           
       1.611953             0.00991039394            0.000522201554           
       1.614593              0.0101686864             0.00051887061           
       1.617234             0.00916836128            0.000510610994           
       1.619874             0.00865939649            0.000494275568           
       1.622514             0.00891294324            0.000494618897           
       1.625155             0.00932416832            0.000508889197           
       1.627795             0.00889230302            0.000484787911           
       1.630436              0.0101180974            0.000514423025           
       1.633076             0.00932645408            0.000500366432           
       1.635716             0.00914303122            0.000487713321           
       1.638357             0.00944780063            0.000497082075           
       1.640997              0.0092958485            0.000508004549           
       1.643637             0.00858765897            0.000475142221           
       1.646278              0.0098035252            0.000523616054           
       1.648918             0.00998730112            0.000529942812           
       1.651559             0.00936962251            0.000517277675           
       1.654199             0.00849178296            0.000478950869           
       1.656839             0.00967061453            0.000511293333           
       1.659480             0.00950416343            0.000525908099           
       1.662120             0.00967557233            0.000499765404           
       1.664761             0.00877614651            0.000494410213           
       1.667401             0.00862752693            0.000468532018           
       1.670041             0.00891452229            0.000483523051           
       1.672682             0.00915999171            0.000488120427           
       1.675322             0.00914029575            0.000484459889           
       1.677962             0.00917194223            0.000479944381           
       1.680603             0.00897596459            0.000476250233           
       1.683243             0.00888338403            0.000494309188           
       1.685884              0.0091168591            0.000504460784           
       1.688524              0.0101350801            0.000521604357           
       1.691164             0.00912234903            0.000494970736           
       1.693805             0.00848994399            0.000482751325           
       1.696445             0.00918982115            0.000505168814           
       1.699085             0.00796479142            0.000454536138           
       1.701726              0.0085363336            0.000453304395           
       1.704366             0.00957669408            0.000505807524           
       1.707007             0.00845393381            0.000464639875           
       1.709647             0.00916719475            0.000489308007           
       1.712287             0.00850037425            0.000475277184           
       1.714928             0.00870370367            0.000484805446           
       1.717568             0.00867225008            0.000455862713           
       1.720209              0.0088851781            0.000483310818           
       1.722849              0.0083618263             0.00046645044           
       1.725489             0.00823415242            0.000463264378           
       1.728130             0.00909790069            0.000517498164           
       1.730770               0.008140727            0.000464911767           
       1.733410             0.00881531122            0.000476186256           
       1.736051              0.0097770383            0.000504979915           
       1.738691             0.00991248968            0.000498158625           
       1.741332             0.00893238577            0.000486717484           
       1.743972             0.00873588147            0.000497059139           
       1.746612             0.00779263703            0.000450799544           
       1.749253             0.00883423575            0.000489461755           
       1.751893             0.00814789911            0.000466613754           
       1.754533             0.00866895729            0.000480853052           
       1.757174             0.00713153719            0.000432050401           
       1.759814             0.00931303799              0.0004862449           
       1.762455             0.00830816486            0.000467696542           
       1.765095             0.00831135002             0.00044749436           
       1.767735             0.00849935544            0.000466487751           
       1.770376             0.00892754905            0.000479354472           
       1.773016             0.00849609771            0.000464495598           
       1.775657             0.00900694914            0.000471374854           
       1.778297              0.0088680893            0.000463699617           
       1.780937             0.00840370707            0.000476447716           
       1.783578             0.00937813393            0.000490727889           
       1.786218              0.0084596979            0.000486404896           
       1.788858             0.00792045416            0.000447001353           
       1.791499             0.00896493618             0.00047022127           
       1.794139             0.00904910766            0.000468590699           
       1.796780             0.00890928397            0.000462714843           
       1.799420             0.00976265171            0.000481686227           
       1.802060             0.00980360948            0.000486594467           
       1.804701             0.00927280403            0.000454140819           
       1.807341             0.00859199285             0.00045935112           
       1.809981             0.00862397234            0.000461739524           
       1.812622             0.00882437326            0.000458664747           
       1.815262             0.00827816289            0.000453679554           
       1.817903             0.00936511006            0.000475396118           
       1.820543             0.00885746964            0.000469536252           
       1.823183             0.00979487177            0.000493486017           
       1.825824             0.00881890755            0.000447352318           
       1.828464             0.00937851461            0.000480953845           
       1.831105             0.00878681566            0.000452663733           
       1.833745             0.00902031383            0.000468433907           
       1.836385             0.00906536958            0.000483004066           
       1.839026              0.0071009669            0.000426130353           
       1.841666              0.0085195038            0.000465101952           
       1.844306             0.00867617903             0.00045655243           
       1.846947             0.00874785453            0.000462452897           
       1.849587              0.0087919425            0.000511945316           
       1.852228             0.00843227305            0.000453357653           
       1.854868             0.00832371132            0.000475812478           
       1.857508             0.00854953521            0.000477494126           
       1.860149             0.00913039534            0.000502413452           
       1.862789             0.00800743913            0.000454145139           
       1.865429             0.00758847852            0.000461489739           
       1.868070             0.00819142396            0.000473082728           
       1.870710             0.00866446599            0.000475333684           
       1.873351             0.00840903011            0.000474063589           
       1.875991              0.0087197987            0.000490622473           
       1.878631             0.00864343032            0.000479114036           
       1.881272              0.0088873005            0.000482570835           
       1.883912             0.00811799167            0.000479987372           
       1.886553             0.00832703914            0.000480693278           
       1.889193             0.00801219959            0.000470712713           
       1.891833             0.00852547998            0.000504269007           
       1.894474             0.00911799933            0.000516956263           
       1.897114             0.00960938811            0.000513550626           
       1.899754             0.00868089552            0.000490152241           
       1.902395             0.00844667332            0.000474041646           
       1.905035              0.0089498744             0.00051682892           
       1.907676             0.00826278243            0.000468041337           
       1.910316             0.00792402435            0.000470516419           
       1.912956             0.00787414713            0.000458714476           
       1.915597             0.00815435858            0.000469414003           
       1.918237             0.00858297685            0.000497368323           
       1.920878             0.00917048025            0.000512004401           
       1.923518              0.0084514725            0.000491731551           
       1.926158             0.00863776928            0.000490670767           
       1.928799             0.00873463118            0.000487702824           
       1.931439             0.00934008818            0.000517550517           
       1.934079             0.00928327902            0.000537890377           
       1.936720             0.00772924364            0.000454747805           
       1.939360             0.00793515972            0.000491572532           
       1.942001             0.00820395162            0.000458118746           
       1.944641             0.00816597557            0.000466060203           
       1.947281              0.0077055399            0.000448557215           
       1.949922             0.00811621207            0.000475506146           
       1.952562             0.00867586719            0.000507037545           
       1.955202             0.00764947856             0.00047552119           
       1.957843             0.00807506819             0.00047590026           
       1.960483             0.00854950776            0.000511960999           
       1.963124             0.00798642818            0.000484663394           
       1.965764             0.00826575211             0.00046497511           
       1.968404             0.00763117782            0.000442549051           
       1.971045             0.00842929539            0.000474210202           
       1.973685              0.0077838203            0.000477987168           
       1.976326             0.00770564022            0.000469044425           
       1.978966             0.00808103923             0.00048454922           
       1.981606             0.00783482882            0.000487061028           
       1.984247             0.00749349131            0.000473201406           
       1.986887             0.00853510447            0.000498970179           
       1.989527              0.0087693697             0.00050032466           
       1.992168             0.00804362147            0.000497183964           
       1.994808             0.00752442277            0.000478808945           
       1.997449             0.00815121139            0.000488118179           
       2.000089             0.00824031902            0.000488833162           
       2.002729             0.00734337858            0.000461739364           
       2.005370             0.00801118053            0.000477088562           
       2.008010             0.00788101907            0.000493848844           
       2.010650             0.00724453285            0.000477020066           
       2.013291              0.0079270189            0.000478747289           
       2.015931             0.00779082436            0.000471261763           
       2.018572             0.00803969009            0.000512046426           
       2.021212             0.00724878698            0.000477472713           
       2.023852             0.00700261262            0.000444165623           
       2.026493             0.00780859331             0.00048998604           
       2.029133             0.00740216162            0.000467463484           
       2.031774             0.00818994155            0.000516038445           
       2.034414             0.00805219946            0.000470817199           
       2.037054             0.00786687168            0.000477163082           
       2.039695               0.006868304            0.000442484509           
       2.042335             0.00812055175            0.000500003894           
       2.044975              0.0079552762            0.000488887855           
       2.047616             0.00657949792            0.000443504302           
       2.050256             0.00669544983            0.000451629173           
       2.052897             0.00871268285            0.000524688594           
       2.055537             0.00680863763            0.000448270909           
       2.058177             0.00758177479            0.000463231603           
       2.060818             0.00775752668            0.000490863255           
       2.063458               0.007984083            0.000518944034           
       2.066098             0.00848805847            0.000504752088           
       2.068739             0.00754993021            0.000483441747           
       2.071379             0.00738350092            0.000490552177           
       2.074020              0.0067887921            0.000460158867           
       2.076660             0.00731461148            0.000481508407           
       2.079300             0.00803840514            0.000517137465           
       2.081941             0.00827469419            0.000480407102           
       2.084581             0.00745543721            0.000481318168           
       2.087222             0.00702215479            0.000450495119           
       2.089862             0.00753243911             0.00050817282           
       2.092502             0.00760729138            0.000495042519           
       2.095143              0.0081393723             0.00052878107           
       2.097783             0.00634545389            0.000452025209           
       2.100423             0.00792147571            0.000486662143           
       2.103064             0.00785729958            0.000502927666           
       2.105704             0.00761594829             0.00049269068           
       2.108345             0.00723659537            0.000461404713           
       2.110985             0.00661470852            0.000471162714           
       2.113625             0.00765432592             0.00051126074           
       2.116266             0.00772620892             0.00052094336           
       2.118906             0.00689009232            0.000458468612           
       2.121546             0.00735932579            0.000464776222           
       2.124187             0.00736006188            0.000487895889           
       2.126827             0.00810680504             0.00051776357           
       2.129468             0.00835125562            0.000526854185           
       2.132108              0.0078686981            0.000497559313           
       2.134748             0.00820302148            0.000506048447           
       2.137389              0.0071221151            0.000491923297           
       2.140029             0.00758551447            0.000454501268           
       2.142670             0.00699679088            0.000466505309           
       2.145310             0.00778020901            0.000478803695           
       2.147950             0.00786495667            0.000495496285           
       2.150591             0.00753371346            0.000480048866           
       2.153231             0.00733726057            0.000487650452           
       2.155871             0.00722536693            0.000467496794           
       2.158512             0.00708841347             0.00048315463           
       2.161152             0.00748460646            0.000480915247           
       2.163793              0.0074204414            0.000476693652           
       2.166433             0.00815281996            0.000513102719           
       2.169073             0.00726222024            0.000473485814           
       2.171714             0.00726823804            0.000470140952           
       2.174354              0.0070482301            0.000483761662           
       2.176995             0.00731049799            0.000490606874           
       2.179635             0.00810350087            0.000545826273           
       2.182275             0.00772057316            0.000503023014           
       2.184916             0.00790110635            0.000491502541           
       2.187556             0.00784669959            0.000484898117           
       2.190196             0.00663115072            0.000465813559           
       2.192837             0.00705902588            0.000477992073           
       2.195477             0.00722376266            0.000460995449           
       2.198118             0.00764769821            0.000486483656           
       2.200758              0.0076959401            0.000500674404           
       2.203398             0.00726424574            0.000489541258           
       2.206039             0.00646056413            0.000436929158           
       2.208679             0.00807649863            0.000499894998           
       2.211319             0.00760649797            0.000487928911           
       2.213960             0.00707258954             0.00047679708           
       2.216600             0.00853546935            0.000541850148           
       2.219241             0.00846528156             0.00051572872           
       2.221881              0.0069386787            0.000467876272           
       2.224521             0.00779353147            0.000501937005           
       2.227162             0.00785586017            0.000493850069           
       2.229802             0.00760295842            0.000501044438           
       2.232443              0.0071989136            0.000479859099           
       2.235083             0.00688619667            0.000483164662           
       2.237723             0.00739788306            0.000480584623           
       2.240364             0.00704999836            0.000480706673           
       2.243004             0.00686635572            0.000470617554           
       2.245644             0.00635912459            0.000457434661           
       2.248285             0.00724366691            0.000478432977           
       2.250925             0.00829509854            0.000515089658           
       2.253566             0.00639622681            0.000483551559           
       2.256206              0.0079710532            0.000529013767           
       2.258846             0.00717562954            0.000477469842           
       2.261487             0.00732986573            0.000506506216           
       2.264127             0.00757714434            0.000497358602           
       2.266767             0.00763895146            0.000512687902           
       2.269408             0.00799263204            0.000526569764           
       2.272048             0.00706344315            0.000492061187           
       2.274689             0.00742733205            0.000511225298           
       2.277329             0.00792375304            0.000497177462           
       2.279969             0.00697596673            0.000496558555           
       2.282610             0.00711736819            0.000487615966           
       2.285250             0.00752221026            0.000479804742           
       2.287891             0.00689695844            0.000492579752           
       2.290531             0.00705392322             0.00050484994           
       2.293171             0.00764741457            0.000512039585           
       2.295812             0.00629093194             0.00046254552           
       2.298452              0.0063943788            0.000487660409           
       2.301092             0.00778020663            0.000499789395           
       2.303733             0.00669940947            0.000482490676           
       2.306373              0.0067399137            0.000491568475           
       2.309014             0.00734074419            0.000503003572           
       2.311654             0.00669276842            0.000501205845           
       2.314294             0.00736195664             0.00048429799           
       2.316935             0.00739467593            0.000487378278           
       2.319575             0.00752048972            0.000514985517           
       2.322215              0.0071081966            0.000521782782           
       2.324856             0.00761781557            0.000496624342           
       2.327496             0.00691429026            0.000503092818           
       2.330137              0.0077121169             0.00050843929           
       2.332777              0.0073369961            0.000511346183           
       2.335417              0.0067140945            0.000474556877           
       2.338058             0.00732915352            0.000510628189           
       2.340698             0.00657456367            0.000479827351           
       2.343339             0.00720363307            0.000513311201           
       2.345979             0.00854921803            0.000529048875           
       2.348619             0.00703366857            0.000497410908           
       2.351260             0.00659973496            0.000479015864           
       2.353900             0.00847875103            0.000541221016           
       2.356540             0.00716697082            0.000496889249           
       2.359181              0.0068631294             0.00047942558           
       2.361821             0.00662167263            0.000454892845           
       2.364462             0.00752544045            0.000507190309           
       2.367102             0.00638501693            0.000480104136           
       2.369742             0.00648442132            0.000509261256           
       2.372383             0.00721940772            0.000486567482           
       2.375023             0.00656352637            0.000487700456           
       2.377663             0.00728788332            0.000491371362           
       2.380304             0.00637155821             0.00046710401           
       2.382944             0.00749050145            0.000482388302           
       2.385585              0.0068542546            0.000492140737           
       2.388225             0.00704679226            0.000496660239           
       2.390865             0.00751848734            0.000507743825           
       2.393506             0.00663318303            0.000467916818           
       2.396146             0.00756642962            0.000540352697           
       2.398787             0.00750246025            0.000495867436           
       2.401427             0.00677992176            0.000454995534           
       2.404067             0.00664403127            0.000460459423           
       2.406708              0.0062890645             0.00044261811           
       2.409348              0.0077744904             0.00052199086           
       2.411988             0.00801166055            0.000519177943           
       2.414629             0.00754436523            0.000519500019           
       2.417269              0.0069130362            0.000503094727           
       2.419910             0.00651173509            0.000489407144           
       2.422550             0.00754126543            0.000503891734           
       2.425190             0.00681375114            0.000504884329           
       2.427831             0.00677046596            0.000500449003           
       2.430471             0.00641875197            0.000464225396           
       2.433112             0.00620658423            0.000444511073           
       2.435752             0.00702476873            0.000500479252           
       2.438392             0.00783334894            0.000510109096           
       2.441033             0.00743196811            0.000526580478           
       2.443673             0.00811219662            0.000550574151           
       2.446313             0.00677482789            0.000503591583           
       2.448954             0.00774072768            0.000512531942           
       2.451594             0.00721058672            0.000531885561           
       2.454235             0.00728566287            0.000501635737           
       2.456875             0.00755407933            0.000534472268           
       2.459515             0.00851515558            0.000582143925           
       2.462156             0.00712789733            0.000502864359           
       2.464796             0.00761184986            0.000512950751           
       2.467436             0.00724172461            0.000517394052           
       2.470077             0.00823209324            0.000522854377           
       2.472717             0.00709485721            0.000487500029           
       2.475358             0.00696730251            0.000488135193           
       2.477998             0.00764095525            0.000502571217           
       2.480638             0.00875511179            0.000547524908           
       2.483279             0.00755235677            0.000531492106           
       2.485919              0.0070395645            0.000494519281           
       2.488560             0.00700850526             0.00049204843           
       2.491200             0.00726224126             0.00051577022           
       2.493840              0.0076249761            0.000559216002           
       2.496481             0.00716932695            0.000533379948           
       2.499121             0.00690241692            0.000509048323           
       2.501761              0.0070521296              0.0005213567           
       2.504402             0.00608859489            0.000477355061           
       2.507042               0.006819514            0.000501453316           
       2.509683             0.00762201597             0.00052203538           
       2.512323             0.00642340291            0.000503314725           
       2.514963             0.00642442508            0.000497136089           
       2.517604             0.00778207196            0.000567751454           
       2.520244             0.00772870967            0.000530439985           
       2.522884              0.0078954779            0.000543799494           
       2.525525             0.00915349752            0.000592167659           
       2.528165               0.007959775            0.000543598916           
       2.530806             0.00706790328             0.00052116846           
       2.533446             0.00801142375             0.00054302221           
       2.536086             0.00708079106            0.000505940016           
       2.538727             0.00775510107            0.000507958281           
       2.541367             0.00727832574            0.000496943634           
       2.544008             0.00734576127            0.000515593549           
       2.546648             0.00635274403            0.000487703531           
       2.549288             0.00611818914             0.00048836759           
       2.551929             0.00742452143            0.000529408765           
       2.554569             0.00672861208            0.000485549633           
       2.557209             0.00709646521            0.000503224972           
       2.559850             0.00667087196            0.000489468586           
       2.562490             0.00671236141            0.000507462824           
       2.565131             0.00764126243            0.000561387803           
       2.567771             0.00708949402            0.000521353994           
       2.570411             0.00768725272            0.000537014546           
       2.573052             0.00826062815            0.000563692411           
       2.575692             0.00775577716            0.000542888258           
       2.578332             0.00670738271            0.000506951658           
       2.580973             0.00768396249            0.000537440844           
       2.583613              0.0081370664            0.000539890788           
       2.586254             0.00794237847            0.000532651668           
       2.588894             0.00662641493            0.000505235496           
       2.591534             0.00677600577            0.000528884094           
       2.594175             0.00682400586            0.000520738433           
       2.596815             0.00650053803            0.000511243472           
       2.599456             0.00726794394            0.000512628245           
       2.602096             0.00762333899            0.000529007672           
       2.604736              0.0066961848            0.000507552468           
       2.607377             0.00652883747            0.000487962635           
       2.610017             0.00731819624            0.000507578692           
       2.612657             0.00673209728            0.000517816177           
       2.615298             0.00774217735            0.000542152867           
       2.617938             0.00681916287            0.000544296787           
       2.620579               0.007313812            0.000541138942           
       2.623219             0.00698505609            0.000528083166           
       2.625859             0.00705854347            0.000516138783           
       2.628500             0.00719148625            0.000517561871           
       2.631140             0.00691378106            0.000515289706           
       2.633780             0.00805696739            0.000555778514           
       2.636421             0.00805051975            0.000569218274           
       2.639061             0.00805208512            0.000535905672           
       2.641702             0.00742124407            0.000526395422           
       2.644342             0.00669835116            0.000502231892           
       2.646982             0.00684244229            0.000500016436           
       2.649623               0.006488891            0.000510280051           
       2.652263             0.00668103581            0.000512584074           
       2.654904             0.00689856523             0.00052138591           
       2.657544             0.00818532862            0.000534935035           
       2.660184             0.00755691543            0.000543951838           
       2.662825             0.00761178233            0.000558588268           
       2.665465             0.00674901514            0.000508708826           
       2.668105             0.00702715113             0.00054713579           
       2.670746             0.00755623964            0.000524119197           
       2.673386             0.00817338413            0.000561771809           
       2.676027             0.00804779841             0.00054849273           
       2.678667             0.00972391245            0.000588289934           
       2.681307               0.011358575            0.000624727353           
       2.683948              0.0149238481            0.000735751651           
       2.686588              0.0117060073            0.000640815014           
       2.689229              0.0101002584            0.000581647151           
       2.691869              0.0100910258             0.00061446217           
       2.694509             0.00862000504            0.000568224332           
       2.697150             0.00736395986            0.000516675651           
       2.699790             0.00708310599            0.000531230604           
       2.702430             0.00903346621            0.000573458121           
       2.705071             0.00784073519            0.000552057172           
       2.707711              0.0064165727            0.000484714818           
       2.710352             0.00718906606            0.000542115621           
       2.712992              0.0072089312            0.000552901674           
       2.715632             0.00686461039            0.000500582346           
       2.718273              0.0071296411            0.000528706109           
       2.720913              0.0072456925            0.000531475163           
       2.723553             0.00727315092            0.000536053944           
       2.726194             0.00655774283            0.000532080867           
       2.728834             0.00665125858            0.000536112679           
       2.731475             0.00779097073            0.000535501127           
       2.734115             0.00793543998            0.000557216154           
       2.736755             0.00696806669            0.000526446573           
       2.739396              0.0072506577            0.000533904157           
       2.742036             0.00735332517            0.000562706675           
       2.744677              0.0067308623            0.000522360915           
       2.747317             0.00678936925            0.000520885302           
       2.749957             0.00752476481            0.000552218578           
       2.752598             0.00748948324             0.00055690137           
       2.755238             0.00853061213            0.000605079625           
       2.757878             0.00793310572            0.000578402569           
       2.760519              0.0100717413            0.000644809403           
       2.763159              0.0107194968            0.000658573784           
       2.765800             0.00775441511            0.000533798753           
       2.768440             0.00854438809            0.000564457419           
       2.771080             0.00810410338            0.000554310677           
       2.773721             0.00749664454            0.000546884115           
       2.776361             0.00667596288            0.000523201976           
       2.779001             0.00777458013            0.000584713992           
       2.781642             0.00605954603            0.000512404188           
       2.784282             0.00638612551            0.000534681038           
       2.786923             0.00698383981            0.000564066526           
       2.789563             0.00606942921            0.000506449761           
       2.792203              0.0063239071            0.000493842428           
       2.794844             0.00744249475            0.000587163443           
       2.797484             0.00720944837            0.000545394175           
       2.800125             0.00697420595            0.000564048286           
       2.802765             0.00682418401            0.000548350088           
       2.805405             0.00621070542            0.000524892605           
       2.808046             0.00627951369            0.000537070569           
       2.810686             0.00609423333            0.000486170317           
       2.813326              0.0064854828            0.000520955022           
       2.815967             0.00699151389            0.000556276406           
       2.818607             0.00632581593            0.000504936142           
       2.821248             0.00625296663            0.000491597841           
       2.823888             0.00741587665            0.000555720117           
       2.826528             0.00657346551            0.000506698399           
       2.829169             0.00711287117             0.00055208456           
       2.831809             0.00770233614            0.000582320259           
       2.834449             0.00671836596            0.000547291207           
       2.837090             0.00715247844             0.00054540704           
       2.839730             0.00642641722            0.000514459641           
       2.842371             0.00639824491            0.000514071614           
       2.845011             0.00548992989            0.000479981639           
       2.847651             0.00694271727            0.000540429463           
       2.850292             0.00706794229            0.000550632982           
       2.852932             0.00715864269            0.000566231643           
       2.855573             0.00678067432            0.000534563859           
       2.858213             0.00711536533            0.000575044178           
       2.860853             0.00678655787            0.000522417367           
       2.863494             0.00719880808            0.000557076332           
       2.866134             0.00613901697            0.000534695501           
       2.868774             0.00679669901            0.000552928632           
       2.871415             0.00663454353            0.000554802243           
       2.874055             0.00648400958            0.000524271088           
       2.876696             0.00738225471            0.000574539101           
       2.879336             0.00753378018            0.000559399351           
       2.881976             0.00689642123            0.000552036231           
       2.884617             0.00738076934            0.000562705204           
       2.887257              0.0062410071            0.000520107751           
       2.889897             0.00694338524            0.000537304093           
       2.892538             0.00738297556            0.000606965577           
       2.895178             0.00851487403            0.000588889196           
       2.897819             0.00655823948            0.000527204327           
       2.900459             0.00623066046            0.000503872571           
       2.903099             0.00714345666            0.000533997812           
       2.905740             0.00734848717            0.000555619537           
       2.908380             0.00755981918            0.000569955581           
       2.911021             0.00656664826            0.000539835357           
       2.913661             0.00615642238            0.000522544789           
       2.916301             0.00814172943            0.000601494435           
       2.918942             0.00665007348            0.000519975214           
       2.921582             0.00641513533            0.000534347295           
       2.924222              0.0075095725            0.000560100399           
       2.926863             0.00753270537            0.000584307105           
       2.929503             0.00724219496            0.000579716706           
       2.932144             0.00684518508            0.000541024426           
       2.934784             0.00724490018            0.000547469921           
       2.937424             0.00679894175             0.00053579765           
       2.940065             0.00726851252            0.000528455324           
       2.942705             0.00725287648             0.00052722433           
       2.945346             0.00738588484            0.000564625558           
       2.947986             0.00543031829             0.00049365633           
       2.950626             0.00674328471            0.000547010513           
       2.953267             0.00773659673            0.000576448563           
       2.955907             0.00738574442            0.000584269603           
       2.958547             0.00749868927            0.000555781939           
       2.961188             0.00645966893            0.000538167459           
       2.963828             0.00681520472            0.000540720324           
       2.966469             0.00673569043            0.000527341287           
       2.969109             0.00671587745            0.000534366997           
       2.971749             0.00621396413            0.000510804664           
       2.974390             0.00689158639            0.000528619923           
       2.977030             0.00747289529             0.00056276518           
       2.979670             0.00974614616            0.000625136444           
       2.982311             0.00895961468            0.000621228322           
       2.984951             0.00682059448            0.000515511535           
       2.987592             0.00624842718             0.00050329802           
       2.990232             0.00750582775            0.000573677746           
       2.992872             0.00687525223            0.000517175415           
       2.995513             0.00792559542            0.000543243449           
       2.998153              0.0109234923            0.000648478202           
       3.000794              0.0129666574            0.000684343798           
       3.003434              0.0131352152            0.000689817409           
       3.006074              0.0502335854             0.00133009464           
       3.008715               0.133152805             0.00209039822           
       3.011355               0.183158039             0.00236422823           
       3.013995              0.0880045579             0.00164327025           
       3.016636              0.0601300867             0.00133011781           
       3.019276               0.132539418             0.00194115962           
       3.021917                0.51948752             0.00369528101           
       3.024557                1.70760652             0.00658694127           
       3.027197                1.11951918             0.00519980225           
       3.029838               0.515163636             0.00357734361           
       3.032478               0.256487584             0.00252675182           
       3.035118              0.0724114385             0.00136056968           
       3.037759              0.0991816614             0.00159027486           
       3.040399               0.137666318             0.00193263619           
       3.043040               0.553412017             0.00392239654           
       3.045680               0.385698312             0.00308088317           
       3.048320              0.0811634206             0.00144403825           
       3.050961               0.110196218              0.0017122517           
       3.053601              0.0840919108             0.00144059642           
       3.056242              0.0562036413             0.00125218214           
       3.058882              0.0476159337             0.00123634863           
       3.061522              0.0366395228             0.00106404865           
       3.064163              0.0433870052             0.00114330705           
       3.066803               0.104202325             0.00186535417           
       3.069443               0.105826584             0.00196679014           
       3.072084              0.0507648622             0.00132642338           
       3.074724              0.0400075266              0.0013150304           
       3.077365              0.0843444841             0.00197654575           
       3.080005               0.016856471            0.000888619488           
       3.082645              0.0116587782            0.000776362845           
       3.085286              0.0137784877            0.000850652119           
       3.087926             0.00966580115             0.00070698467           
       3.090566              0.0109037675            0.000735732422           
       3.093207              0.0118312876            0.000797504029           
       3.095847             0.00798981971            0.000628160378           
       3.098488             0.00733312195            0.000667284473           
       3.101128             0.00967077349              0.0007712252           
       3.103768             0.00846216579            0.000707852737           
       3.106409             0.00849869687            0.000754970057           
       3.109049             0.00832011352            0.000716854915           
       3.111690             0.00804599746            0.000692845464           
       3.114330             0.00736962105            0.000677190701           
       3.116970             0.00725536535             0.00067707917           
       3.119611              0.0128025577            0.000957363653           
       3.122251              0.0208831619             0.00127900522           
       3.124891               0.034732098             0.00166481623           
       3.127532              0.0228119017             0.00131992616           
       3.130172              0.0138409835             0.00104590589           
       3.132813             0.00892594301            0.000826868974           
       3.135453             0.00719872372            0.000736453299           
       3.138093             0.00582311162            0.000717692015           
       3.140734             0.00716004061             0.00073421105           
       3.143374             0.00732983775             0.00078561305           
       3.146014             0.00602975822            0.000767085702           
       3.148655               0.006822873            0.000758525594           
       3.151295             0.00582917465            0.000747149123           
       3.153936             0.00678012526            0.000778370171           
       3.156576             0.00659481849            0.000757217976           
       3.159216             0.00657740117            0.000759999832           
       3.161857             0.00564507029            0.000701212934           
       3.164497             0.00778623586            0.000865291927           
       3.167138             0.00883033184            0.000952116964           
       3.169778             0.00743421686            0.000859206587           
       3.172418             0.00573393927             0.00074690683           
       3.175059             0.00686792539            0.000724689801           
       3.177699             0.00622691723            0.000730713384           
       3.180339             0.00618577867            0.000780312295           
       3.182980             0.00640308768            0.000820812276           
       3.185620             0.00699586072            0.000873764567           
       3.188261             0.00450769816            0.000713892916           
       3.190901             0.00602303774            0.000758951898           
       3.193541             0.00547389114            0.000760252026           
       3.196182             0.00551474418            0.000795242711           
       3.198822             0.00790477198             0.00095241719           
       3.201463             0.00464397864            0.000717431054           
       3.204103              0.0059240589            0.000805368015           
       3.206743             0.00591856898            0.000804919197           
       3.209384             0.00599888933            0.000875527526           
       3.212024             0.00700099324            0.000881812487           
       3.214664             0.00719516134              0.0010165566           
       3.217305             0.00359616961            0.000683148407           
       3.219945              0.0058924398            0.000900050446           
       3.222586             0.00560240497            0.000835918492           
       3.225226             0.00583404805            0.000946298201           
       3.227866             0.00692221266            0.000942121476           
       3.230507             0.00756956747             0.00102125696           
       3.233147             0.00504729734            0.000840662597           
       3.235787             0.00438082053            0.000801502416           
       3.238428             0.00685129216             0.00108164744           
       3.241068             0.00624603037            0.000965686627           
       3.243709             0.00827889051             0.00114864905           
       3.246349             0.00490480771            0.000805959791           
       3.248989             0.00274849997            0.000712390717           
       3.251630             0.00444666123            0.000872572238           
       3.254270             0.00725104181            0.000995841787           
       3.256911             0.00569911133            0.000963302386           
       3.259551             0.00605251371             0.00106875207           
       3.262191             0.00785325871              0.0012435154           
       3.264832             0.00708884872             0.00123443462           
       3.267472             0.00621870861             0.00108463336           
       3.270112             0.00553859856             0.00113121501           
       3.272753             0.00542248956             0.00102451746           
       3.275393             0.00725399904             0.00120908608           
       3.278034             0.00701298051             0.00118949941           
       3.280674              0.0056792831             0.00116156893           
       3.283314             0.00609539949             0.00107623951           
       3.285955             0.00546624103             0.00105157322           
       3.288595             0.00630690903             0.00125666074           
       3.291235             0.00474054753             0.00111998839           
       3.293876             0.00380806692             0.00101823475           
       3.296516             0.00503160324             0.00112364779           
       3.299157             0.00589225282             0.00120067688           
       3.301797             0.00573284397             0.00135094036           
       3.304437             0.00622452383             0.00121958778           
       3.307078             0.00694682584             0.00141926009           
       3.309718             0.00803738571             0.00157572886           
       3.312359             0.00556685176              0.0013116926           
       3.314999             0.00417310869             0.00111817277           
       3.317639             0.00494708073             0.00116434783           
       3.320280             0.00463254789             0.00119794193           
       3.322920             0.00545538555             0.00132186559           
       3.325560             0.00444856604             0.00119448182           
       3.328201             0.00493966081             0.00113360024           
       3.330841             0.00423769984             0.00127787787           
       3.333482             0.00411461914             0.00119021762           
       3.336122             0.00547299537             0.00137332613           
       3.338762             0.00738341411             0.00184259536           
       3.341403             0.00626947728             0.00162242975           
       3.344043             0.00385246998             0.00122103583           
       3.346683             0.00280576498             0.00106383797           
       3.349324              0.0061550627             0.00177157484           
       3.351964             0.00453729787             0.00160844779           
       3.354605             0.00222396558              0.0012878538           
       3.357245             0.00595980262             0.00190184986           
       3.359885             0.00389807556             0.00123103667           
       3.362526             0.00358042447             0.00147540535           
       3.365166             0.00587734853             0.00178293558           
       3.367807             0.00533744397             0.00217446588           
       3.370447             0.00730442858             0.00211009826           
       3.373087             0.00556746799             0.00196999751           
       3.375728             0.00443591543              0.0019845757           
       3.378368             0.00370756924             0.00269271615           
       3.381008              0.0129662709              0.0037543229           
       3.383649             0.00766453627             0.00231553568           
       3.386289             0.00294722898             0.00169940158           
       3.388930              0.0048728276              0.0034563914           
       3.391570             0.00365271916             0.00211691306           
       3.394210             0.00393043231             0.00277897736           
       3.396851             0.00486627741              0.0034588926           
       3.399491             0.00732968864             0.00424622985           
       3.402131           -2.63057607e-05                         0           
       3.404772             0.00961267222             0.00973193209           
       3.407412                       nan                       nan           
       3.410053           -2.63832796e-05                         0           
       3.412693                       nan                       nan           
       3.415333              0.0089564965              0.0094144473           
