################################################################################
# EDF_DataBlockID                     0.Image.Psd
# EDF_BinarySize                      2105344
# EDF_HeaderSize                      2560
# ByteOrder                           LowByteFirst
# DataType                            FloatValue
# Dim_1                               512
# Dim_2                               1028
# Image                               0
# HeaderID                            EH:000000:000000:000000
# Size                                2105344
# Center_1                            304.9000
# Center_2                            588.7000
# Comment                             Xenocs_Cell_Window - 20251028_20perc_iodine_1.23mg
# DDummy                              0.6
# Date                                2025-11-02T13:58:13
# Delta                               21.910000
# Dummy                               -1.5
# ExposureTime                        360
# Gamma                               15.360000
# Intensity1                          8.78242e-10
# PSize_1                             7.5e-05
# PSize_2                             7.5e-05
# Pressure                            0.0325346
# SampleDistance                      0.115750
# SampleEnvKind                       large
# SampleEnvPN                         ElectroChemical cell
# SampleEnvSN                         1141
# Thickness                           0
# Wavelength                          1.541891e-10
# Wavelength                          1.54189e-10
# aux                                 0
# aux_dial                            0.002375
# beamx                               588.434
# beamx_dial                          588.434
# beamz                               657.808
# beamz_dial                          657.808
# det0x                               0
# det0x_dial                          6.36945
# det0xvd                             0
# det0xvd_dial                        0
# det0y                               450.002
# det0y_dial                          481.635
# det0z                               0
# det0z_dial                          1.23302
# det0zvd                             0
# det0zvd_dial                        0
# mag                                 1.818
# mag_dial                            1.818
# om                                  0.2499
# om_dial                             -0.610199
# phi                                 -0.0120535
# phi_dial                            0
# ry                                  0.599993
# ry_dial                             0.599993
# s1bot                               0.8
# s1bot_dial                          -1.66094
# s1hl                                0.8
# s1hl_dial                           -0.608437
# s1hr                                0.8
# s1hr_dial                           0.970938
# s1top                               0.8
# s1top_dial                          -0.461562
# s2bot                               0.45
# s2bot_dial                          1.36109
# s2hl                                0.45
# s2hl_dial                           -0.83375
# s2hr                                0.45
# s2hr_dial                           -0.118594
# s2top                               0.45
# s2top_dial                          1.44734
# w2theta                             32
# w2theta_dial                        32
# waxsch                              19.2605
# waxsch_dial                         -32.7355
# waxsh                               137.085
# waxsh_dial                          -43.5338
# waxsth                              26.0607
# waxsth_dial                         -19.4086
# waxsz                               67.0407
# waxsz_dial                          -23.7954
# wind                                65.9854
# wind_dial                           66.0041
# wpsi                                124
# wpsi_dial                           124
# wstod                               115
# wstod_dial                          115
# x                                   0
# x_dial                              1.00969
# z                                   0
# z_dial                              13.3172
# CountCutoff                         6807993
# DetectorModel                       Dectris EIGER2 Si 500K, S/N E-01-0554
# ThresholdSetting                    4023.88989258
# Saturation                          0
# FlatField                           Corrected
# BackgroundReductionExtra            0.02
# BackgroundCorrectionConstant        0.0026712
# Detector                            0
# Monitor                             0
# Pil_Roi0                            0
# SumForIntensity1                    3.16167e+08
# TransmittedFlux                     878242
# det                                 0
# mon                                 0
# pilai0                              3.16167e+08
# pilai1                              795982
# pilct0                              5.46666e+08
# pilct1                              795982
# pilroi0                             0
# pilroi1                             0
# sec                                 1
# title                               20251028_20perc_iodine_1.23mg_1_01087.edf
# usaxs0                              0
# Operation                           Azimuthal average I(q)
# Error_model                         ErrorModel.poisson
# Geometrical_correction              True
# Transmission_correction             True
# Thickness_correction                False
# Binning mode                        Uniform
# Binning factor                      1.0
# Psi                                 0.0
# Omega                               0.2499
# MaskInvalidPixels                   True
# DetectorEdge                        3
# MaskFiles                           ['WAXS_corrected.edf']
################################################################################
    q(A⁻¹)                Intensity(a.u.)            Sigma_I(a.u.)            
       0.693100             0.00401007195             0.00416565261           
       0.695741              0.0081727981              0.0048528858           
       0.698381             0.00824331481             0.00597005712           
       0.701021           -2.30815981e-05                         0           
       0.703662               0.011091266             0.00565079758           
       0.706302             0.00842243501              0.0038123712           
       0.708942             0.00834618156             0.00489825414           
       0.711583              0.0085487919              0.0042927497           
       0.714223              0.0142490436             0.00639846754           
       0.716864              0.0109941594             0.00367734954           
       0.719504             0.00279171934             0.00199966677           
       0.722144             0.00734281927             0.00300330881           
       0.724785             0.00700955495             0.00234069699           
       0.727425              0.0114696132             0.00405055383           
       0.730065             0.00708697907             0.00225222521           
       0.732706             0.00649848604             0.00181107351           
       0.735346             0.00595754972             0.00226041371           
       0.737987             0.00596618299             0.00159845145           
       0.740627             0.00566337892              0.0023236754           
       0.743267             0.00679795474             0.00170517495           
       0.745908             0.00811471742             0.00202127421           
       0.748548             0.00767687427             0.00181215433           
       0.751189             0.00853852796              0.0025752002           
       0.753829             0.00722462079             0.00217746975           
       0.756469             0.00927514375             0.00198947403           
       0.759110             0.00666616493             0.00177740546           
       0.761750             0.00594164922             0.00148375656           
       0.764390             0.00599579707             0.00156004841           
       0.767031             0.00638347159             0.00139393409           
       0.769671             0.00331516135             0.00125308563           
       0.772312             0.00464246113             0.00112889592           
       0.774952             0.00699486115             0.00187123801           
       0.777592             0.00369121236            0.000990104849           
       0.780233             0.00464718242               0.001340341           
       0.782873             0.00669551426             0.00153870386           
       0.785513             0.00564199863             0.00151002222           
       0.788154             0.00560293628             0.00125880529           
       0.790794             0.00402940501             0.00127623372           
       0.793435             0.00909633006             0.00172263425           
       0.796075             0.00758498997             0.00151531751           
       0.798715             0.00883654525             0.00193276981           
       0.801356             0.00864900426             0.00164572721           
       0.803996              0.0104044772             0.00184025346           
       0.806637             0.00737230065             0.00123276771           
       0.809277              0.0074772813              0.0013437947           
       0.811917             0.00718481554             0.00123142091           
       0.814558              0.0065891847             0.00122564419           
       0.817198             0.00536064441             0.00105027277           
       0.819838             0.00930044886             0.00140009588           
       0.822479             0.00759119419               0.001485354           
       0.825119             0.00822423528             0.00131588036           
       0.827760             0.00649207749             0.00118427709           
       0.830400             0.00641831175             0.00110827385           
       0.833040              0.0069258481             0.00120616529           
       0.835681             0.00755589645             0.00143221571           
       0.838321             0.00630524986             0.00109812126           
       0.840961             0.00815492954             0.00136067764           
       0.843602             0.00508411775            0.000985239063           
       0.846242              0.0066677065             0.00112812514           
       0.848883             0.00880314721             0.00132652304           
       0.851523             0.00602646139             0.00108392311           
       0.854163             0.00970554521             0.00146283865           
       0.856804             0.00600366327             0.00103447633           
       0.859444             0.00582178221            0.000998115537           
       0.862085              0.0072275527             0.00115909893           
       0.864725             0.00740911636             0.00120102523           
       0.867365             0.00786061503             0.00114713118           
       0.870006             0.00708253714             0.00103761714           
       0.872646             0.00618440572             0.00101675764           
       0.875286             0.00852362079             0.00114837446           
       0.877927             0.00546328872            0.000887165966           
       0.880567             0.00665275455             0.00101425421           
       0.883208             0.00816390446             0.00111297187           
       0.885848             0.00731060337             0.00109354102           
       0.888488             0.00863128989             0.00111447563           
       0.891129             0.00648202679            0.000991677183           
       0.893769             0.00875192188             0.00110278377           
       0.896410             0.00637007785            0.000877182956           
       0.899050             0.00891632028             0.00114128991           
       0.901690             0.00881176793             0.00123588602           
       0.904331              0.0102366057             0.00118094751           
       0.906971              0.0128008192              0.0014049015           
       0.909611             0.00767416245            0.000990231194           
       0.912252              0.0079069776              0.0010382036           
       0.914892             0.00649365294             0.00102815186           
       0.917533             0.00913769169             0.00115377317           
       0.920173             0.00791115945            0.000996043288           
       0.922813             0.00712684704            0.000992070846           
       0.925454             0.00705585189            0.000888871793           
       0.928094             0.00815549723             0.00102021524           
       0.930734             0.00769243261             0.00106673632           
       0.933375             0.00721389652             0.00102286819           
       0.936015             0.00704354602            0.000917948948           
       0.938656             0.00826568299             0.00106675895           
       0.941296             0.00959690475             0.00104172405           
       0.943936             0.00760703703            0.000909517607           
       0.946577              0.0085642591            0.000958666431           
       0.949217             0.00762946839            0.000832078553           
       0.951858             0.00854758317            0.000921940187           
       0.954498              0.0064024854            0.000923569858           
       0.957138             0.00789681324             0.00097171267           
       0.959779              0.0074404922            0.000929820551           
       0.962419             0.00779327382            0.000945278635           
       0.965059             0.00785808534            0.000998311228           
       0.967700             0.00985014794             0.00114475638           
       0.970340             0.00875093762            0.000954802814           
       0.972981             0.00714640579            0.000786129962           
       0.975621             0.00901962898            0.000939541869           
       0.978261             0.00822386559            0.000852439947           
       0.980902             0.00894842052             0.00106388229           
       0.983542             0.00832775285            0.000908876406           
       0.986182             0.00756700862            0.000850596009           
       0.988823             0.00758194071            0.000826744707           
       0.991463             0.00573357881            0.000767036578           
       0.994104             0.00820189145            0.000894940824           
       0.996744             0.00721459673            0.000856130774           
       0.999384             0.00780453647            0.000796356683           
       1.002025             0.00677738249            0.000828286674           
       1.004665             0.00880996585            0.000863026616           
       1.007306             0.00912567638             0.00087385815           
       1.009946             0.00782498588            0.000825259989           
       1.012586              0.0071018304            0.000765714468           
       1.015227             0.00714261344            0.000824975662           
       1.017867             0.00721514736            0.000796874271           
       1.020507             0.00826075325            0.000825919247           
       1.023148             0.00865265945            0.000912084378           
       1.025788              0.0087187009            0.000839494953           
       1.028429              0.0070187055            0.000789119767           
       1.031069             0.00724163299            0.000754292921           
       1.033709             0.00805058611            0.000845414705           
       1.036350             0.00844151526            0.000777514863           
       1.038990             0.00765362266            0.000753946167           
       1.041630              0.0084878093             0.00082811974           
       1.044271             0.00885447503            0.000795460771           
       1.046911             0.00775049926            0.000782823907           
       1.049552               0.008475103            0.000860043149           
       1.052192             0.00852102694            0.000787453266           
       1.054832             0.00799772879            0.000769830312           
       1.057473             0.00762879262            0.000741179652           
       1.060113              0.0106971777            0.000855964806           
       1.062754             0.00892940686            0.000798455749           
       1.065394             0.00932553861            0.000862695822           
       1.068034             0.00951594347            0.000792907646           
       1.070675             0.00799907187            0.000758319006           
       1.073315             0.00924039847            0.000826719799           
       1.075955             0.00848589642             0.00074792861           
       1.078596              0.0085691171            0.000798787989           
       1.081236             0.00873248782            0.000772148557           
       1.083877             0.00837339873            0.000749323375           
       1.086517             0.00876733691            0.000822177468           
       1.089157             0.00896748883            0.000862784122           
       1.091798             0.00828959204            0.000727264638           
       1.094438             0.00872367838            0.000743655399           
       1.097078               0.008572833            0.000707050148           
       1.099719             0.00818240223            0.000747164732           
       1.102359             0.00856345121            0.000715836261           
       1.105000             0.00889775346            0.000815918844           
       1.107640              0.0082039395            0.000749117187           
       1.110280             0.00937713542             0.00073075232           
       1.112921              0.0087478833            0.000758190445           
       1.115561             0.00944851773            0.000748897744           
       1.118202             0.00833260834            0.000703947377           
       1.120842             0.00807298784             0.00072823618           
       1.123482             0.00892417592            0.000762321512           
       1.126123              0.0095801372            0.000757590386           
       1.128763             0.00752221748             0.00067591025           
       1.131403             0.00850680418            0.000692611392           
       1.134044             0.00945398133            0.000751329058           
       1.136684             0.00910733964            0.000786224229           
       1.139325             0.00887147172            0.000714828553           
       1.141965             0.00939687191             0.00074055502           
       1.144605              0.0086985165            0.000679376182           
       1.147246             0.00786577169            0.000661164507           
       1.149886              0.0101619897            0.000748830928           
       1.152527              0.0086718982            0.000701813172           
       1.155167             0.00940477317            0.000695166218           
       1.157807             0.00909585385            0.000732998679           
       1.160448             0.00947329468            0.000730492249           
       1.163088             0.00933260821            0.000691588855           
       1.165728             0.00815606721            0.000663801798           
       1.168369             0.00869453476            0.000691695654           
       1.171009             0.00829138195            0.000655524209           
       1.173650             0.00927033534            0.000711330239           
       1.176290             0.00912519937            0.000689666291           
       1.178930              0.0083195334            0.000645407079           
       1.181571             0.00962501641            0.000707966838           
       1.184211              0.0106823629            0.000748484725           
       1.186851             0.00817135711            0.000640023007           
       1.189492             0.00966575784            0.000691408714           
       1.192132               0.010000173             0.00069537699           
       1.194773             0.00931266441            0.000673979904           
       1.197413             0.00980408306            0.000662587364           
       1.200053             0.00866904602            0.000638884298           
       1.202694             0.00957474486             0.00063849066           
       1.205334             0.00903627238            0.000668464349           
       1.207975              0.0089979819            0.000636714757           
       1.210615             0.00914750171            0.000708216457           
       1.213255             0.00974893236            0.000654708109           
       1.215896             0.00934035262            0.000652453201           
       1.218536              0.0107603838             0.00067336452           
       1.221176              0.0108121808            0.000733845284           
       1.223817              0.0111410651            0.000699271585           
       1.226457             0.00957806934            0.000661430116           
       1.229098              0.0107722415            0.000701417923           
       1.231738               0.011562061            0.000730253493           
       1.234378              0.0111917078            0.000675103645           
       1.237019             0.00998210953            0.000657018265           
       1.239659             0.00972553726            0.000642870298           
       1.242299              0.0103845196            0.000655853203           
       1.244940              0.0107006095            0.000647493338           
       1.247580              0.0110628415            0.000678495307           
       1.250221              0.0108044606            0.000666387732           
       1.252861               0.010004055            0.000610453549           
       1.255501              0.0109847534             0.00069456537           
       1.258142             0.00949040145            0.000606652477           
       1.260782             0.00990357075            0.000633126235           
       1.263423             0.00982669234            0.000605996834           
       1.266063             0.00968438076             0.00061661534           
       1.268703              0.0103730422            0.000632867267           
       1.271344               0.010353158            0.000653688167           
       1.273984              0.0115567481            0.000667022453           
       1.276624              0.0100017816             0.00060887033           
       1.279265              0.0104798094             0.00063360082           
       1.281905             0.00957065386            0.000608181274           
       1.284546              0.0101482644            0.000605341896           
       1.287186             0.00975027572            0.000582142457           
       1.289826              0.0106963093            0.000642605848           
       1.292467              0.0105936721            0.000625429482           
       1.295107               0.010133719            0.000605625058           
       1.297747              0.0105470063             0.00059123244           
       1.300388              0.0096339278            0.000615987842           
       1.303028              0.0102259298            0.000605857634           
       1.305669              0.0117650352            0.000665327622           
       1.308309              0.0112927804            0.000645418489           
       1.310949              0.0107824256            0.000630031878           
       1.313590              0.0113247221            0.000625497824           
       1.316230              0.0108452307            0.000653209298           
       1.318871             0.00960935365            0.000602185155           
       1.321511              0.0103646507            0.000613811453           
       1.324151              0.0107011072            0.000605204385           
       1.326792              0.0106949284            0.000608770172           
       1.329432              0.0110518519            0.000614478025           
       1.332072              0.0098614446            0.000571791992           
       1.334713              0.0104677998            0.000608018737           
       1.337353              0.0112543721            0.000604613073           
       1.339994              0.0118612793            0.000651364195           
       1.342634              0.0114041914            0.000612463948           
       1.345274              0.0110128427            0.000622872153           
       1.347915              0.0110394516            0.000606402875           
       1.350555              0.0107211862            0.000608063938           
       1.353195              0.0105225398            0.000605363081           
       1.355836              0.0120681921            0.000638192052           
       1.358476              0.0118703848            0.000614681034           
       1.361117              0.0119000541             0.00061629351           
       1.363757              0.0118803887            0.000634586763           
       1.366397              0.0108347471             0.00058767855           
       1.369038              0.0119259585             0.00062270174           
       1.371678              0.0116796813            0.000610805847           
       1.374319              0.0107206939            0.000580154007           
       1.376959              0.0114964325            0.000594735395           
       1.379599              0.0113673484            0.000633787853           
       1.382240              0.0117009126            0.000604341874           
       1.384880              0.0118360631            0.000643821667           
       1.387520              0.0115985474            0.000605291115           
       1.390161              0.0107565056            0.000553620133           
       1.392801              0.0121061956            0.000611938014           
       1.395442              0.0116958656            0.000609692848           
       1.398082              0.0118065173             0.00057364524           
       1.400722              0.0113624552            0.000589471883           
       1.403363              0.0116851831            0.000629240981           
       1.406003              0.0113605635            0.000580647683           
       1.408644               0.011196509            0.000603858338           
       1.411284              0.0112775301            0.000573865395           
       1.413924              0.0101276975            0.000541807939           
       1.416565              0.0104941492            0.000549356545           
       1.419205              0.0108178726            0.000581838376           
       1.421845               0.011334065            0.000595208598           
       1.424486              0.0098378962            0.000533033764           
       1.427126              0.0104596411            0.000570948187           
       1.429767              0.0113245766             0.00055896268           
       1.432407              0.0108727285            0.000573178676           
       1.435047               0.012380524            0.000574424055           
       1.437688              0.0115370947            0.000562803426           
       1.440328              0.0104610799            0.000546962484           
       1.442968              0.0110086984            0.000573667798           
       1.445609              0.0108372768            0.000551127812           
       1.448249              0.0112848227            0.000576632024           
       1.450890              0.0110766333            0.000567559455           
       1.453530              0.0115901585            0.000607389593           
       1.456170               0.011071987            0.000576157845           
       1.458811              0.0117420114            0.000567359515           
       1.461451              0.0108217236            0.000546101139           
       1.464092              0.0108337895            0.000549977799           
       1.466732              0.0106498428            0.000540602975           
       1.469372              0.0111743859            0.000540796682           
       1.472013              0.0116903003            0.000596572483           
       1.474653               0.010486096            0.000556295495           
       1.477293               0.010768882            0.000575628499           
       1.479934               0.010896764            0.000552521545           
       1.482574              0.0114027904            0.000546747556           
       1.485215               0.010966893            0.000546182162           
       1.487855              0.0108759207            0.000551087203           
       1.490495              0.0118518233            0.000573162112           
       1.493136              0.0108901009            0.000541884645           
       1.495776              0.0109034829            0.000539748586           
       1.498416               0.011541037            0.000573472635           
       1.501057              0.0102453729            0.000528415948           
       1.503697              0.0114291935            0.000545641574           
       1.506338              0.0111122689            0.000547854802           
       1.508978              0.0109820499            0.000539279221           
       1.511618              0.0107286682            0.000567665508           
       1.514259              0.0102873069            0.000536662999           
       1.516899              0.0108807647            0.000537392545           
       1.519540               0.011103117            0.000551609633           
       1.522180              0.0116320854            0.000569556182           
       1.524820              0.0107994806             0.00054571483           
       1.527461             0.00983067647            0.000523237196           
       1.530101              0.0101803151            0.000527135474           
       1.532741              0.0115258759            0.000557636106           
       1.535382              0.0115824201            0.000568001522           
       1.538022             0.00957676808            0.000486558022           
       1.540663              0.0110884316            0.000563113014           
       1.543303              0.0116968071            0.000537011648           
       1.545943              0.0107478238            0.000544842375           
       1.548584               0.010896964            0.000558457435           
       1.551224              0.0105376435            0.000507762214           
       1.553864               0.010292992            0.000530280618           
       1.556505               0.010593534            0.000519689728           
       1.559145               0.010109875            0.000513906767           
       1.561786               0.011011845            0.000536754674           
       1.564426              0.0111306238            0.000522856665           
       1.567066               0.010223451            0.000525053266           
       1.569707               0.010053833            0.000511326412           
       1.572347             0.00956596502            0.000515275078           
       1.574988              0.0105437665            0.000514912087           
       1.577628              0.0103551649            0.000532102544           
       1.580268             0.00882913322            0.000476049268           
       1.582909              0.0104099191            0.000547906074           
       1.585549             0.00956516192            0.000509956974           
       1.588189              0.0103521342            0.000518941866           
       1.590830               0.010716767            0.000527339409           
       1.593470             0.00978776242            0.000523919539           
       1.596111             0.00926403393            0.000497635074           
       1.598751             0.00893507008            0.000473553064           
       1.601391              0.0106180141            0.000527617123           
       1.604032              0.0100387665            0.000523748522           
       1.606672             0.00975153981            0.000501538729           
       1.609312             0.00887149606            0.000499365061           
       1.611953             0.00920449439            0.000497746467           
       1.614593             0.00950375697            0.000496123528           
       1.617234               0.010217413            0.000533126528           
       1.619874             0.00904543147            0.000499638035           
       1.622514             0.00970928639            0.000510586475           
       1.625155             0.00888115895             0.00049121149           
       1.627795             0.00841947824            0.000466554906           
       1.630436             0.00956413709            0.000494662951           
       1.633076             0.00895118832            0.000484825833           
       1.635716             0.00921668255            0.000484308785           
       1.638357              0.0088433095            0.000475647996           
       1.640997             0.00952530401            0.000508601952           
       1.643637             0.00992213386            0.000505131308           
       1.646278              0.0100574527            0.000524543288           
       1.648918              0.0102385343            0.000530688095           
       1.651559             0.00869008394            0.000492708654           
       1.654199             0.00783415576             0.00045499135           
       1.656839             0.00974503851            0.000507633635           
       1.659480             0.00879885013            0.000500473847           
       1.662120             0.00937430433            0.000486533667           
       1.664761             0.00885745353            0.000491253275           
       1.667401             0.00868510611            0.000464942444           
       1.670041             0.00959809017            0.000496222068           
       1.672682             0.00954672412             0.00049285838           
       1.675322             0.00821441166            0.000454235894           
       1.677962             0.00903707763             0.00047118318           
       1.680603              0.0094815827            0.000484117265           
       1.683243             0.00912518519            0.000495502471           
       1.685884             0.00848242743            0.000481260682           
       1.688524             0.00948576842            0.000499090604           
       1.691164             0.00932313268            0.000494905898           
       1.693805             0.00883759287            0.000487139756           
       1.696445             0.00942514084            0.000505990594           
       1.699085             0.00860777664            0.000467349976           
       1.701726             0.00968244605            0.000477487822           
       1.704366             0.00828807701             0.00046539304           
       1.707007             0.00785534885            0.000442981216           
       1.709647             0.00903492186            0.000480442934           
       1.712287             0.00792491888            0.000453879818           
       1.714928             0.00847958805            0.000473280199           
       1.717568             0.00909219077            0.000461655443           
       1.720209             0.00872055174             0.00047356647           
       1.722849             0.00915113664            0.000482622953           
       1.725489             0.00828232846            0.000459527173           
       1.728130             0.00809278829             0.00048272837           
       1.730770             0.00817553652            0.000460800128           
       1.733410             0.00946104849            0.000487913891           
       1.736051              0.0081085592            0.000454839119           
       1.738691             0.00844371208            0.000454735128           
       1.741332             0.00825331419            0.000462724951           
       1.743972             0.00860139101            0.000487814335           
       1.746612             0.00857069635            0.000467589569           
       1.749253             0.00853175867            0.000475739343           
       1.751893             0.00802417798            0.000457984213           
       1.754533             0.00922795974            0.000490678815           
       1.757174             0.00831084879             0.00046129744           
       1.759814             0.00878513641            0.000467088466           
       1.762455             0.00748394144            0.000439028095           
       1.765095              0.0087100143            0.000453081918           
       1.767735             0.00861757926            0.000464574543           
       1.770376             0.00825844556            0.000455990015           
       1.773016             0.00860963478             0.00046246592           
       1.775657             0.00844572385            0.000451451927           
       1.778297             0.00879353903            0.000456687445           
       1.780937             0.00786630666            0.000455911712           
       1.783578             0.00935015178            0.000484626739           
       1.786218             0.00850262555            0.000482294771           
       1.788858             0.00929216815            0.000478859207           
       1.791499             0.00825470501            0.000446267197           
       1.794139             0.00901525037            0.000462588891           
       1.796780             0.00902269008            0.000460548707           
       1.799420             0.00886953205            0.000454094457           
       1.802060               0.009690088             0.00047846871           
       1.804701             0.00909138693             0.00044474962           
       1.807341             0.00901548455            0.000465380176           
       1.809981             0.00940741059            0.000476973158           
       1.812622             0.00844475056            0.000443774513           
       1.815262             0.00833510958            0.000450249664           
       1.817903             0.00772295356            0.000426978903           
       1.820543             0.00904475615            0.000469275888           
       1.823183             0.00877307887            0.000461920256           
       1.825824             0.00859807177             0.00043687616           
       1.828464             0.00846670508            0.000451969474           
       1.831105             0.00804307955            0.000428338037           
       1.833745             0.00758615769            0.000424877712           
       1.836385               0.008071838             0.00045077494           
       1.839026             0.00853146614            0.000461967133           
       1.841666             0.00874115911             0.00046595185           
       1.844306             0.00813360154            0.000437203237           
       1.846947             0.00867399046            0.000455451057           
       1.849587             0.00892766356            0.000510229517           
       1.852228             0.00800903441            0.000436992735           
       1.854868             0.00795520924            0.000460064414           
       1.857508             0.00858271644            0.000473178147           
       1.860149             0.00827159068            0.000472962275           
       1.862789             0.00816337874            0.000453521977           
       1.865429             0.00828840268             0.00047701895           
       1.868070              0.0084466326            0.000475132469           
       1.870710             0.00904927535            0.000480452114           
       1.873351             0.00842496382            0.000469313649           
       1.875991             0.00809347483            0.000467495284           
       1.878631             0.00798170026            0.000455364374           
       1.881272             0.00792046594            0.000450574927           
       1.883912             0.00830060083            0.000480038192           
       1.886553             0.00710481591             0.00043915181           
       1.889193             0.00786478572            0.000461252796           
       1.891833             0.00740183133            0.000464716364           
       1.894474             0.00768100144            0.000469276128           
       1.897114             0.00854415064            0.000478944688           
       1.899754             0.00863133671            0.000483396247           
       1.902395             0.00748793286            0.000441438427           
       1.905035              0.0080402424            0.000484494024           
       1.907676             0.00811294175             0.00045869684           
       1.910316             0.00880231573            0.000490473864           
       1.912956             0.00765088238            0.000447210469           
       1.915597             0.00811095644            0.000463033794           
       1.918237             0.00796451712            0.000473864738           
       1.920878             0.00798740217            0.000472602426           
       1.923518             0.00803053179            0.000474077728           
       1.926158             0.00860256291            0.000484304863           
       1.928799             0.00833858196            0.000471296921           
       1.931439             0.00840704621            0.000485640047           
       1.934079             0.00797803181            0.000493181153           
       1.936720             0.00806167874            0.000459335883           
       1.939360             0.00820898346            0.000494504192           
       1.942001             0.00740271894            0.000430405354           
       1.944641             0.00808275383            0.000458599075           
       1.947281             0.00760654117            0.000440783609           
       1.949922             0.00778239698            0.000460523343           
       1.952562             0.00739252973             0.00046290911           
       1.955202             0.00797342866            0.000480166693           
       1.957843             0.00743251035             0.00045157108           
       1.960483             0.00752237149            0.000474962397           
       1.963124             0.00764339259            0.000468945664           
       1.965764             0.00815432585            0.000456770519           
       1.968404             0.00806842126            0.000450065192           
       1.971045             0.00778899443            0.000450849372           
       1.973685              0.0074983632            0.000464000651           
       1.976326             0.00801332846            0.000473076749           
       1.978966             0.00736863566            0.000457628802           
       1.981606             0.00781572704            0.000481137086           
       1.984247             0.00776947316            0.000476557408           
       1.986887             0.00752913553            0.000463509078           
       1.989527             0.00807392961            0.000474816405           
       1.992168             0.00757767425              0.0004772817           
       1.994808             0.00762368654            0.000476676446           
       1.997449              0.0069698212            0.000446416501           
       2.000089             0.00780676193            0.000470586681           
       2.002729             0.00758296166            0.000464070421           
       2.005370             0.00788724917            0.000468197448           
       2.008010             0.00796422256             0.00049100969           
       2.010650             0.00720617567            0.000470543084           
       2.013291             0.00768927081             0.00046634731           
       2.015931             0.00795718193            0.000471048535           
       2.018572              0.0075709438            0.000491450988           
       2.021212             0.00759750932            0.000483467211           
       2.023852             0.00804063094            0.000470733897           
       2.026493             0.00782207918            0.000485035946           
       2.029133             0.00668993763            0.000439536516           
       2.031774             0.00725128137             0.00048024688           
       2.034414             0.00791972002            0.000461812291           
       2.037054             0.00781559091            0.000470394492           
       2.039695             0.00750220997            0.000457386604           
       2.042335             0.00688196421            0.000455252499           
       2.044975             0.00793321488             0.00048286057           
       2.047616             0.00698457509            0.000451946442           
       2.050256             0.00848874635            0.000502955315           
       2.052897             0.00713080545            0.000469472849           
       2.055537             0.00718075138            0.000455313899           
       2.058177             0.00758030301            0.000458111865           
       2.060818             0.00793972018            0.000491153223           
       2.063458             0.00774183126             0.00050541179           
       2.066098             0.00792753028            0.000482456781           
       2.068739              0.0074553864            0.000475141842           
       2.071379             0.00723205172            0.000480175856           
       2.074020             0.00740838603            0.000475432493           
       2.076660             0.00857909418            0.000515756223           
       2.079300              0.0073255824            0.000488267314           
       2.081941             0.00676665839            0.000429671042           
       2.084581             0.00637119772            0.000440069992           
       2.087222             0.00777739841            0.000468907933           
       2.089862             0.00834390083            0.000528985419           
       2.092502              0.0069586659            0.000468280406           
       2.095143             0.00726019223            0.000493935247           
       2.097783             0.00737395775            0.000481944633           
       2.100423             0.00754869192            0.000469868016           
       2.103064             0.00765834761            0.000491079636           
       2.105704             0.00759884788            0.000486745276           
       2.108345             0.00794023095            0.000478020988           
       2.110985              0.0067335444            0.000470167862           
       2.113625             0.00722135305            0.000491149577           
       2.116266             0.00750353673            0.000507756867           
       2.118906             0.00788249186            0.000485002938           
       2.121546             0.00783177187            0.000474209683           
       2.124187             0.00771906295             0.00049417894           
       2.126827             0.00721100878            0.000482969999           
       2.129468             0.00716064543            0.000482509809           
       2.132108             0.00846913315            0.000510538402           
       2.134748             0.00787054304            0.000490256136           
       2.137389             0.00697448049            0.000481464583           
       2.140029             0.00722623491            0.000438746973           
       2.142670              0.0080095074              0.0004936573           
       2.145310             0.00679465637            0.000442548758           
       2.147950             0.00729562172            0.000471996639           
       2.150591             0.00695196503            0.000456089638           
       2.153231             0.00707683999            0.000473671074           
       2.155871             0.00715214138             0.00046002586           
       2.158512             0.00800204372            0.000507723892           
       2.161152             0.00641310471            0.000440284852           
       2.163793             0.00758937262            0.000476807363           
       2.166433             0.00758530406            0.000489499671           
       2.169073             0.00780064514            0.000485347774           
       2.171714             0.00737963032             0.00046853963           
       2.174354             0.00718074141            0.000482938213           
       2.176995             0.00741354733            0.000488639642           
       2.179635             0.00818296781            0.000542486622           
       2.182275             0.00720516825            0.000480618699           
       2.184916             0.00598925034            0.000423236938           
       2.187556             0.00771012218            0.000475393382           
       2.190196             0.00678369378            0.000465978963           
       2.192837             0.00706120383            0.000472828013           
       2.195477             0.00667092889            0.000438150767           
       2.198118             0.00744931408            0.000474871977           
       2.200758             0.00669390068            0.000461827403           
       2.203398             0.00803808724            0.000509314347           
       2.206039             0.00827126293            0.000488964396           
       2.208679             0.00743997571            0.000474535278           
       2.211319             0.00639018615            0.000442319867           
       2.213960             0.00757976122            0.000488188605           
       2.216600             0.00609673541            0.000452928535           
       2.219241             0.00741485723            0.000477383635           
       2.221881              0.0068176411            0.000458696278           
       2.224521             0.00692405108            0.000467926581           
       2.227162              0.0076931462            0.000483354488           
       2.229802             0.00814043333            0.000512771898           
       2.232443             0.00811402737            0.000503864782           
       2.235083             0.00673666563            0.000472654138           
       2.237723              0.0076394516            0.000483017369           
       2.240364             0.00720211064             0.00048054167           
       2.243004             0.00681420156            0.000463690264           
       2.245644             0.00698865561            0.000474288657           
       2.248285               0.006901918            0.000461893962           
       2.250925             0.00652470927            0.000451822813           
       2.253566             0.00641926075            0.000479114026           
       2.256206             0.00841734221            0.000537665449           
       2.258846             0.00816721982            0.000503812084           
       2.261487             0.00764645575            0.000511661072           
       2.264127             0.00692729678            0.000470342548           
       2.266767             0.00683083435            0.000479499973           
       2.269408             0.00744952746            0.000502794927           
       2.272048             0.00706926032            0.000486870417           
       2.274689             0.00722972301            0.000498852626           
       2.277329             0.00725921687            0.000470659002           
       2.279969             0.00779599671            0.000519181978           
       2.282610             0.00668963605             0.00046755743           
       2.285250             0.00797652809            0.000488668413           
       2.287891             0.00640378287            0.000469441595           
       2.290531             0.00664033175            0.000484459359           
       2.293171             0.00735008168            0.000496486929           
       2.295812             0.00805736304             0.00051773672           
       2.298452             0.00730829635            0.000515634432           
       2.301092             0.00758108931            0.000487947159           
       2.303733             0.00720225438            0.000494789425           
       2.306373             0.00624427611            0.000467965053           
       2.309014             0.00704553407            0.000487386505           
       2.311654              0.0078220347            0.000535905994           
       2.314294             0.00736579166            0.000479116658           
       2.316935             0.00714021071            0.000473671906           
       2.319575             0.00669308345            0.000480507965           
       2.322215              0.0073553773            0.000524962187           
       2.324856             0.00718795913            0.000477123812           
       2.327496             0.00676752312            0.000492271513           
       2.330137             0.00675233899            0.000470538254           
       2.332777             0.00742221609            0.000508672416           
       2.335417             0.00745212634            0.000494481637           
       2.338058             0.00713416357            0.000498270212           
       2.340698             0.00688535524             0.00048565764           
       2.343339             0.00766935988            0.000523841649           
       2.345979             0.00704424149            0.000474968965           
       2.348619             0.00604479494             0.00045606911           
       2.351260             0.00686678814            0.000483257931           
       2.353900             0.00702664415            0.000487302016           
       2.356540             0.00740821537            0.000499647936           
       2.359181             0.00783471087            0.000506625578           
       2.361821             0.00700538697             0.00046276109           
       2.364462             0.00763844585            0.000505385763           
       2.367102             0.00734233891            0.000509198542           
       2.369742             0.00728678034            0.000533934987           
       2.372383             0.00716726747            0.000479495592           
       2.375023             0.00695672377            0.000496595113           
       2.377663              0.0075126141            0.000493423913           
       2.380304             0.00733881492            0.000495814533           
       2.382944             0.00763393745            0.000481649525           
       2.385585             0.00781975062            0.000519901616           
       2.388225             0.00702559648            0.000490479405           
       2.390865              0.0077208161            0.000508893068           
       2.393506             0.00688411567            0.000471462615           
       2.396146              0.0066381175            0.000500575753           
       2.398787             0.00624604052            0.000447488266           
       2.401427             0.00647646102            0.000439824266           
       2.404067             0.00696534004            0.000466296557           
       2.406708             0.00705215748            0.000463567172           
       2.409348             0.00693166425            0.000487484946           
       2.411988             0.00707979238            0.000482703826           
       2.414629             0.00714063092            0.000499871096           
       2.417269             0.00756307684             0.00052045133           
       2.419910               0.007524814            0.000520337761           
       2.422550             0.00708609935            0.000483096906           
       2.425190             0.00729890495            0.000516824541           
       2.427831              0.0079287136            0.000535633129           
       2.430471             0.00618173254            0.000450582396           
       2.433112             0.00718457774             0.00047301226           
       2.435752             0.00756741139            0.000513758774           
       2.438392              0.0073385242            0.000488325286           
       2.441033             0.00730040956             0.00051618094           
       2.443673             0.00720294215             0.00051311778           
       2.446313             0.00768230957            0.000530384407           
       2.448954             0.00772814411            0.000506504333           
       2.451594             0.00732194189            0.000530104578           
       2.454235               0.007025512            0.000487201302           
       2.456875             0.00794743064            0.000542204721           
       2.459515              0.0069255523            0.000519250352           
       2.462156             0.00780868948             0.00052056472           
       2.464796             0.00859119455            0.000538980256           
       2.467436              0.0070518011            0.000504970459           
       2.470077             0.00833976792            0.000520496852           
       2.472717             0.00766016905            0.000500999751           
       2.475358             0.00644207852            0.000464233322           
       2.477998             0.00718040064             0.00048185197           
       2.480638             0.00725593598            0.000492986777           
       2.483279             0.00723813655            0.000514617407           
       2.485919             0.00733775793            0.000499352858           
       2.488560             0.00706470125            0.000488604616           
       2.491200             0.00705837197            0.000502908197           
       2.493840               0.007108373            0.000534024236           
       2.496481             0.00800066755            0.000557283418           
       2.499121              0.0065384998             0.00049001908           
       2.501761             0.00692920564            0.000511130807           
       2.504402             0.00698444075            0.000505666668           
       2.507042              0.0068200554            0.000495978971           
       2.509683             0.00727469983            0.000504415084           
       2.512323             0.00739874143            0.000534258568           
       2.514963              0.0070635048            0.000515565439           
       2.517604             0.00647131474             0.00051206184           
       2.520244             0.00730595309            0.000510078142           
       2.522884             0.00836205039            0.000553504931           
       2.525525              0.0110949262            0.000644805713           
       2.528165             0.00754397569            0.000523412202           
       2.530806             0.00789742813            0.000544867852           
       2.533446             0.00765841623            0.000525106919           
       2.536086             0.00760678205            0.000518649715           
       2.538727             0.00723269933            0.000485176812           
       2.541367             0.00662403958            0.000468887185           
       2.544008              0.0077092157            0.000522407839           
       2.546648             0.00756362386             0.00052632706           
       2.549288             0.00773010339            0.000542929642           
       2.551929             0.00797099991            0.000542536315           
       2.554569             0.00715793903            0.000495313767           
       2.557209             0.00690661715            0.000491008887           
       2.559850             0.00712684711            0.000500377485           
       2.562490             0.00704674624            0.000514252484           
       2.565131             0.00666272492              0.0005184679           
       2.567771             0.00829481815            0.000557755724           
       2.570411             0.00630862628             0.00048115321           
       2.573052             0.00676282897            0.000504446798           
       2.575692             0.00617137099            0.000478965389           
       2.578332             0.00637647929            0.000488872938           
       2.580973             0.00695857548            0.000505840663           
       2.583613             0.00735834611             0.00050778236           
       2.586254              0.0070257345            0.000495483715           
       2.588894             0.00659716287            0.000498595851           
       2.591534             0.00748468101            0.000549763353           
       2.594175              0.0059326366            0.000480218985           
       2.596815             0.00664488986             0.00051122553           
       2.599456             0.00714935621            0.000502858426           
       2.602096             0.00598991674            0.000463783468           
       2.604736             0.00692287615            0.000510418052           
       2.607377             0.00602597861            0.000463658204           
       2.610017             0.00752993043            0.000509228093           
       2.612657             0.00662598567            0.000508090629           
       2.615298             0.00743042967            0.000525306388           
       2.617938             0.00782312581            0.000576601693           
       2.620579             0.00684790056            0.000517882375           
       2.623219             0.00659110749            0.000507355168           
       2.625859             0.00593465499            0.000468082281           
       2.628500              0.0073696733            0.000518194241           
       2.631140             0.00739765616            0.000527176743           
       2.633780             0.00690281818            0.000508797166           
       2.636421             0.00700738713            0.000525243209           
       2.639061              0.0069699914            0.000493134984           
       2.641702             0.00632165727            0.000480512551           
       2.644342              0.0071087572             0.00051172035           
       2.646982             0.00721978501            0.000507991397           
       2.649623             0.00776764294            0.000552183588           
       2.652263             0.00733773495            0.000531299901           
       2.654904             0.00736074252            0.000532667541           
       2.657544             0.00622044346            0.000461221105           
       2.660184             0.00774513232            0.000544650749           
       2.662825             0.00665121045            0.000516433601           
       2.665465             0.00787871489            0.000543616062           
       2.668105             0.00654063774             0.00052207277           
       2.670746             0.00742159417            0.000513737566           
       2.673386             0.00867258697            0.000572333062           
       2.676027             0.00743469255            0.000521409998           
       2.678667              0.0101026215            0.000593066585           
       2.681307              0.0120726948            0.000637009962           
       2.683948              0.0144111864            0.000715082616           
       2.686588              0.0126052578             0.00065768762           
       2.689229             0.00947113475             0.00055707015           
       2.691869              0.0102384667            0.000612153688           
       2.694509             0.00758820946            0.000527292069           
       2.697150             0.00727171021            0.000507803965           
       2.699790             0.00742698042            0.000538013127           
       2.702430              0.0075498245            0.000518511556           
       2.705071             0.00717577221            0.000522342666           
       2.707711             0.00699107957            0.000500405848           
       2.710352             0.00738911646            0.000543584991           
       2.712992               0.008172997            0.000582262272           
       2.715632              0.0071838296            0.000506478612           
       2.718273             0.00815898918            0.000559389345           
       2.720913             0.00774375431             0.00054341838           
       2.723553             0.00692496637            0.000517334625           
       2.726194             0.00662673528            0.000529012312           
       2.728834             0.00773160141            0.000571681853           
       2.731475             0.00636143877            0.000478583582           
       2.734115             0.00671908669            0.000507117773           
       2.736755             0.00735314729            0.000534872541           
       2.739396             0.00809443327            0.000557934659           
       2.742036             0.00719719417            0.000550601396           
       2.744677             0.00698261512             0.00052621096           
       2.747317             0.00760351459            0.000545192781           
       2.749957              0.0074842838            0.000544697257           
       2.752598             0.00778479881            0.000561554062           
       2.755238             0.00835032144            0.000592092479           
       2.757878             0.00830273651            0.000585240991           
       2.760519             0.00921351411            0.000609968277           
       2.763159             0.00956547634            0.000615298784           
       2.765800             0.00819279606            0.000542668509           
       2.768440             0.00834640017            0.000551767125           
       2.771080             0.00941512386            0.000590920822           
       2.773721             0.00682995539            0.000516281187           
       2.776361             0.00749359344            0.000548242878           
       2.779001             0.00712312396            0.000553548633           
       2.781642             0.00625679849            0.000514972724           
       2.784282             0.00664395804            0.000539392639           
       2.786923             0.00798381014            0.000596490883           
       2.789563             0.00735399667            0.000551365613           
       2.792203             0.00704770686            0.000515626336           
       2.794844             0.00637106019            0.000537305283           
       2.797484             0.00645322313            0.000510344377           
       2.800125             0.00719372954            0.000566580298           
       2.802765             0.00717895628            0.000556261143           
       2.805405              0.0067199385            0.000540005465           
       2.808046             0.00655143892            0.000542565548           
       2.810686             0.00736241513            0.000528511653           
       2.813326             0.00716414502            0.000541535303           
       2.815967             0.00618650768            0.000517539286           
       2.818607             0.00676443618            0.000516427667           
       2.821248             0.00687588547            0.000509855074           
       2.823888             0.00671936849            0.000523184194           
       2.826528             0.00686463979            0.000512125889           
       2.829169             0.00741181126            0.000557392117           
       2.831809             0.00689762006            0.000545024238           
       2.834449             0.00684883958            0.000546525784           
       2.837090              0.0062148323             0.00050283174           
       2.839730             0.00729885936            0.000542262866           
       2.842371             0.00589303896             0.00048795342           
       2.845011              0.0065605801            0.000518952805           
       2.847651             0.00836785333            0.000586809079           
       2.850292             0.00763227127            0.000565924035           
       2.852932             0.00657655277            0.000536776462           
       2.855573             0.00658560396            0.000521046487           
       2.858213             0.00608293162            0.000525865395           
       2.860853             0.00687970869            0.000520227575           
       2.863494             0.00703280627            0.000544583217           
       2.866134             0.00594300951            0.000520326377           
       2.868774             0.00769836355            0.000582015814           
       2.871415             0.00743269639            0.000580793032           
       2.874055             0.00646804455            0.000517888303           
       2.876696             0.00594840498             0.00051008301           
       2.879336             0.00790003834              0.0005665596           
       2.881976             0.00700402114            0.000550230845           
       2.884617              0.0077195082            0.000569167965           
       2.887257             0.00631300294            0.000517367924           
       2.889897             0.00709830261            0.000537312928           
       2.892538             0.00688489631            0.000579712366           
       2.895178             0.00742454111            0.000543869617           
       2.897819             0.00641304372            0.000515623791           
       2.900459             0.00697954252            0.000527451668           
       2.903099             0.00686787325             0.00051785947           
       2.905740             0.00796703103            0.000572192695           
       2.908380              0.0070232276            0.000543336892           
       2.911021             0.00777528265            0.000580982509           
       2.913661             0.00611146222            0.000514929057           
       2.916301             0.00704811866             0.00055350991           
       2.918942             0.00712398015            0.000532287524           
       2.921582             0.00840913038            0.000605078559           
       2.924222             0.00797315582            0.000570806509           
       2.926863             0.00701110111            0.000557537789           
       2.929503             0.00744634395            0.000581390288           
       2.932144             0.00689371969            0.000536990499           
       2.934784             0.00672246529            0.000521583521           
       2.937424             0.00595041626            0.000495757547           
       2.940065             0.00609222521            0.000478507773           
       2.942705             0.00791106714            0.000544594631           
       2.945346             0.00731056363            0.000555584619           
       2.947986             0.00671534302             0.00054295231           
       2.950626             0.00647024567            0.000529951135           
       2.953267               0.006770613            0.000533353431           
       2.955907             0.00727292078            0.000573437512           
       2.958547             0.00713561791            0.000536220065           
       2.961188              0.0069779784            0.000553213323           
       2.963828             0.00730544048            0.000553696732           
       2.966469             0.00663000213            0.000517455569           
       2.969109              0.0065294962             0.00052112703           
       2.971749             0.00731181946            0.000548022929           
       2.974390             0.00770412809            0.000552791287           
       2.977030             0.00784330533            0.000570227093           
       2.979670             0.00822708069            0.000568063327           
       2.982311             0.00728249152            0.000553939189           
       2.984951             0.00773983098            0.000543135923           
       2.987592             0.00834776983            0.000575361258           
       2.990232             0.00945370061             0.00063677374           
       2.992872               0.007709533            0.000541655436           
       2.995513             0.00808464163            0.000542655803           
       2.998153              0.0107709904            0.000636880518           
       3.000794              0.0124938787            0.000664392126           
       3.003434              0.0126000635            0.000668216875           
       3.006074               0.048510752             0.00129276616           
       3.008715               0.120533825             0.00196708829           
       3.011355               0.184537051             0.00234711145           
       3.013995              0.0947777471             0.00168665057           
       3.016636              0.0620849058             0.00133675779           
       3.019276               0.127527662             0.00188324332           
       3.021917               0.498719607             0.00358099446           
       3.024557                1.67106189             0.00644468468           
       3.027197                1.13979223             0.00518918819           
       3.029838               0.511154123             0.00352435386           
       3.032478               0.264032839             0.00253556007           
       3.035118              0.0722688892             0.00134433779           
       3.037759              0.0967775741             0.00155367217           
       3.040399               0.135319798             0.00189510137           
       3.043040               0.532419105             0.00380513033           
       3.045680               0.391660157             0.00307058818           
       3.048320              0.0857644321             0.00146814061           
       3.050961               0.110086316              0.0016926472           
       3.053601              0.0846421269             0.00142946663           
       3.056242              0.0549647459             0.00122473719           
       3.058882              0.0452624721             0.00119220091           
       3.061522              0.0346198736             0.00102297456           
       3.064163              0.0413803717             0.00110432208           
       3.066803               0.102915068               0.001833486           
       3.069443              0.0984577384             0.00187629481           
       3.072084              0.0512957778             0.00131873305           
       3.074724              0.0413146038             0.00132169807           
       3.077365              0.0847202063             0.00195923958           
       3.080005              0.0164408702            0.000867981406           
       3.082645             0.00929410846             0.00068557916           
       3.085286              0.0130337387            0.000818278673           
       3.087926             0.00926223035            0.000684485691           
       3.090566              0.0111761875            0.000736705583           
       3.093207              0.0100237265            0.000726017352           
       3.095847             0.00893251212            0.000656907731           
       3.098488              0.0089216163            0.000727953859           
       3.101128             0.00865722997            0.000721698163           
       3.103768               0.010330593            0.000773535577           
       3.106409              0.0096493958            0.000795644628           
       3.109049             0.00802809404              0.0006964475           
       3.111690             0.00845434384            0.000702428142           
       3.114330             0.00833086283            0.000712113003           
       3.116970             0.00779366489            0.000694058681           
       3.119611              0.0125969808            0.000939241588           
       3.122251              0.0215125728             0.00128391384           
       3.124891              0.0340079738             0.00162932112           
       3.127532              0.0219260848             0.00127986732           
       3.130172              0.0124707321            0.000981907609           
       3.132813             0.00922721319             0.00083149652           
       3.135453             0.00632110499            0.000682542153           
       3.138093             0.00622749678            0.000734062146           
       3.140734             0.00632973179            0.000682765148           
       3.143374             0.00676340558            0.000746379565           
       3.146014             0.00686603786            0.000809585185           
       3.148655             0.00708122728            0.000764286835           
       3.151295              0.0073881244             0.00083192921           
       3.153936             0.00497708321            0.000659584274           
       3.156576             0.00543407842            0.000679826296           
       3.159216             0.00616406246            0.000727671495           
       3.161857             0.00568705227            0.000696104382           
       3.164497             0.00620557639            0.000764021278           
       3.167138              0.0079200466            0.000891828149           
       3.169778             0.00707377727            0.000828936364           
       3.172418             0.00530900064            0.000710823524           
       3.175059             0.00640707781            0.000692284934           
       3.177699             0.00654762294            0.000741084727           
       3.180339             0.00674078643            0.000805641931           
       3.182980             0.00596023508            0.000783242654           
       3.185620              0.0058815738            0.000792384815           
       3.188261             0.00563519892             0.00078945213           
       3.190901             0.00757999181              0.0008420858           
       3.193541             0.00639470502            0.000812709399           
       3.196182             0.00640042264            0.000847338334           
       3.198822             0.00344175802            0.000621567409           
       3.201463             0.00594907279            0.000803110349           
       3.204103             0.00601313449              0.0008025104           
       3.206743             0.00512107424            0.000740525437           
       3.209384             0.00499549771              0.0007902041           
       3.212024             0.00729465697            0.000890254892           
       3.214664             0.00489957907            0.000829671554           
       3.217305                0.00685838            0.000933085122           
       3.219945             0.00443091115            0.000771936029           
       3.222586             0.00732551398            0.000945390536           
       3.225226             0.00616226046            0.000961896967           
       3.227866             0.00526426342             0.00081258492           
       3.230507             0.00606991535            0.000904495335           
       3.233147             0.00644202658             0.00093933186           
       3.235787             0.00528712872            0.000870868462           
       3.238428             0.00482561428            0.000897824185           
       3.241068             0.00567903153            0.000910724097           
       3.243709             0.00733487035             0.00106933314           
       3.246349              0.0071388245            0.000961681479           
       3.248989             0.00561165929             0.00100677297           
       3.251630              0.0043528523            0.000853860358           
       3.254270             0.00600619209            0.000896407057           
       3.256911             0.00509734908            0.000901045601           
       3.259551             0.00609692986             0.00106091403           
       3.262191             0.00712349528             0.00117135437           
       3.264832             0.00630784728             0.00115169197           
       3.267472               0.004602078            0.000922837767           
       3.270112             0.00692906442             0.00125140542           
       3.272753             0.00606507353             0.00107165144           
       3.275393             0.00631094145              0.0011154011           
       3.278034             0.00492724662            0.000986121854           
       3.280674             0.00581015045             0.00116200349           
       3.283314             0.00614726279             0.00106896688           
       3.285955             0.00733442294              0.0012047408           
       3.288595             0.00442482924             0.00104105468           
       3.291235              0.0054451055             0.00118718372           
       3.293876             0.00502959493             0.00115738446           
       3.296516             0.00538902745             0.00115013209           
       3.299157             0.00692068868             0.00128699137           
       3.301797             0.00590679815              0.0013562592           
       3.304437             0.00653626542             0.00123606228           
       3.307078             0.00591067523             0.00129480048           
       3.309718             0.00541593438             0.00127931148           
       3.312359             0.00695672179             0.00145025734           
       3.314999             0.00556114769             0.00127666453           
       3.317639             0.00374131924             0.00100146584           
       3.320280             0.00419770901             0.00112783999           
       3.322920             0.00720499335             0.00150247371           
       3.325560             0.00532429387             0.00129245684           
       3.328201             0.00404579659             0.00101467954           
       3.330841             0.00607232603             0.00151292469           
       3.333482              0.0037087217              0.0011176072           
       3.336122             0.00335051236             0.00106275284           
       3.338762             0.00583214936             0.00161968737           
       3.341403             0.00410386867              0.0012982624           
       3.344043             0.00711881354             0.00164164067           
       3.346683             0.00510948432             0.00141988737           
       3.349324             0.00499576441             0.00157855513           
       3.351964             0.00556261647             0.00176142192           
       3.354605             0.00216445565             0.00125658652           
       3.357245             0.00528784006             0.00177180109           
       3.359885             0.00457561704              0.0013191258           
       3.362526             0.00589471898             0.00187236781           
       3.365166             0.00477185855             0.00158892803           
       3.367807             0.00344408614             0.00172758113           
       3.370447              0.0065562546             0.00197721082           
       3.373087             0.00327121669             0.00149350605           
       3.375728             0.00779917571             0.00260265085           
       3.378368               0.007584903             0.00380922365           
       3.381008             0.00841826643             0.00299192654           
       3.383649             0.00204536301             0.00118306676           
       3.386289             0.00572718525             0.00234301576           
       3.388930             0.00712103488             0.00413256283           
       3.391570             0.00469989146             0.00237494913           
       3.394210             0.00384738402             0.00271933763           
       3.396851             0.00713691413             0.00414294719           
       3.399491              0.0047550089             0.00338260993           
       3.402131              0.0142505667             0.00828492935           
       3.404772           -2.57449148e-05                         0           
       3.407412                       nan                       nan           
       3.410053           -2.58083247e-05                         0           
       3.412693                       nan                       nan           
       3.415333           -2.58576439e-05                         0           
