################################################################################
# EDF_DataBlockID                     0.Image.Psd
# EDF_BinarySize                      4366944
# EDF_HeaderSize                      2560
# ByteOrder                           LowByteFirst
# DataType                            FloatValue
# Dim_1                               1028
# Dim_2                               1062
# Image                               0
# HeaderID                            EH:000000:000000:000000
# Size                                4366944
# Center_1                            607.5200
# Center_2                            651.5500
# Comment                             Xenocs_Cell_Window - 20251028_20perc_iodine_1.23mg
# DDummy                              0.6
# Date                                2025-10-31T02:18:49
# Delta                               0
# Dummy                               -1.5
# ExposureTime                        360
# Gamma                               0
# Intensity1                          8.51899e-10
# PSize_1                             7.5e-05
# PSize_2                             7.5e-05
# Pressure                            0.0328293
# SampleDistance                      0.450002
# SampleEnvKind                       large
# SampleEnvPN                         ElectroChemical cell
# SampleEnvSN                         1141
# Thickness                           0
# Wavelength                          1.541891e-10
# Wavelength                          1.54189e-10
# aux                                 0
# aux_dial                            0.002375
# beamx                               588.434
# beamx_dial                          588.434
# beamz                               657.808
# beamz_dial                          657.808
# det0x                               0
# det0x_dial                          6.36945
# det0xvd                             0
# det0xvd_dial                        0
# det0y                               450.002
# det0y_dial                          481.635
# det0z                               0
# det0z_dial                          1.23302
# det0zvd                             0
# det0zvd_dial                        0
# mag                                 1.818
# mag_dial                            1.818
# om                                  0.2499
# om_dial                             -0.610199
# phi                                 -0.0120535
# phi_dial                            0
# ry                                  0.599993
# ry_dial                             0.599993
# s1bot                               0.8
# s1bot_dial                          -1.66094
# s1hl                                0.8
# s1hl_dial                           -0.608437
# s1hr                                0.8
# s1hr_dial                           0.970938
# s1top                               0.8
# s1top_dial                          -0.461562
# s2bot                               0.45
# s2bot_dial                          1.36109
# s2hl                                0.45
# s2hl_dial                           -0.83375
# s2hr                                0.45
# s2hr_dial                           -0.118594
# s2top                               0.45
# s2top_dial                          1.44734
# w2theta                             32
# w2theta_dial                        32
# waxsch                              19.2605
# waxsch_dial                         -32.7355
# waxsh                               137.085
# waxsh_dial                          -43.5338
# waxsth                              26.0607
# waxsth_dial                         -19.4086
# waxsz                               67.0407
# waxsz_dial                          -23.7954
# wind                                65.9854
# wind_dial                           66.0041
# wpsi                                124
# wpsi_dial                           124
# wstod                               115
# wstod_dial                          115
# x                                   0
# x_dial                              1.00969
# z                                   0
# z_dial                              13.3172
# CountCutoff                         15302352
# DetectorModel                       Dectris EIGER2 Si 1M, S/N E-02-0362
# ThresholdSetting                    4023.88989258
# Saturation                          0
# FlatField                           Corrected
# BackgroundReductionExtra            0.02
# BackgroundCorrectionConstant        0.0026712
# Detector                            0
# Monitor                             0
# Pil_Roi0                            0
# SumForIntensity1                    3.06683e+08
# TransmittedFlux                     851899
# det                                 0
# mon                                 0
# pilai0                              3.06683e+08
# pilai1                              772301
# pilct0                              5.3135e+08
# pilct1                              772301
# pilroi0                             0
# pilroi1                             0
# sec                                 1
# title                               20251028_20perc_iodine_1.23mg_0_00545.edf
# usaxs0                              0
# Operation                           Azimuthal average I(q)
# Error_model                         ErrorModel.poisson
# Geometrical_correction              True
# Transmission_correction             True
# Thickness_correction                False
# Binning mode                        Uniform
# Binning factor                      1.0
# Psi                                 0.0
# Omega                               0.2499
# MaskInvalidPixels                   True
# DetectorEdge                        3
# MaskFiles                           ['20251028_20perc_iodine_1.23mg_0_00012_mask.edf']
################################################################################
    q(A⁻¹)                Intensity(a.u.)            Sigma_I(a.u.)            
       0.000340                373137.309                120.831896           
       0.001019                359912.579                72.6710467           
       0.001698                350058.841                50.6778831           
       0.002377                330916.957                44.0709584           
       0.003056                308044.751                35.9365138           
       0.003735                253217.416                28.7345023           
       0.004415                204805.756                25.8421162           
       0.005094                153141.469                19.3523698           
       0.005773                101342.551                14.5750624           
       0.006452                59085.2446                10.6630953           
       0.007131                32430.0291                7.65289681           
       0.007810                 16274.235                5.38006325           
       0.008490                8154.86398                3.37580997           
       0.009169                3949.79892                2.32192285           
       0.009848                1216.37453                1.24580342           
       0.010527                470.463886               0.774781547           
       0.011206                117.899993               0.370174521           
       0.011885                54.6313922               0.234120172           
       0.012564                 25.265133               0.163459536           
       0.013244                17.0851991               0.125666484           
       0.013923                12.3025289               0.108356832           
       0.014602                  9.474989              0.0881928519           
       0.015281                7.54377591              0.0801064144           
       0.015960                6.05924384              0.0712784171           
       0.016639                4.88275363               0.060422106           
       0.017319                4.14047318              0.0547748525           
       0.017998                3.40704618              0.0475353398           
       0.018677                2.93155007              0.0456689893           
       0.019356                2.51539794              0.0417998956           
       0.020035                2.09020147              0.0357486116           
       0.020714                1.85891438              0.0340695999           
       0.021394                 1.5827985              0.0297454133           
       0.022073                1.43853126               0.029503681           
       0.022752                1.26855779              0.0265036206           
       0.023431                1.12987197              0.0242796258           
       0.024110                1.00158117              0.0238329146           
       0.024789               0.895616293              0.0209302913           
       0.025469               0.825881849              0.0207121561           
       0.026148                0.76944565              0.0187840943           
       0.026827               0.632891517              0.0173085539           
       0.027506               0.611932745              0.0172649776           
       0.028185               0.539716277              0.0154626258           
       0.028864               0.519023896              0.0150782337           
       0.029544               0.483043029              0.0141057268           
       0.030223               0.434899211              0.0135762622           
       0.030902               0.413318219              0.0133562461           
       0.031581               0.368575019              0.0119896667           
       0.032260               0.328585193              0.0115134575           
       0.032939               0.299541516              0.0105995024           
       0.033619               0.269017485              0.0101925648           
       0.034298               0.296188799              0.0104078908           
       0.034977               0.239417781             0.00917353725           
       0.035656               0.219789771             0.00902208493           
       0.036335               0.206907387             0.00848998242           
       0.037014               0.214232179             0.00866472256           
       0.037693               0.193236624              0.0079163713           
       0.038373               0.179760528             0.00771027264           
       0.039052               0.177592369             0.00769623972           
       0.039731               0.143949705             0.00676754278           
       0.040410                 0.1463552             0.00677810281           
       0.041089               0.144964118              0.0066401452           
       0.041768               0.141311327             0.00659020428           
       0.042448                0.14065581             0.00652388299           
       0.043127               0.133029072             0.00619470173           
       0.043806               0.120907159             0.00594975816           
       0.044485               0.116040815             0.00570905088           
       0.045164                0.11947076             0.00590698183           
       0.045843               0.108306998             0.00539431877           
       0.046523               0.100097936             0.00520376894           
       0.047202               0.102634586             0.00530611353           
       0.047881               0.106079455              0.0052903992           
       0.048560              0.0937762462              0.0050194922           
       0.049239               0.094601567             0.00484078051           
       0.049918              0.0896508958             0.00480453788           
       0.050598              0.0803936369             0.00448146467           
       0.051277              0.0831098366             0.00454208298           
       0.051956              0.0854808924             0.00457749164           
       0.052635              0.0774227303              0.0042639435           
       0.053314              0.0778162335             0.00439974697           
       0.053993              0.0855696707             0.00448719211           
       0.054673              0.0773523896             0.00417126794           
       0.055352              0.0793827985             0.00428772751           
       0.056031              0.0695924667             0.00393027304           
       0.056710              0.0754247625             0.00419191665           
       0.057389              0.0714555583             0.00393451141           
       0.058068              0.0658190822             0.00381507121           
       0.058748              0.0582770145             0.00363462255           
       0.059427              0.0658584797             0.00379839886           
       0.060106              0.0597684469             0.00365276566           
       0.060785                0.05637533             0.00344127175           
       0.061464              0.0589128252             0.00360266005           
       0.062143              0.0602704944             0.00360692009           
       0.062822               0.061172315             0.00359116299           
       0.063502              0.0603635738             0.00356097167           
       0.064181              0.0526855637             0.00329167102           
       0.064860              0.0544689348             0.00339789483           
       0.065539              0.0498556079             0.00321902884           
       0.066218               0.052322359             0.00322709309           
       0.066897              0.0552072869             0.00334045609           
       0.067577              0.0563996284             0.00340877338           
       0.068256              0.0478535736             0.00321704043           
       0.068935               0.047271204             0.00314570484           
       0.069614              0.0453057106             0.00311026972           
       0.070293              0.0450467939             0.00312996761           
       0.070972               0.040811139             0.00295737038           
       0.071652               0.040915495             0.00296658043           
       0.072331              0.0460712346             0.00309184129           
       0.073010               0.038024751             0.00287307515           
       0.073689              0.0358701585             0.00277515569           
       0.074368              0.0366417439             0.00279974329           
       0.075047              0.0377053902             0.00280956192           
       0.075727              0.0378903169             0.00279904771           
       0.076406                0.03768877             0.00284729217           
       0.077085              0.0321484327             0.00258055298           
       0.077764              0.0423660398             0.00295200685           
       0.078443              0.0369205552             0.00277282927           
       0.079122              0.0398712262             0.00285381967           
       0.079802              0.0332457134             0.00263357919           
       0.080481              0.0378380902              0.0027148188           
       0.081160              0.0383739332             0.00279007543           
       0.081839              0.0359860249             0.00265861584           
       0.082518              0.0320775308             0.00251220295           
       0.083197              0.0309214008             0.00242819104           
       0.083876              0.0345185453             0.00252291379           
       0.084556               0.032948011             0.00253340184           
       0.085235              0.0361976463             0.00260409477           
       0.085914              0.0330871956              0.0025138831           
       0.086593              0.0347276243             0.00255887137           
       0.087272              0.0339103362             0.00249283939           
       0.087951              0.0336389402             0.00253892872           
       0.088631              0.0343400808             0.00247787807           
       0.089310              0.0350344263             0.00255588662           
       0.089989               0.034586091             0.00250979144           
       0.090668              0.0340832196             0.00251898027           
       0.091347              0.0307122336             0.00240455617           
       0.092026              0.0282300192             0.00220353129           
       0.092706               0.029951154              0.0023520942           
       0.093385              0.0286731465             0.00226602508           
       0.094064              0.0271301203             0.00222986347           
       0.094743              0.0283375581             0.00224421477           
       0.095422              0.0326432006             0.00238182315           
       0.096101              0.0281018584              0.0022554553           
       0.096781              0.0255027885             0.00211785979           
       0.097460              0.0270080047             0.00212001084           
       0.098139              0.0273091859             0.00211539558           
       0.098818              0.0244166926             0.00197560063           
       0.099497              0.0273919896             0.00209680618           
       0.100176              0.0253289702             0.00196338205           
       0.100856              0.0286437426             0.00208656802           
       0.101535              0.0289891905             0.00209506404           
       0.102214              0.0279173691             0.00205598146           
       0.102893              0.0261210026             0.00196607555           
       0.103572              0.0244707869             0.00187484603           
       0.104251              0.0255389016             0.00192240185           
       0.104931              0.0247695585             0.00187598886           
       0.105610              0.0264853553             0.00194815113           
       0.106289              0.0237532407             0.00181423276           
       0.106968              0.0276551572             0.00196339019           
       0.107647              0.0240271214             0.00183117563           
       0.108326              0.0245257654             0.00182532948           
       0.109005               0.025956691             0.00186600822           
       0.109685               0.024927575             0.00180813106           
       0.110364              0.0261940071             0.00187454449           
       0.111043               0.022026277             0.00171214269           
       0.111722               0.023912799             0.00176215308           
       0.112401              0.0223260195             0.00170741897           
       0.113080              0.0204268877             0.00161447015           
       0.113760              0.0216814689             0.00169109206           
       0.114439              0.0241972355             0.00176101471           
       0.115118              0.0232501343             0.00171319085           
       0.115797              0.0242040733             0.00176417663           
       0.116476              0.0211032465             0.00162264387           
       0.117155              0.0243393795             0.00175667746           
       0.117835              0.0226656772             0.00166150246           
       0.118514              0.0234750298             0.00171234679           
       0.119193              0.0223698443             0.00167156496           
       0.119872              0.0249966374             0.00174488532           
       0.120551              0.0210422979             0.00159026728           
       0.121230              0.0214097227             0.00158794875           
       0.121910              0.0222119465             0.00163305742           
       0.122589               0.019342429             0.00152549554           
       0.123268              0.0219518223              0.0015936554           
       0.123947              0.0222687278             0.00161549839           
       0.124626              0.0188534835             0.00146829004           
       0.125305              0.0234635229             0.00164603346           
       0.125985              0.0205495109             0.00152847998           
       0.126664              0.0201807647             0.00150027602           
       0.127343              0.0222527154             0.00159367203           
       0.128022              0.0213256458             0.00154815579           
       0.128701              0.0221170768             0.00156840851           
       0.129380              0.0202591459             0.00148228669           
       0.130059              0.0203262803             0.00148818874           
       0.130739               0.021752282             0.00155033253           
       0.131418               0.019527755             0.00146480896           
       0.132097              0.0201055207             0.00146725881           
       0.132776               0.018441717             0.00139889332           
       0.133455              0.0191629077             0.00143706259           
       0.134134              0.0207685099             0.00149129103           
       0.134814              0.0214616376              0.0015003518           
       0.135493              0.0196342406              0.0014408632           
       0.136172              0.0196642639              0.0014310789           
       0.136851              0.0227726916              0.0015489964           
       0.137530              0.0178476074             0.00133872251           
       0.138209              0.0200889806             0.00143697316           
       0.138889              0.0168748989             0.00132281913           
       0.139568              0.0190406819             0.00140453766           
       0.140247              0.0182616377             0.00137370187           
       0.140926              0.0179858268              0.0013243083           
       0.141605              0.0201652961             0.00143787769           
       0.142284              0.0204886793             0.00142534427           
       0.142964              0.0174669558             0.00132108061           
       0.143643              0.0203133131             0.00142285982           
       0.144322              0.0168609323               0.001269195           
       0.145001               0.019871396             0.00140613134           
       0.145680              0.0208151254             0.00140508624           
       0.146359              0.0205556528              0.0014014088           
       0.147039              0.0182213531             0.00133030239           
       0.147718               0.018537713              0.0013196597           
       0.148397              0.0176877964             0.00130908395           
       0.149076              0.0194772222              0.0013310924           
       0.149755              0.0185168843             0.00131790219           
       0.150434              0.0197538949             0.00136176702           
       0.151114               0.019067277             0.00133049115           
       0.151793              0.0174097705             0.00127135899           
       0.152472              0.0185000816             0.00128741482           
       0.153151              0.0193935213             0.00133087893           
       0.153830              0.0202194565             0.00134902247           
       0.154509              0.0203659412             0.00134825142           
       0.155188              0.0188598892             0.00129696323           
       0.155868              0.0191138269             0.00129637423           
       0.156547               0.020243764             0.00134271234           
       0.157226              0.0197486943              0.0012938008           
       0.157905              0.0179285617             0.00124309294           
       0.158584              0.0194115866             0.00129113507           
       0.159263              0.0197355861             0.00130665584           
       0.159943              0.0175961726             0.00123472173           
       0.160622              0.0180082031             0.00122498841           
       0.161301              0.0173652078             0.00121900948           
       0.161980              0.0190227168             0.00125417052           
       0.162659              0.0168282745             0.00119268917           
       0.163338              0.0167198858             0.00117915222           
       0.164018              0.0175234821             0.00120082023           
       0.164697              0.0174870949             0.00121497577           
       0.165376              0.0183952091             0.00121889741           
       0.166055              0.0153070473             0.00111921954           
       0.166734              0.0177640723             0.00120030338           
       0.167413              0.0189857699             0.00124176047           
       0.168093              0.0187883206             0.00124697151           
       0.168772              0.0196513784             0.00123799455           
       0.169451              0.0186720326              0.0012289542           
       0.170130              0.0173924257             0.00117052505           
       0.170809              0.0191031606             0.00124138195           
       0.171488              0.0186824245             0.00121644424           
       0.172168              0.0184515079             0.00119728956           
       0.172847              0.0152965639             0.00110445478           
       0.173526              0.0161742928             0.00111403481           
       0.174205              0.0180995205             0.00118390051           
       0.174884              0.0185999317             0.00119390075           
       0.175563              0.0202251254             0.00125028346           
       0.176243              0.0178002952             0.00118468028           
       0.176922              0.0155375282             0.00107798011           
       0.177601              0.0154967759             0.00108839673           
       0.178280              0.0174777661             0.00114296877           
       0.178959              0.0169145197             0.00113344495           
       0.179638              0.0152399035             0.00107277654           
       0.180317              0.0152382652             0.00106490416           
       0.180997              0.0157877187             0.00108981639           
       0.181676              0.0175040463             0.00113527387           
       0.182355              0.0147450016             0.00104822464           
       0.183034              0.0172838984             0.00111667343           
       0.183713              0.0157121663             0.00107765676           
       0.184392               0.017468718              0.0011359561           
       0.185072              0.0172683835             0.00111655202           
       0.185751              0.0175994419             0.00113033996           
       0.186430              0.0183565388             0.00114631112           
       0.187109              0.0176164699             0.00113547206           
       0.187788              0.0160631572             0.00108158446           
       0.188467              0.0158333698             0.00106111271           
       0.189147              0.0171003956             0.00111391965           
       0.189826              0.0150688427             0.00102716941           
       0.190505               0.016319805             0.00108655192           
       0.191184              0.0161681511             0.00106590491           
       0.191863              0.0161781755             0.00106848151           
       0.192542              0.0162104343             0.00107963232           
       0.193222              0.0185775382             0.00112987216           
       0.193901              0.0171589592              0.0011004318           
       0.194580              0.0177994911              0.0011011775           
       0.195259               0.019181256             0.00115624916           
       0.195938              0.0152997535              0.0010351199           
       0.196617              0.0154058329             0.00102420331           
       0.197297              0.0163044243             0.00105795206           
       0.197976              0.0168640068             0.00105942676           
       0.198655              0.0156606379              0.0010320798           
       0.199334              0.0165876473             0.00105281981           
       0.200013               0.017035573             0.00106634848           
       0.200692              0.0142700404            0.000981833469           
       0.201371              0.0143487328            0.000973448889           
       0.202051              0.0168882148             0.00105936764           
       0.202730               0.015625541             0.00100881812           
       0.203409              0.0160580992             0.00102955135           
       0.204088              0.0161368682              0.0010309318           
       0.204767              0.0153740539             0.00100098114           
       0.205446              0.0158377389             0.00101794921           
       0.206126              0.0149567266            0.000975791351           
       0.206805              0.0176340329             0.00107895692           
       0.207484              0.0155351279            0.000994505321           
       0.208163              0.0148261154            0.000977384139           
       0.208842              0.0159561239             0.00101119949           
       0.209521              0.0154186358            0.000985761313           
       0.210201              0.0141750235            0.000955719028           
       0.210880              0.0154745495            0.000978972389           
       0.211559              0.0152322026            0.000985636676           
       0.212238              0.0156527846            0.000994067217           
       0.212917              0.0160972629             0.00100433679           
       0.213596              0.0167469156             0.00103045999           
       0.214276               0.014584418            0.000941596438           
       0.214955              0.0147008712             0.00096522819           
       0.215634              0.0164801513             0.00101464773           
       0.216313              0.0144886299            0.000949369857           
       0.216992              0.0184453378             0.00107091823           
       0.217671              0.0139113732            0.000923732615           
       0.218351              0.0141823305             0.00094180698           
       0.219030              0.0153691943            0.000964947655           
       0.219709               0.014552391            0.000944813283           
       0.220388              0.0142962842            0.000935259471           
       0.221067              0.0153164633             0.00096882191           
       0.221746              0.0135827133            0.000911408092           
       0.222426              0.0148728717            0.000939458407           
       0.223105              0.0141847665            0.000929967789           
       0.223784              0.0146227904            0.000934851407           
       0.224463              0.0147390095            0.000946033424           
       0.225142              0.0122145871            0.000847588704           
       0.225821              0.0160153102            0.000974449382           
       0.226500              0.0164946487            0.000995212446           
       0.227180              0.0146993739            0.000925019206           
       0.227859              0.0144822456            0.000922280957           
       0.228538              0.0149380215            0.000927275589           
       0.229217              0.0144714632            0.000919904274           
       0.229896              0.0159778128            0.000966130847           
       0.230575              0.0155290998             0.00093728508           
       0.231255              0.0162342085            0.000972675724           
       0.231934              0.0141668002            0.000902425035           
       0.232613              0.0147905572            0.000925479622           
       0.233292              0.0161355928            0.000957305528           
       0.233971              0.0156800002            0.000943253472           
       0.234650              0.0152372323            0.000940777588           
       0.235330              0.0155975678            0.000943524767           
       0.236009              0.0142192701            0.000898931034           
       0.236688              0.0141878414            0.000894723576           
       0.237367              0.0134290902            0.000871734699           
       0.238046               0.014122285            0.000900246237           
       0.238725              0.0144034452            0.000895137147           
       0.239405               0.013667986            0.000877391422           
       0.240084              0.0140171858            0.000882871051           
       0.240763               0.013720662            0.000881846731           
       0.241442              0.0159731021            0.000938074388           
       0.242121              0.0152511982            0.000918361415           
       0.242800              0.0151777116            0.000920483446           
       0.243480              0.0153803082            0.000922267884           
       0.244159               0.015556111            0.000927972645           
       0.244838              0.0143338474            0.000876113624           
       0.245517               0.012792234            0.000839566082           
       0.246196              0.0156746113            0.000929799777           
       0.246875              0.0148573891             0.00089261818           
       0.247554              0.0146060581            0.000894030928           
       0.248234              0.0132660012            0.000839112809           
       0.248913              0.0144854537             0.00088666751           
       0.249592              0.0127696586            0.000824589533           
       0.250271              0.0128601063            0.000825101837           
       0.250950              0.0142498139            0.000873859762           
       0.251629               0.014901796             0.00088603206           
       0.252309              0.0126357443            0.000817543898           
       0.252988              0.0149443693            0.000873782549           
       0.253667              0.0126788112            0.000814232917           
       0.254346              0.0128609796            0.000819892723           
       0.255025                0.01483875            0.000878751905           
       0.255704              0.0142035459            0.000855800104           
       0.256384              0.0127365678            0.000807597731           
       0.257063              0.0138660218            0.000847449641           
       0.257742              0.0133216663            0.000824892992           
       0.258421              0.0129600626            0.000812054405           
       0.259100              0.0140214554            0.000846125546           
       0.259779              0.0130743928            0.000816358121           
       0.260459              0.0131456866            0.000820188384           
       0.261138              0.0127470723            0.000791873927           
       0.261817              0.0137552253            0.000839197083           
       0.262496              0.0128748963            0.000803936561           
       0.263175              0.0130303779            0.000810513444           
       0.263854              0.0135643785            0.000823112635           
       0.264534              0.0111106788            0.000738591779           
       0.265213              0.0130902568            0.000814327052           
       0.265892              0.0142506457            0.000838768326           
       0.266571              0.0120009804              0.0007679702           
       0.267250              0.0124873013            0.000784695723           
       0.267929              0.0125196859            0.000784906924           
       0.268609              0.0124188817            0.000786020898           
       0.269288              0.0125640759            0.000777468732           
       0.269967              0.0139580282            0.000828292774           
       0.270646              0.0135132094            0.000811464736           
       0.271325              0.0128302393             0.00079201338           
       0.272004              0.0129474425            0.000787691595           
       0.272683              0.0125953582            0.000777867748           
       0.273363              0.0105221428            0.000715506661           
       0.274042              0.0118906026            0.000756125024           
       0.274721              0.0118214849            0.000753477235           
       0.275400              0.0131120376            0.000788286653           
       0.276079              0.0135145471            0.000804838747           
       0.276758              0.0108320365            0.000729641483           
       0.277438              0.0113937716            0.000739921444           
       0.278117              0.0123730278            0.000785083729           
       0.278796              0.0129443727            0.000794854669           
       0.279475              0.0103189041            0.000721405934           
       0.280154              0.0118759752            0.000762790342           
       0.280833              0.0100835567             0.00070714828           
       0.281513              0.0127589541            0.000807926326           
       0.282192              0.0115468274            0.000755479041           
       0.282871              0.0120016839            0.000775597465           
       0.283550              0.0111987696            0.000753219568           
       0.284229              0.0101363677            0.000727126345           
       0.284908              0.0113263071            0.000776729306           
       0.285588              0.0108429903            0.000751076939           
       0.286267              0.0133084914            0.000845421015           
       0.286946              0.0114386034            0.000778684728           
       0.287625              0.0124851226            0.000827377908           
       0.288304              0.0113072783            0.000776845144           
       0.288983              0.0111990523             0.00078290897           
       0.289663              0.0111977454            0.000787445267           
       0.290342              0.0116656862            0.000799451717           
       0.291021               0.010755438            0.000771764183           
       0.291700              0.0107694552            0.000762178355           
       0.292379              0.0116272498            0.000810083426           
       0.293058             0.00935533991            0.000723898131           
       0.293738             0.00992477789            0.000739342577           
       0.294417              0.0101440971            0.000756154954           
       0.295096              0.0108067058            0.000771880371           
       0.295775              0.0105872097            0.000775669079           
       0.296454              0.0115822867            0.000800808887           
       0.297133             0.00980615279            0.000740339389           
       0.297812             0.00976650557            0.000742546897           
       0.298492              0.0109983845             0.00078950889           
       0.299171             0.00977154865            0.000742765721           
       0.299850             0.00909211397            0.000711585019           
       0.300529             0.00942001224            0.000732461572           
       0.301208             0.00935151797            0.000731569656           
       0.301887             0.00983980905            0.000749534407           
       0.302567             0.00853932904            0.000694751587           
       0.303246             0.00877714774             0.00070895813           
       0.303925              0.0102987097            0.000777814495           
       0.304604              0.0101337532             0.00075489995           
       0.305283             0.00916218464            0.000728446327           
       0.305962             0.00938639718            0.000732851374           
       0.306642              0.0097896368            0.000758592228           
       0.307321             0.00924340978             0.00073477132           
       0.308000             0.00844315404            0.000693920787           
       0.308679             0.00865543308            0.000717804974           
       0.309358             0.00916259406              0.0007285451           
       0.310037              0.0106650893            0.000787763806           
       0.310717              0.0110556817            0.000801287738           
       0.311396             0.00855000703            0.000709384843           
       0.312075             0.00843731566            0.000713630738           
       0.312754             0.00806646821            0.000683812023           
       0.313433             0.00821876208            0.000696240022           
       0.314112             0.00915723839            0.000734747876           
       0.314792             0.00923506538            0.000743074154           
       0.315471              0.0091233759            0.000729433522           
       0.316150             0.00985357841             0.00076507813           
       0.316829             0.00959822699            0.000760086067           
       0.317508             0.00871450253            0.000716123136           
       0.318187             0.00846812895            0.000715239894           
       0.318866             0.00891829792            0.000724117103           
       0.319546             0.00947169496            0.000757431408           
       0.320225             0.00960192716            0.000762635737           
       0.320904             0.00766298722            0.000670763543           
       0.321583             0.00867490137            0.000729404287           
       0.322262             0.00752201419            0.000668914452           
       0.322941             0.00834157282            0.000713437883           
       0.323621             0.00804887588            0.000696532351           
       0.324300             0.00788048907             0.00068974811           
       0.324979             0.00736555653            0.000668037991           
       0.325658             0.00873459611            0.000728797645           
       0.326337             0.00803627995            0.000699970241           
       0.327016             0.00779745653             0.00068511356           
       0.327696              0.0082853456            0.000714076687           
       0.328375             0.00807637051            0.000699064696           
       0.329054             0.00921860218            0.000750915231           
       0.329733             0.00804980614            0.000704261953           
       0.330412             0.00803705555            0.000697938135           
       0.331091             0.00645791568            0.000636974282           
       0.331771             0.00813058555            0.000695993099           
       0.332450             0.00678566978            0.000648173828           
       0.333129             0.00792245774            0.000698558851           
       0.333808             0.00875779671             0.00073543466           
       0.334487             0.00740215181            0.000679328633           
       0.335166             0.00662801801            0.000633417079           
       0.335846             0.00701027404            0.000662874155           
       0.336525             0.00644254719            0.000629192117           
       0.337204             0.00775614752            0.000692172867           
       0.337883             0.00666378435            0.000642432204           
       0.338562               0.006184798            0.000622347538           
       0.339241             0.00727745444            0.000676352347           
       0.339921             0.00581619485            0.000594508258           
       0.340600             0.00655471622            0.000643110334           
       0.341279             0.00757713032            0.000684045954           
       0.341958             0.00791927657            0.000709185719           
       0.342637             0.00714298738            0.000664015275           
       0.343316             0.00773789373            0.000693114648           
       0.343995             0.00697619453            0.000668892923           
       0.344675             0.00677677498            0.000647147454           
       0.345354              0.0061097115            0.000618525154           
       0.346033             0.00546616411            0.000583518676           
       0.346712             0.00699319837            0.000664222675           
       0.347391             0.00682784801            0.000660386925           
       0.348070             0.00606259243            0.000613442549           
       0.348750             0.00668917494            0.000653674305           
       0.349429             0.00621354441            0.000621872961           
       0.350108             0.00515870674            0.000573452251           
       0.350787             0.00553678919            0.000584001924           
       0.351466             0.00593151814            0.000615595797           
       0.352145             0.00683777062            0.000661500564           
       0.352825             0.00506660961            0.000566839434           
       0.353504             0.00531495088            0.000580422772           
       0.354183             0.00551474529            0.000584419831           
       0.354862             0.00589613587            0.000618332871           
       0.355541             0.00541536231            0.000584826512           
       0.356220             0.00487419683            0.000555884276           
       0.356900             0.00676974079            0.000661339593           
       0.357579             0.00654367513            0.000642230867           
       0.358258             0.00672558347            0.000660106605           
       0.358937             0.00485645079            0.000550384209           
       0.359616             0.00494152471            0.000562936772           
       0.360295             0.00539611425            0.000588750579           
       0.360975              0.0051453998             0.00057245188           
       0.361654             0.00474678247            0.000552665481           
       0.362333             0.00597611146            0.000616961552           
       0.363012             0.00588114905            0.000619914759           
       0.363691             0.00613058972             0.00062043762           
       0.364370             0.00417513201            0.000518366133           
       0.365050             0.00534266415            0.000583244009           
       0.365729             0.00467551151            0.000550816961           
       0.366408              0.0052203442            0.000583314618           
       0.367087             0.00610863284            0.000620873732           
       0.367766              0.0049325953            0.000569540931           
       0.368445             0.00513140058            0.000570591337           
       0.369124             0.00521913525            0.000579969092           
       0.369804             0.00462734028            0.000545225072           
       0.370483             0.00564028733            0.000604584184           
       0.371162             0.00602797903            0.000628640953           
       0.371841             0.00505854951            0.000565836369           
       0.372520             0.00540464547            0.000596596403           
       0.373199             0.00462488366            0.000545289973           
       0.373879             0.00618909032            0.000638101594           
       0.374558             0.00605429195            0.000621904977           
       0.375237              0.0048079067            0.000555113402           
       0.375916             0.00433568109            0.000537246515           
       0.376595             0.00580520044            0.000609510826           
       0.377274             0.00494914009            0.000571787124           
       0.377954             0.00588082212            0.000613496409           
       0.378633             0.00505625974            0.000576051875           
       0.379312             0.00413231511            0.000520635731           
       0.379991             0.00526068703            0.000584392759           
       0.380670             0.00464736123            0.000558979399           
       0.381349             0.00477766387            0.000558623803           
       0.382029             0.00303875208            0.000451895275           
       0.382708             0.00404749972            0.000510146193           
       0.383387             0.00345205863            0.000481806394           
       0.384066             0.00474879944            0.000559915082           
       0.384745             0.00427011966            0.000533033093           
       0.385424             0.00409927041            0.000524034623           
       0.386104             0.00445147624            0.000540048322           
       0.386783             0.00494348952            0.000581421365           
       0.387462             0.00415489092            0.000519772664           
       0.388141             0.00384067238            0.000507713673           
       0.388820             0.00504248576            0.000577546274           
       0.389499             0.00469770642            0.000560590062           
       0.390178             0.00399872895            0.000519265491           
       0.390858             0.00451961986            0.000547584267           
       0.391537             0.00475487761            0.000567390291           
       0.392216             0.00370497254            0.000494568891           
       0.392895             0.00393662967            0.000511513628           
       0.393574             0.00417184316            0.000525268147           
       0.394253             0.00435966742            0.000539377904           
       0.394933             0.00418025908            0.000534198562           
       0.395612             0.00411713512            0.000514750394           
       0.396291             0.00476704598            0.000565166829           
       0.396970             0.00329721267             0.00046586546           
       0.397649             0.00457840628            0.000550654601           
       0.398328             0.00335311858            0.000469173423           
       0.399008             0.00405263424            0.000514674652           
       0.399687             0.00415222813            0.000522986356           
       0.400366             0.00274579986            0.000423662401           
       0.401045             0.00534338237            0.000589890917           
       0.401724             0.00450762606            0.000542702522           
       0.402403             0.00372978629            0.000497509838           
       0.403083             0.00458304655            0.000543536706           
       0.403762             0.00462365976            0.000548631817           
       0.404441             0.00397206884            0.000511745111           
       0.405120             0.00497775308             0.00057099919           
       0.405799             0.00415107479            0.000519168432           
       0.406478             0.00415455246            0.000519398904           
       0.407158             0.00541743811            0.000591997741           
       0.407837             0.00322302338            0.000460650161           
       0.408516             0.00392802296            0.000504117608           
       0.409195             0.00368547456            0.000493844756           
       0.409874             0.00387571685             0.00051347647           
       0.410553             0.00313761087            0.000466971086           
       0.411233             0.00324273592             0.00047226968           
       0.411912             0.00285552066            0.000449456138           
       0.412591              0.0032519714            0.000482817315           
       0.413270             0.00264581982            0.000433432478           
       0.413949             0.00388360753            0.000530855904           
       0.414628               0.002938085            0.000460904247           
       0.415307             0.00307212012            0.000476542723           
       0.415987             0.00294739826            0.000462922727           
       0.416666               0.002905302            0.000456839745           
       0.417345             0.00286511978            0.000461245491           
       0.418024             0.00361069235            0.000517805964           
       0.418703             0.00329672069            0.000493871882           
       0.419382             0.00281239042            0.000453918193           
       0.420062             0.00296891262            0.000467685158           
       0.420741             0.00324044615            0.000491202716           
       0.421420             0.00342444442            0.000506870905           
       0.422099             0.00319941984            0.000489947117           
       0.422778             0.00308531308            0.000483736329           
       0.423457             0.00335985755            0.000507889953           
       0.424137             0.00211618209            0.000396506076           
       0.424816             0.00230092872            0.000422092667           
       0.425495             0.00191449234            0.000384655546           
       0.426174             0.00299743416            0.000481473123           
       0.426853             0.00227759112             0.00041714692           
       0.427532             0.00302182742             0.00048455423           
       0.428212             0.00228008897            0.000423682868           
       0.428891             0.00273285422            0.000462790367           
       0.429570             0.00329163478            0.000508251587           
       0.430249               0.002007561            0.000394863133           
       0.430928             0.00234930561            0.000436492212           
       0.431607             0.00258108323            0.000449656299           
       0.432287             0.00253656894            0.000449026721           
       0.432966             0.00209435129            0.000411601527           
       0.433645             0.00252052024            0.000452012659           
       0.434324             0.00215988252            0.000415905585           
       0.435003             0.00209010345            0.000409830903           
       0.435682             0.00302063074            0.000496726143           
       0.436361             0.00259945556             0.00046018003           
       0.437041             0.00355889274            0.000537729733           
       0.437720             0.00131082723            0.000327920877           
       0.438399             0.00265511129            0.000469135272           
       0.439078             0.00265683277            0.000482895767           
       0.439757              0.0016714431            0.000380656596           
       0.440436             0.00247429712            0.000473578895           
       0.441116             0.00228538739            0.000462583849           
       0.441795             0.00286013675            0.000518115843           
       0.442474              0.0029798843            0.000530325476           
       0.443153             0.00253815675            0.000500861388           
       0.443832             0.00313846331            0.000557889622           
       0.444511             0.00262206614            0.000507633531           
       0.445191             0.00246463969            0.000504129614           
       0.445870             0.00151750127            0.000395586884           
       0.446549             0.00240492432            0.000503249965           
       0.447228             0.00206147024             0.00046329818           
       0.447907             0.00200912295            0.000462866286           
       0.448586             0.00191653853            0.000462953021           
       0.449266              0.0023142065            0.000504041127           
       0.449945             0.00261051486            0.000533154363           
       0.450624             0.00298902992            0.000579558909           
       0.451303             0.00220907604            0.000504697628           
       0.451982              0.0021625534            0.000496267977           
       0.452661             0.00274176625            0.000569199544           
       0.453341             0.00205517432            0.000494530361           
       0.454020             0.00207157522            0.000497256304           
       0.454699             0.00294729985            0.000598536468           
       0.455378             0.00236231728            0.000536142913           
       0.456057             0.00244166475            0.000554766609           
       0.456736             0.00204506149            0.000506132343           
       0.457416               0.001427649            0.000422896372           
       0.458095             0.00225477125            0.000539156145           
       0.458774             0.00258085087            0.000584449104           
       0.459453             0.00247462043            0.000575180818           
       0.460132             0.00158984305            0.000451071525           
       0.460811            0.000510098074            0.000265035178           
       0.461490              0.0014191252            0.000437569904           
       0.462170             0.00107059919            0.000385989548           
       0.462849             0.00151491145            0.000462129202           
       0.463528             0.00107776488            0.000388887091           
       0.464207             0.00154930565            0.000474986329           
       0.464886             0.00167761774            0.000490415436           
       0.465565            0.000989052525            0.000380690527           
       0.466245             0.00174283792            0.000506916548           
       0.466924             0.00183063194            0.000531799635           
       0.467603             0.00115918533            0.000414202873           
       0.468282            0.000767621551            0.000345055152           
       0.468961             0.00172792858            0.000521100519           
       0.469640             0.00189289106            0.000547583706           
       0.470320             0.00077873085              0.0003514645           
       0.470999             0.00129079569            0.000456765791           
       0.471678             0.00181970716            0.000547545356           
       0.472357            0.000837706459            0.000372542665           
       0.473036             0.00117881738            0.000444719371           
       0.473715             0.00205678297            0.000592026594           
       0.474395            3.18708219e-05            7.47146596e-05           
       0.475074             0.00125428859            0.000468727653           
       0.475753            0.000881938593            0.000389652385           
       0.476432            0.000418068243            0.000278042802           
       0.477111            0.000580147408            0.000323573817           
       0.477790            0.000582066398            0.000325840233           
       0.478470             0.00191208425             0.00059838068           
       0.479149             0.00176625498            0.000581058284           
       0.479828             0.00119909673            0.000477635435           
       0.480507             0.00120142923            0.000481954321           
       0.481186            0.000279225038            0.000237582945           
       0.481865            0.000841204609            0.000407265238           
       0.482545            0.000276320467            0.000236159092           
       0.483224             0.00068547111            0.000374498577           
       0.483903            0.000520208641            0.000331384308           
       0.484582            0.000322877448            0.000265318566           
       0.485261            9.38370092e-05            0.000139409037           
       0.485940           -9.31389062e-05                         0           
       0.486619            0.000112363071            0.000156959408           
       0.487299            0.000340053227            0.000277407259           
       0.487978           -9.91488196e-05                         0           
       0.488657            0.000153395168            0.000192027826           
       0.489336           -8.80185777e-05                         0           
       0.490015           -0.000320461809                         0           
       0.490694           -6.45449089e-05                         0           
       0.491374           -7.34316216e-05                         0           
       0.492053           -6.42430694e-05                         0           
       0.492732           -6.88494054e-05                         0           
       0.493411            0.000191870951            0.000221574116           
       0.494090           -6.41453402e-05                         0           
       0.494769           -0.000320598226                         0           
       0.495449            -0.00032061788                         0           
       0.496128           -0.000320637595                         0           
       0.496807           -0.000320657093                         0           
       0.497486            0.000219165151            0.000242883975           
       0.498165           -0.000320696733                         0           
       0.498844           -0.000320716394                         0           
       0.499524           -0.000320736147                         0           
       0.500203           -3.19934857e-05                         0           
       0.500882           -0.000320775885                         0           
       0.501561           -0.000320795619                         0           
       0.502240           -2.28987392e-05                         0           
       0.502919            0.000306947661             0.00031230165           
       0.503599           -1.71631825e-05                         0           
       0.504278           -4.12736478e-06                         0           
       0.504957           -0.000320895812                         0           
       0.505636           -0.000320915715                         0           
       0.506315           -0.000320935945                         0           
       0.506994             2.5742727e-05            9.36072176e-05           
       0.507673           -0.000320975641                         0           
       0.508353            0.000343046267            0.000337924183           
       0.509032           -0.000321016047                         0           
       0.509711           -0.000321036215                         0           
       0.510390           -0.000321056699                         0           
       0.511069             0.00111423194            0.000637062878           
       0.511748           -0.000321097451                         0           
       0.512428           -0.000321117931                         0           
       0.513107            6.35673087e-05            0.000155759426           
       0.513786           -0.000321158323                         0           
       0.514465            6.02632622e-05            0.000150949976           
       0.515144            9.91602117e-05            0.000204183148           
       0.515823           -0.000321219826                         0           
       0.516503           -0.000321240388                         0           
       0.517182           -0.000321260949                         0           
       0.517861            0.000111039173            0.000218009075           
       0.518540           -0.000321302086                         0           
       0.519219           -0.000321322593                         0           
       0.519898            0.000141770438            0.000257607023           
       0.520578           -0.000321364146                         0           
       0.521257            0.000168878967             0.00028916388           
       0.521936           -0.000321405334                         0           
       0.522615             -0.0003214262                         0           
       0.523294           -0.000321447143                         0           
       0.523973            0.000170192083            0.000288547722           
       0.524653           -0.000321488302                         0           
       0.525332            0.000141849505            0.000259774837           
       0.526011           -0.000321530283                         0           
       0.526690            0.000168732951            0.000287931325           
       0.527369           -0.000321572384                         0           
       0.528048           -0.000321593496                         0           
       0.528728           -0.000321614583                         0           
       0.529407            0.000225573333            0.000350571469           
       0.530086           -0.000321656454                         0           
       0.530765           -0.000321677364                         0           
       0.531444           -0.000321698501                         0           
       0.532123            0.000246922879            0.000376319606           
       0.532802            0.000214979829            0.000342296885           
       0.533482           -0.000321762608                         0           
       0.534161           -0.000321783904                         0           
       0.534840           -0.000321805018                         0           
       0.535519           -0.000321826523                         0           
       0.536198           -0.000321847805                         0           
       0.536877            0.000319451792            0.000453699277           
       0.537557           -0.000321890143                         0           
       0.538236           -0.000321911686                         0           
       0.538915            0.000278544937            0.000409696566           
       0.539594           -0.000321954726                         0           
       0.540273           -0.000321976567                         0           
       0.540952           -0.000321998165                         0           
       0.541632           -0.000322019369                         0           
       0.542311           -0.000322040767                         0           
       0.542990           -0.000322062404                         0           
       0.543669            0.000986693293            0.000795506402           
       0.544348           -0.000322106015                         0           
       0.545027           -0.000322127761                         0           
       0.545707           -0.000322149572                         0           
       0.546386           -0.000322171444                         0           
       0.547065           -0.000322193054                         0           
       0.547744           -0.000322214762                         0           
       0.548423            -0.00032223671                         0           
       0.549102            -0.00032225868                         0           
       0.549782            0.000426162052            0.000561639205           
       0.550461           -0.000322302657                         0           
       0.551140           -0.000322324909                         0           
       0.551819           -0.000322346897                         0           
       0.552498            0.000494717708            0.000639478247           
       0.553177            -0.00032239087                         0           
       0.553856           -0.000322412744                         0           
       0.554536            -0.00032243469                         0           
       0.555215           -0.000322456971                         0           
       0.555894           -0.000322479199                         0           
       0.556573           -0.000322501559                         0           
       0.557252           -0.000322523901                         0           
       0.557931           -0.000322546141                         0           
       0.558611            0.000621882224            0.000772016952           
       0.559290           -0.000322591083                         0           
       0.559969           -0.000322612719                         0           
       0.560648           -0.000322634929                         0           
       0.561327            0.000854166466             0.00100574744           
       0.562006           -0.000322680232                         0           
       0.562686           -0.000322702844                         0           
       0.563365           -0.000322725539                         0           
       0.564044            -0.00032274812                         0           
       0.564723           -0.000322770651                         0           
       0.565402           -0.000322792762                         0           
       0.566081           -0.000322815019                         0           
       0.566761           -0.000322837517                         0           
       0.567440           -0.000322860472                         0           
       0.568119           -0.000322883245                         0           
       0.568798           -0.000322906339                         0           
       0.569477           -0.000322929284                         0           
       0.570156           -0.000322952341                         0           
       0.570836            -0.00032297531                         0           
       0.571515           -0.000322997795                         0           
       0.572194           -0.000323020931                         0           
       0.572873           -0.000323043537                         0           
       0.573552           -0.000323066011                         0           
       0.574231            -0.00032308894                         0           
       0.574911             0.00145010881             0.00161802985           
       0.575590           -0.000323135503                         0           
       0.576269           -0.000323158487                         0           
       0.576948           -0.000323181913                         0           
       0.577627             0.00164157985             0.00180447829           
       0.578306           -0.000323227657                         0           
       0.578985           -0.000323250886                         0           
       0.579665           -0.000323273981                         0           
       0.580344           -0.000323297426                         0           
       0.581023           -0.000323320845                         0           
       0.581702           -0.000323344048                         0           
       0.582381           -0.000323367039                         0           
       0.583060           -0.000323390717                         0           
       0.583740           -0.000323414023                         0           
       0.584419           -0.000323437406                         0           
       0.585098           -0.000323460762                         0           
       0.585777           -0.000323484299                         0           
       0.586456           -0.000323508219                         0           
       0.587135           -0.000323531503                         0           
       0.587815           -0.000323554536                         0           
       0.588494           -0.000323578287                         0           
       0.589173           -0.000323602583                         0           
       0.589852           -0.000323625588                         0           
       0.590531           -0.000323649461                         0           
       0.591210           -0.000323672782                         0           
       0.591890           -0.000323696554                         0           
       0.592569           -0.000323719531                         0           
       0.593248           -0.000323744651                         0           
       0.593927           -0.000323768534                         0           
       0.594606           -0.000323792909                         0           
       0.595285           -0.000323815832                         0           
       0.595965           -0.000323837222                         0           
       0.596644           -0.000323859233                         0           
